SpectraSmart Spectrum 2.9.0.0
--------- Device Information -----------
Spectrum Name :  反射率_0
Saving Time :  2024/04/30 00:18:26
Spectro-Module Model Name : SE2030-DUVN
Spectro-Module Serial Number : OS361AC55029948
Wavelength Start : 200
Wavelength End : 1025
Wavelength Unit : Wavelength(nm)
Spectrum Unit : Reflectance(%)
-----------Spectrum Setting ------------
Integration Time : 20ms
Average : 10
Boxcar : 0
Background removal :  enabled
linearity correction :  enabled
SC :  disabled
Intensity correction :  disabled
DWT denoise :  enabled
savitzky-golay :  disabled
FFT :  disabled
Running average :  disabled
Kalman :  disabled
High pass :  disabled
---------------BEGIN--------------------
Wavelength(nm)             Reflectance(%)
200.29               0
200.75        64.77094
201.21        52.87052
201.67         40.3991
202.13        32.89191
202.58        32.83443
203.04        38.79137
203.50         50.4476
203.96        66.44659
204.42         83.8198
204.88        101.2392
205.34        110.7094
205.80        103.2541
206.26        84.49419
206.72        63.40081
207.18        46.85743
207.64        38.61096
208.10        36.93454
208.55        39.03686
209.01        43.93737
209.47        49.47221
209.93        53.64487
210.39        57.20415
210.85        58.66521
211.31        56.44174
211.77        50.20401
212.23        38.26255
212.69        23.00599
213.14         18.5194
213.60        30.41042
214.06        50.07191
214.52        66.40765
214.98        72.63512
215.44        70.36195
215.90        62.27617
216.36        52.25567
216.81        47.80265
217.27        52.64202
217.73        66.45438
218.19        87.14393
218.65        101.4239
219.11        100.1853
219.57        88.91472
220.02          76.603
220.48         69.2785
220.94        65.82304
221.40        63.78355
221.86        61.08012
222.32        54.99473
222.77        47.19134
223.23        41.58791
223.69        38.18456
224.15        35.90731
224.61        34.11246
225.06        32.28583
225.52        31.57334
225.98        33.79882
226.44        38.22418
226.90        43.08382
227.36         46.5442
227.81        47.51226
228.27        46.40066
228.73        43.61886
229.19        40.34289
229.65        39.15312
230.10        40.49393
230.56        43.01764
231.02        45.22889
231.48        45.85241
231.93        44.85707
232.39        42.85915
232.85         40.4101
233.31        38.60249
233.77        37.88276
234.22        38.03051
234.68        38.64202
235.14        38.99206
235.60        38.91105
236.05        38.72268
236.51        38.90815
236.97        40.08223
237.43        42.51135
237.88        46.37327
238.34        51.43806
238.80        56.60314
239.26        60.40021
239.71        62.61407
240.17        63.39004
240.63        63.89724
241.08        64.88355
241.54        66.21545
242.00         68.7601
242.46        73.85854
242.91        81.48988
243.37         89.4236
243.83        96.15289
244.28        102.3925
244.74        109.0471
245.20        115.7478
245.66        121.9425
246.11        126.0087
246.57        126.7157
247.03        125.7734
247.48         121.803
247.94        113.0981
248.40        103.3845
248.85         94.7464
249.31         90.5787
249.77        91.71535
250.22        98.16531
250.68        111.8337
251.14         131.815
251.59        140.2957
252.05        127.1268
252.51        106.8052
252.96        91.99017
253.42        86.76714
253.88        87.75452
254.33        92.29716
254.79        97.11482
255.25        95.75436
255.70        88.56827
256.16        80.62604
256.62        74.57127
257.07        71.62788
257.53        71.37729
257.99        72.38847
258.44        73.26291
258.90        73.00031
259.35        71.22768
259.81        69.17072
260.27        67.26934
260.72        65.86075
261.18        65.06775
261.63        64.34551
262.09         63.6004
262.55        62.39181
263.00        60.73018
263.46        59.07864
263.91         57.4794
264.37        56.29874
264.83        55.42175
265.28        54.63436
265.74        54.00718
266.19        53.41024
266.65        52.87583
267.11         52.3944
267.56        51.79972
268.02         50.8539
268.47        49.49911
268.93        47.80893
269.38        46.03976
269.84        44.76952
270.30        44.12966
270.75        43.95894
271.21        43.90365
271.66        43.39417
272.12        42.31805
272.57        40.81667
273.03        39.21735
273.48         37.9541
273.94        37.20448
274.39        36.77595
274.85        36.47049
275.31        35.92952
275.76        35.07708
276.22        34.08157
276.67        33.11099
277.13        32.49842
277.58        32.22685
278.04        32.19323
278.49        32.14465
278.95        31.83027
279.40        31.16815
279.86        30.35225
280.31        29.48657
280.77         28.8441
281.22        28.44862
281.68        28.23595
282.13        28.15644
282.59        28.19976
283.04        28.30209
283.50        28.46168
283.95        28.55416
284.41        28.40261
284.86        27.98312
285.32        27.40797
285.77         26.7857
286.22        26.34981
286.68        26.16399
287.13        26.12675
287.59         26.2155
288.04        26.33141
288.50        26.44679
288.95        26.54991
289.41        26.62767
289.86        26.61356
290.32        26.53467
290.77         26.4198
291.22        26.30687
291.68        26.25297
292.13        26.28659
292.59        26.43268
293.04        26.78107
293.50          27.492
293.95        28.56737
294.40        29.95674
294.86        31.47343
295.31        32.83146
295.77         33.9489
296.22        34.88636
296.68        35.79514
297.13        36.89692
297.58        38.25592
298.04        39.76763
298.49        41.32055
298.95        42.75368
299.40        44.01884
299.85        45.18627
300.31         46.3399
300.76        47.52525
301.21        48.80505
301.67        50.18765
302.12        51.63147
302.58        53.22077
303.03        54.92855
303.48         56.6605
303.94        58.42801
304.39         60.6286
304.84        62.54053
305.30         64.7014
305.75         66.7765
306.20        68.65221
306.66        70.30935
307.11        71.73997
307.57        73.07561
308.02        74.39968
308.47        75.79189
308.93         77.2384
309.38        78.68891
309.83        80.13363
310.29        81.55936
310.74        82.96022
311.19        84.29903
311.65        85.50371
312.10        86.54861
312.55        87.46175
313.00        88.35271
313.46        89.40209
313.91        90.62103
314.36        91.95528
314.82         93.2562
315.27        94.31161
315.72        95.04291
316.18        95.51856
316.63        95.82763
317.08        96.12877
317.53        96.49265
317.99        96.91003
318.44        97.34005
318.89        97.73088
319.35        98.07343
319.80        98.39039
320.25        98.77918
320.70        99.38855
321.16        100.1986
321.61        101.1881
322.06        102.1238
322.51        102.6446
322.97        102.6633
323.42        102.3059
323.87        101.8087
324.32        101.5727
324.78        101.6975
325.23        102.1412
325.68        102.7434
326.13        103.2283
326.59        103.4844
327.04        103.6229
327.49         103.753
327.94        104.0982
328.39        104.6945
328.85        105.4021
329.30        106.1018
329.75        106.4025
330.20        106.2231
330.66         105.698
331.11        105.0969
331.56         104.772
332.01        104.8595
332.46        105.2721
332.92        105.9047
333.37        106.7114
333.82        107.5659
334.27        108.4864
334.72        109.3915
335.17        110.1483
335.63        110.6894
336.08         111.075
336.53        111.3194
336.98        111.5417
337.43        111.7911
337.88        112.0481
338.34        112.3309
338.79        112.6838
339.24        113.1063
339.69        113.6133
340.14        114.1433
340.59        114.5759
341.05        114.8916
341.50        115.1259
341.95         115.345
342.40         115.682
342.85        116.1561
343.30        116.6883
343.75        117.2295
344.20        117.7027
344.66        118.0891
345.11        118.4367
345.56        118.6675
346.01        118.6486
346.46         118.404
346.91        117.9866
347.36        117.6746
347.81        117.8913
348.26        118.6817
348.72        119.8781
349.17        121.1532
349.62         121.876
350.07        121.8803
350.52        121.3895
350.97        120.6788
351.42        120.1727
351.87        120.0142
352.32        120.0639
352.77        120.3165
353.22        120.7718
353.67        121.3558
354.13        122.0356
354.58        122.6094
355.03        122.7351
355.48        122.3345
355.93        121.5023
356.38        120.4006
356.83        119.2975
357.28        118.2966
357.73        117.3509
358.18        116.4762
358.63        115.6829
359.08        114.9645
359.53        114.3431
359.98        113.7639
360.43        113.1209
360.88        112.3911
361.33        111.5944
361.78        110.7849
362.23        110.0574
362.68        109.4335
363.13        108.8829
363.58        108.3579
364.03         107.783
364.48        107.1367
364.93        106.4393
365.38        105.7315
365.83        105.0839
366.28        104.5105
366.73        103.9807
367.18        103.4475
367.63        102.8365
368.08         102.126
368.53        101.3453
368.98        100.5261
369.43        99.71442
369.88        98.94604
370.33        98.23351
370.78        97.58414
371.23        97.00997
371.68         96.5077
372.13        96.04958
372.58        95.66302
373.03        95.38961
373.48        95.19925
373.93        95.05481
374.38        94.79906
374.83        94.19087
375.28        93.22194
375.72        91.98766
376.17         90.7747
376.62        89.84258
377.07        89.24796
377.52        88.88525
377.97        88.68906
378.42        88.55191
378.87        88.41013
379.32        88.29285
379.77        88.10284
380.22        87.68857
380.67        87.03162
381.11        86.16254
381.56        85.23926
382.01        84.55629
382.46        84.19912
382.91        84.10356
383.36        84.09807
383.81        83.90716
384.26        83.46565
384.71        82.85045
385.15        82.20759
385.60        81.82434
386.05        81.72398
386.50        81.80069
386.95        81.86833
387.40        81.64988
387.85        81.10953
388.29        80.32964
388.74        79.57641
389.19        78.99406
389.64        78.61884
390.09        78.36367
390.54        78.19781
390.98        78.06547
391.43        77.96667
391.88        77.89659
392.33        77.75909
392.78         77.4875
393.23        77.09347
393.67        76.44556
394.12        75.71103
394.57        75.63313
395.02        75.14622
395.47        75.08379
395.91        75.07996
396.36        75.04649
396.81        74.95423
397.26        74.83321
397.71        74.70161
398.15        74.50522
398.60        74.33061
399.05        74.18542
399.50        74.03354
399.95        73.82288
400.39        73.34434
400.84        73.31318
401.29        73.55595
401.74        73.62323
402.18        73.39051
402.63        72.80267
403.08        72.09448
403.53        71.78976
403.97        71.93264
404.42        72.23656
404.87        72.51878
405.32        72.53116
405.76        72.18571
406.21        71.77908
406.66        71.38915
407.11        70.72978
407.55        70.08749
408.00        70.33432
408.45        71.29034
408.90         71.8391
409.34        71.75391
409.79        71.34613
410.24        70.86462
410.68        70.71944
411.13        70.98093
411.58        71.39413
412.03        71.76052
412.47        71.86424
412.92        71.60552
413.37        71.09756
413.81        70.48846
414.26         70.0714
414.71        69.88305
415.15        69.85777
415.60        69.91862
416.05        69.98576
416.49        70.02818
416.94        70.07632
417.39        70.11754
417.83        70.11092
418.28        70.05696
418.73        69.94701
419.17        69.84251
419.62        69.86597
420.07        70.02448
420.51        70.26818
420.96         70.5162
421.41        70.59162
421.85        70.44543
422.30        70.22237
422.74        69.96027
423.19        69.78881
423.64        69.72556
424.08        69.81545
424.53         70.0001
424.98        70.15828
425.42        70.24493
425.87        70.41235
426.31        70.60777
426.76        70.36865
427.21        69.70465
427.65        69.85408
428.10        70.56213
428.54        70.48524
428.99        69.75329
429.44        69.30477
429.88        69.29426
430.33        69.66046
430.77        70.15874
431.22        70.57075
431.66        70.76824
432.11        70.43589
432.56        69.72346
433.00        69.51051
433.45        70.06674
433.89        70.14188
434.34        70.41541
434.78        72.21486
435.23        70.56133
435.67        69.97934
436.12         69.3315
436.57        69.38525
437.01        69.94833
437.46        70.70423
437.90         70.2994
438.35         70.5782
438.79         71.1177
439.24        71.36992
439.68        71.35307
440.13        71.50288
440.57        71.82202
441.02        71.98194
441.46        71.93324
441.91        71.93329
442.35        71.96801
442.80        71.75259
443.24        72.18388
443.69        71.95603
444.13        71.44127
444.58        71.17715
445.02        71.13153
445.47        71.10688
445.91        71.09047
446.36        71.02016
446.80        70.82715
447.24        71.36636
447.69        71.12627
448.13        71.23019
448.58        71.24758
449.02        71.21229
449.47        71.18653
449.91        71.25915
450.36        71.46705
450.80        71.74153
451.25        72.02283
451.69        72.18226
452.13        72.19272
452.58        72.11735
453.02        71.99397
453.47        71.87357
453.91        71.76276
454.36        71.81891
454.80        71.69781
455.24        71.73347
455.69         71.7986
456.13        71.79189
456.58        71.72454
457.02        71.57813
457.46        71.36081
457.91        71.29955
458.35        70.98354
458.79        70.88976
459.24        70.92686
459.68        71.08687
460.13        71.32255
460.57        71.26742
461.01        71.42319
461.46        71.19449
461.90        70.79919
462.34        71.06548
462.79        71.20597
463.23        71.03805
463.68        70.43381
464.12        70.10596
464.56          70.102
465.01        70.04965
465.45        69.89977
465.89        69.90526
466.34        70.05602
466.78        70.12769
467.22        70.29919
467.67        70.19737
468.11        69.93063
468.55        69.62393
468.99        69.35822
469.44         69.1263
469.88        68.95365
470.32        68.90269
470.77        68.91551
471.21        68.88188
471.65        68.76956
472.10        68.63326
472.54         68.5099
472.98        68.49611
473.42        68.59857
473.87        68.77432
474.31        68.93606
474.75        68.98564
475.20        68.91689
475.64        68.77453
476.08        68.63029
476.52        68.42244
476.97        68.15057
477.41        68.04424
477.85        68.25449
478.29        67.51749
478.74        68.47818
479.18         68.3838
479.62        68.10107
480.06        68.01688
480.50        68.15192
480.95        68.00233
481.39        68.67056
481.83        67.65342
482.27        68.46092
482.72        68.29793
483.16        68.23582
483.60        68.27766
484.04          68.474
484.48        68.76063
484.93         68.9724
485.37        68.81122
485.81        68.51826
486.25        67.57983
486.69        68.87695
487.14        68.47655
487.58        67.61235
488.02        67.72105
488.46        68.48875
488.90        68.22043
489.34           67.73
489.79        68.10141
490.23        67.72495
490.67        67.87344
491.11        67.91318
491.55        67.68015
491.99        67.26037
492.43        67.12384
492.88        67.31544
493.32        67.59432
493.76        67.85059
494.20        68.03228
494.64        68.09128
495.08        68.06879
495.52        68.04486
495.96        67.95348
496.41        67.77396
496.85        68.03443
497.29        68.17157
497.73        67.54701
498.17        67.97398
498.61        67.68092
499.05        67.26246
499.49        66.90873
499.93        66.69537
500.37        66.79378
500.82        67.12043
501.26        67.26479
501.70        67.15282
502.14        67.43992
502.58        67.33412
503.02        67.41029
503.46        67.43521
503.90        67.44186
504.34        67.43798
504.78         67.4623
505.22        67.52575
505.66        67.59104
506.10        67.62575
506.54        67.65526
506.98        67.68442
507.42        67.57856
507.86        67.28706
508.30        67.49122
508.74        66.97189
509.18        66.74001
509.62        66.51596
510.06        66.46429
510.50        66.59768
510.94        66.88509
511.38        67.22548
511.82        67.41859
512.26        67.41795
512.70        67.25294
513.14        67.00432
513.58        66.87693
514.02        66.92641
514.46        66.81873
514.90        66.97691
515.34        66.99744
515.78        66.88477
516.22        66.75999
516.66        66.64424
517.10        66.61108
517.54        66.66676
517.98        66.78439
518.42        66.91255
518.86        66.95772
519.30        66.89627
519.74        66.79543
520.18        66.68745
520.62        66.53287
521.06        66.39618
521.50         66.4659
521.93        66.69509
522.37        66.81078
522.81        66.78962
523.25        66.75385
523.69        66.75972
524.13        66.84301
524.57        67.00878
525.01        67.23553
525.45        67.42371
525.89        67.41598
526.32        67.17959
526.76        66.79605
527.20        66.38693
527.64        66.14336
528.08        66.11098
528.52         66.2304
528.96        66.42204
529.40          66.557
529.83        66.58762
530.27        66.56046
530.71        66.49742
531.15        66.43882
531.59        66.39983
532.03        66.36131
532.46        66.31194
532.90        66.26806
533.34        66.22541
533.78         66.1912
534.22        66.16865
534.66        66.15703
535.09        66.14988
535.53        66.16037
535.97        66.17535
536.41        66.18951
536.85        66.19868
537.28        66.19674
537.72        66.18764
538.16        66.17353
538.60        66.15279
539.04         66.1264
539.47        66.07236
539.91         66.0117
540.35        65.93269
540.79        65.85105
541.22        65.77656
541.66        65.73603
542.10        65.73184
542.54        65.75911
542.97        65.81163
543.41        65.89857
543.85         66.0036
544.29        66.13286
544.72        66.22723
545.16        66.23133
545.60         66.1357
546.04        65.93506
546.47        65.71587
546.91        65.72083
547.35        65.93487
547.79        66.09572
548.22        66.13313
548.66        66.29296
549.10        66.56362
549.53        66.59798
549.97         66.2934
550.41        66.85761
550.84        66.29292
551.28        66.12347
551.72        65.78537
552.15        65.89416
552.59        65.65061
553.03        65.70937
553.46        65.80705
553.90        65.89937
554.34        65.95122
554.77        66.02458
555.21        66.12225
555.65        66.11185
556.08        66.02205
556.52        66.10677
556.96         66.3204
557.39        66.37823
557.83        66.30315
558.27        66.35819
558.70         66.5314
559.14        66.54955
559.57        66.42531
560.01        66.50356
560.45        66.72387
560.88        66.59121
561.32        66.44379
561.75        66.21117
562.19        66.05359
562.63        65.89803
563.06        65.78886
563.50        65.89191
563.93        66.10574
564.37        66.20589
564.80        66.14286
565.24        66.04314
565.68        65.94755
566.11        65.92636
566.55        66.00292
566.98        66.05446
567.42        66.13045
567.85        66.21381
568.29        66.28671
568.72         66.4546
569.16        66.83648
569.60        66.31519
570.03        66.79335
570.47        66.90745
570.90         67.1841
571.34         66.7832
571.77        67.04573
572.21        66.98993
572.64        67.02207
573.08         66.8238
573.51         66.4321
573.95         66.8755
574.38        67.26595
574.82         66.8745
575.25        67.10457
575.69        66.84321
576.12        66.38967
576.56         66.3011
576.99        66.52702
577.42        66.60474
577.86        66.37607
578.29        66.55415
578.73        67.34944
579.16        66.81458
579.60        66.50359
580.03        66.50647
580.47        66.97574
580.90         67.1487
581.33        66.82037
581.77        66.72157
582.20        67.13415
582.64         67.4323
583.07        66.99655
583.51        66.48137
583.94        66.01836
584.37        65.73605
584.81        65.85815
585.24        66.43288
585.68        66.77358
586.11        67.33385
586.54        66.67538
586.98        66.27852
587.41        66.98583
587.85        67.02805
588.28        67.10201
588.71         67.2012
589.15        66.54714
589.58         66.6612
590.01        65.99043
590.45        66.10037
590.88        66.58673
591.31        66.85659
591.75        66.63367
592.18         66.9947
592.61        67.15211
593.05        65.95306
593.48        66.64465
593.91        67.29358
594.35         66.2752
594.78        66.03791
595.21        65.71187
595.65         66.4792
596.08        65.92794
596.51        65.71711
596.94         66.5057
597.38        66.63533
597.81        66.36589
598.24        66.67601
598.68        66.23264
599.11        65.95029
599.54        66.95641
599.97        67.20495
600.41        66.06847
600.84        66.44729
601.27        66.28099
601.70        66.58791
602.14        66.68725
602.57         66.3242
603.00        65.94817
603.43        65.90753
603.87        66.06276
604.30        66.59594
604.73        66.25986
605.16        66.13183
605.60        65.91615
606.03        66.17591
606.46        66.69499
606.89        66.69981
607.32        66.23021
607.76        66.06103
608.19         66.2909
608.62        66.18856
609.05        66.11933
609.48        66.19208
609.92        66.43839
610.35        66.34669
610.78         66.4174
611.21        66.03732
611.64        66.12563
612.07        66.28536
612.50        66.16532
612.94        66.29317
613.37        66.55717
613.80        66.39296
614.23        66.74358
614.66        66.76055
615.09        66.72778
615.52        66.63096
615.96        66.47277
616.39        66.45905
616.82        66.01988
617.25        66.18536
617.68        65.63177
618.11        65.82431
618.54        66.25728
618.97        66.21448
619.40        65.76328
619.84         65.6096
620.27        65.88329
620.70        66.16904
621.13        66.35397
621.56        66.24798
621.99        65.85603
622.42        65.69508
622.85        66.36478
623.28         66.0658
623.71         66.6995
624.14        65.55376
624.57        66.20115
625.00        66.08465
625.43        66.07722
625.86        65.91523
626.29        65.64787
626.72        65.65491
627.15        65.64752
627.58        65.82932
628.01        66.01902
628.44        65.93063
628.87        65.62194
629.30        65.56195
629.73        65.76936
630.16        65.84694
630.59        65.77593
631.02        65.94639
631.45        66.04163
631.88         66.1333
632.31        66.11162
632.74        66.09457
633.17          65.973
633.60        65.83567
634.03        65.66776
634.46        65.46069
634.89        65.27328
635.32        65.21416
635.75        65.29794
636.18        65.48299
636.61        65.68919
637.04        65.79965
637.47        65.79681
637.89        65.66646
638.32        65.42558
638.75        65.32895
639.18        65.43032
639.61        64.97492
640.04        65.15841
640.47        65.12184
640.90        65.21609
641.33        65.38316
641.76        65.57013
642.18        65.67884
642.61        65.64768
643.04        65.51543
643.47         65.3587
643.90        65.28405
644.33        65.31301
644.76        65.49916
645.18         65.7412
645.61        65.69028
646.04         65.2668
646.47          65.277
646.90          65.628
647.33        65.72535
647.75        65.52664
648.18        65.38021
648.61        65.34975
649.04        65.33884
649.47        65.35964
649.89        65.57236
650.32        65.83404
650.75        65.72896
651.18        65.35656
651.61        65.22012
652.03        65.42301
652.46        65.75216
652.89        65.94509
653.32        65.96795
653.74        66.04273
654.17        64.98299
654.60        64.97173
655.03        66.68034
655.46        64.72135
655.88        66.21259
656.31        68.74889
656.74        70.03884
657.16        69.36933
657.59        66.76187
658.02         65.5141
658.45        66.70871
658.87        66.57745
659.30        66.14128
659.73        66.19003
660.15        66.41462
660.58        66.09193
661.01        66.09719
661.44        66.04929
661.86         65.8011
662.29        65.42446
662.72        65.45156
663.14        65.82706
663.57        65.78217
664.00        65.39832
664.42        65.32896
664.85        65.60911
665.27        65.85155
665.70        65.97492
666.13        66.05679
666.55        66.08337
666.98        66.02287
667.41        65.91167
667.83        65.81024
668.26        65.73177
668.69        65.66987
669.11         65.6327
669.54         65.6221
669.96        65.63134
670.39        65.70053
670.82        65.79089
671.24        65.74081
671.67         65.5807
672.09        65.56606
672.52        65.69489
672.94         65.8191
673.37        65.42518
673.80         65.8018
674.22        65.51941
674.65         65.6741
675.07        65.88905
675.50        66.17725
675.92        66.44266
676.35         66.5341
676.77        66.44185
677.20        66.15894
677.62        65.82298
678.05         65.7301
678.47         65.8892
678.90        66.07497
679.32        66.18906
679.75        66.23022
680.17        66.15739
680.60        65.94228
681.02        65.67377
681.45        65.51676
681.87        65.50733
682.30        65.64132
682.72        65.86469
683.15        65.87337
683.57        65.73832
684.00        65.90158
684.42         66.2849
684.85        66.43951
685.27        66.34395
685.70        66.12939
686.12        65.92963
686.54         66.1752
686.97        66.74431
687.39        66.99829
687.82         66.8502
688.24        66.78957
688.66        66.81272
689.09        66.56681
689.51        66.20345
689.94        65.95036
690.36        65.87139
690.78        65.88656
691.21        65.97594
691.63        66.10848
692.06        66.25647
692.48        66.44036
692.90        66.61234
693.33        66.68378
693.75           66.64
694.17         66.4901
694.60        66.30412
695.02        66.18926
695.44        66.16679
695.87        66.30202
696.29        66.51478
696.71        66.41428
697.14        66.08646
697.56        66.07425
697.98         66.3622
698.41        66.49045
698.83        66.43437
699.25        66.46786
699.68        66.56041
700.10        66.58303
700.52        66.51289
700.94        66.40321
701.37        66.26913
701.79        66.15207
702.21        66.06174
702.64        65.99879
703.06        65.97907
703.48        66.03716
703.90        66.17505
704.33        66.39271
704.75        66.61473
705.17        66.78228
705.59        66.84824
706.01        66.83034
706.44        66.77433
706.86        66.74838
707.28        66.76702
707.70        66.85665
708.12        66.98917
708.55        67.00089
708.97        66.91976
709.39        67.02973
709.81         67.2131
710.23        67.36802
710.66        67.43803
711.08        67.55203
711.50        67.67817
711.92        67.74769
712.34        67.75715
712.76        67.72307
713.19        67.65379
713.61        67.60984
714.03        67.58987
714.45        67.59071
714.87        67.60606
715.29         67.6232
715.71        67.63647
716.13        67.64558
716.56        67.64385
716.98        67.70547
717.40         67.8053
717.82        67.92735
718.24        68.02956
718.66        68.04887
719.08        67.97388
719.50         67.8247
719.92        67.65028
720.34         67.5294
720.76          67.484
721.19        67.48634
721.61        67.51487
722.03        67.50549
722.45        67.44228
722.87        67.34733
723.29        67.24654
723.71        67.17951
724.13        67.15849
724.55         67.1694
724.97        67.20093
725.39        67.23366
725.81        67.26411
726.23        67.30611
726.65        67.35693
727.07        67.41475
727.49         67.4744
727.91        67.51408
728.33        67.55968
728.75        67.65707
729.17        67.80566
729.59        68.00123
730.01        68.14362
730.43        68.07024
730.85        67.77234
731.27        67.31886
731.69        66.89329
732.10        66.77906
732.52        67.03271
732.94        67.56982
733.36        68.21658
733.78        68.66455
734.20        68.80434
734.62        68.69476
735.04        68.46746
735.46        68.37183
735.88         68.4443
736.30        68.53204
736.72        68.56541
737.13        68.52267
737.55        68.35249
737.97        68.10818
738.39        67.87523
738.81        67.68844
739.23        67.61986
739.65        67.87985
740.06        68.28387
740.48        68.38879
740.90        68.13022
741.32        67.71857
741.74         67.3175
742.16        67.15044
742.57        67.29955
742.99        67.62222
743.41        68.00395
743.83        68.37742
744.25         68.6248
744.67        68.51569
745.08        68.17012
745.50        68.02505
745.92        68.13555
746.34         68.3093
746.75         68.5024
747.17        68.58343
747.59        68.49361
748.01        68.87481
748.42        68.64293
748.84        68.62394
749.26        68.51319
749.68        68.34738
750.09        68.17267
750.51        68.11735
750.93        68.19769
751.35        68.37447
751.76        68.58112
752.18        68.69678
752.60        68.68821
753.01        68.59564
753.43        68.46136
753.85        68.38548
754.27        68.41238
754.68         68.5474
755.10        68.72121
755.52        68.82419
755.93         68.8045
756.35        68.66142
756.77        68.56236
757.18        68.64628
757.60        68.92564
758.02        69.72231
758.43        70.62702
758.85        70.16286
759.26        68.65152
759.68        68.14442
760.10         68.7552
760.51        69.05911
760.93        68.95686
761.34        69.28018
761.76        69.82937
762.18        69.71121
762.59        69.01972
763.01        68.53916
763.42        68.44345
763.84        68.33163
764.26        68.25536
764.67        68.49352
765.09        68.94865
765.50        69.24998
765.92        69.35411
766.33         69.3474
766.75        69.27712
767.16        69.19407
767.58         69.1157
768.00        68.94968
768.41        68.75751
768.83        68.83018
769.24        69.07697
769.66        69.06879
770.07        68.82851
770.49        68.74515
770.90        68.85508
771.32        69.04677
771.73         69.2746
772.15        69.34861
772.56         69.2535
772.97        69.33356
773.39         69.1427
773.80        69.19153
774.22        69.31888
774.63        69.54786
775.05        69.76405
775.46         69.8837
775.88        69.84937
776.29        69.72078
776.70        69.53506
777.12        69.37699
777.53        69.28302
777.95          69.215
778.36        69.18893
778.77        69.21745
779.19        69.30293
779.60        69.48053
780.02        69.66604
780.43        69.84592
780.84        69.99842
781.26        69.87715
781.67        69.63761
782.09        70.07654
782.50        70.96624
782.91         70.9804
783.33        70.16744
783.74        69.76785
784.15        69.84922
784.57        69.70907
784.98        69.39479
785.39        69.32072
785.81        69.51333
786.22        69.85451
786.63        70.26591
787.04        70.61825
787.46        70.86668
787.87        71.02571
788.28        71.12808
788.70        71.21917
789.11        71.30323
789.52        71.37655
789.93        71.40635
790.35         71.3389
790.76          71.187
791.17         70.9824
791.58        70.80164
792.00        70.72573
792.41        70.79225
792.82         71.0048
793.23        71.29579
793.65        71.43782
794.06        71.45406
794.47        71.61874
794.88        71.86715
795.29        71.89374
795.71        71.66077
796.12        71.36096
796.53        71.11055
796.94        71.06348
797.35        71.27007
797.76         71.6863
798.18         72.1485
798.59        72.43089
799.00        72.44819
799.41        72.27352
799.82        72.00095
800.23        71.79703
800.64        71.72118
801.06        71.69469
801.47        71.74354
801.88        71.83267
802.29        71.93871
802.70        72.07275
803.11        72.19215
803.52        72.21439
803.93        72.13577
804.34        71.98653
804.75        71.81656
805.17        71.75711
805.58        71.87321
805.99        71.96667
806.40        72.05533
806.81        72.50543
807.22        73.13866
807.63        73.17532
808.04        72.68213
808.45        72.47665
808.86         72.6318
809.27        72.68997
809.68        72.58739
810.09        72.45626
810.50        72.29844
810.91        72.08294
811.32        71.92278
811.73         71.9902
812.14        72.30712
812.55        72.83069
812.96        73.37257
813.37        73.58307
813.78        73.37633
814.19        72.87324
814.60        72.29079
815.01        71.93904
815.42        71.89251
815.83        72.06211
816.24        72.35121
816.65        72.56676
817.05        72.62921
817.46        72.57062
817.87        72.45786
818.28        72.32774
818.69        72.20696
819.10         72.0802
819.51        71.97938
819.92        71.97575
820.33        72.08302
820.74        72.27274
821.14        72.51909
821.55        72.78715
821.96        73.04758
822.37        73.31102
822.78        73.51121
823.19        73.53754
823.60          73.368
824.00        73.02749
824.41        72.63848
824.82         72.4273
825.23        72.44404
825.64        72.65074
826.04        72.92163
826.45        72.94811
826.86        72.69057
827.27        72.24636
827.68        71.80708
828.08        71.69553
828.49        71.94115
828.90         72.4741
829.31        73.14008
829.72        73.67281
830.12        74.00152
830.53        74.11192
830.94        74.12092
831.35        74.18663
831.75        74.37269
832.16        74.55125
832.57        74.65847
832.97        74.55646
833.38        74.23618
833.79        73.82159
834.20        73.39965
834.60        73.06172
835.01         72.8756
835.42        72.78065
835.82        72.87235
836.23        73.23792
836.64        73.87737
837.04        74.77613
837.45        75.58934
837.86         75.9023
838.26        75.60957
838.67        74.83985
839.08        73.89716
839.48        73.24081
839.89        73.04542
840.29        73.18661
840.70        73.51722
841.11        73.80603
841.51        73.99113
841.92        74.10267
842.33        74.21662
842.73        74.43321
843.14        74.71587
843.54        75.04457
843.95        75.31054
844.35        75.42256
844.76         75.3358
845.17        75.06725
845.57        74.75125
845.98        74.56821
846.38        74.58522
846.79        74.76546
847.19        74.92852
847.60        74.71578
848.00         74.0996
848.41        73.22063
848.81        72.42515
849.22        72.22522
849.62        72.75275
850.03        73.80251
850.43        75.08999
850.84        75.89544
851.24        76.04259
851.65        75.61821
852.05        74.90976
852.46        74.35516
852.86        74.09263
853.27        74.05898
853.67        74.03033
854.07        73.89304
854.48        73.56532
854.88        73.13379
855.29        72.67245
855.69        72.52875
856.10        72.70048
856.50        73.18552
856.90        73.68606
857.31        73.80581
857.71        73.51197
858.12        72.87511
858.52         72.2043
858.92        71.96526
859.33        72.25524
859.73        72.97269
860.13        73.80915
860.54        74.27037
860.94        74.26009
861.34        73.83886
861.75        73.18378
862.15        72.66495
862.55        72.37481
862.96        72.23997
863.36        72.07874
863.76        71.62715
864.17         70.8782
864.57        69.98322
864.97        69.17663
865.38         68.7506
865.78        68.79592
866.18        69.18188
866.58        69.79392
866.99        70.37441
867.39        70.83653
867.79        71.21373
868.19        71.40079
868.60        71.24524
869.00         70.7673
869.40         69.9927
869.80        69.27322
870.21        69.21193
870.61         69.9707
871.01        71.33263
871.41        72.77684
871.81         73.4729
872.22        73.20822
872.62        72.20742
873.02        70.92853
873.42        70.14362
873.82        70.09447
874.22        70.60153
874.63        71.26308
875.03        71.46058
875.43        71.05927
875.83        70.24022
876.23        69.49753
876.63        69.63063
877.03        70.77715
877.44        72.60609
877.84        74.45772
878.24        75.16859
878.64        74.50662
879.04        72.92136
879.44        71.09492
879.84        70.02154
880.24        69.93553
880.64        70.48795
881.04        71.40653
881.44        72.23931
881.84         72.7972
882.24        73.26508
882.65        73.48134
883.05        73.29859
883.45        72.68984
883.85         71.7047
884.25        70.76849
884.65         70.5541
885.05        71.16026
885.45        72.37357
885.85        73.75474
886.25        74.52254
886.65        74.42976
887.05        73.72445
887.45         72.6415
887.85        71.60456
888.25        70.83985
888.65        70.26066
889.04        69.91523
889.44        69.95377
889.84        70.31601
890.24        70.99543
890.64        71.83464
891.04        72.44906
891.44        72.67591
891.84        72.60185
892.24        72.34422
892.64        72.09494
893.04        71.92305
893.44        71.77196
893.83        71.73071
894.23        71.87834
894.63        72.24211
895.03        72.79439
895.43        73.37608
895.83        73.73695
896.23        73.81055
896.63        73.62704
897.02        73.30906
897.42        73.13721
897.82        73.15674
898.22        73.32272
898.62        73.44706
899.01        73.22783
899.41        72.61517
899.81        71.74537
900.21        70.92342
900.61        70.60362
901.00          70.864
901.40        71.54968
901.80        72.33054
902.20        72.66407
902.59        72.40614
902.99        71.73212
903.39        70.90912
903.79        70.33334
904.18        70.12246
904.58        70.18497
904.98         70.3885
905.38         70.5503
905.77        70.58298
906.17        70.52945
906.57        70.47983
906.96        70.59599
907.36        70.86751
907.76        71.27127
908.15        71.58464
908.55        71.32982
908.95        70.52482
909.34        69.34457
909.74        68.32891
910.14        68.16323
910.53         69.0103
910.93        70.59013
911.33        72.52216
911.72        74.20277
912.12        75.31186
912.52        75.99373
912.91        76.32628
913.31        76.45226
913.70        76.44935
914.10        76.21999
914.49        75.76649
914.89        75.10128
915.29        74.29449
915.68        73.44116
916.08        72.71542
916.47        72.21783
916.87        72.02809
917.26        72.06857
917.66        72.31972
918.05        72.76183
918.45        73.28816
918.84        73.92982
919.24         74.4321
919.64        74.52702
920.03        74.17046
920.42        73.41901
920.82        72.57944
921.21        72.03391
921.61         71.8943
922.00        72.07928
922.40        72.40926
922.79        72.64998
923.19        72.68832
923.58        72.63247
923.98        72.54971
924.37         72.5498
924.77        72.65666
925.16        72.81877
925.55         72.9996
925.95        73.15936
926.34        73.29321
926.74        73.39514
927.13        73.45668
927.52        73.42565
927.92        73.30621
928.31        73.09725
928.70        72.84595
929.10        72.61755
929.49        72.43121
929.89        72.24223
930.28        72.06028
930.67          71.822
931.07        71.52652
931.46        71.24245
931.85        70.96472
932.24        70.67771
932.64        70.41146
933.03        70.19092
933.42        70.12273
933.82        70.36594
934.21        70.95189
934.60        71.75582
934.99        72.65429
935.39        73.43187
935.78        74.04112
936.17         74.4809
936.56        74.57828
936.96        74.12228
937.35        73.15833
937.74        71.83001
938.13        70.56596
938.53        69.88266
938.92        69.84346
939.31        70.39727
939.70        71.23115
940.09        71.72353
940.49        71.65755
940.88        71.17619
941.27        70.66786
941.66        70.74635
942.05        71.52482
942.44        72.85422
942.84        74.14854
943.23        74.44086
943.62        73.45893
944.01        71.54832
944.40        69.60044
944.79        68.91335
945.18        69.73671
945.57         71.6961
945.97        73.89603
946.36        74.99308
946.75        74.47603
947.14        72.80639
947.53        70.79998
947.92        69.67841
948.31        69.77756
948.70        70.75945
949.09        72.07648
949.48        72.75912
949.87        72.49707
950.26        71.61082
950.65        70.65955
951.04        70.39745
951.43        70.98383
951.82        72.20446
952.21        73.49932
952.60        73.88349
952.99        73.10313
953.38        71.49409
953.77        69.85404
954.16        69.23016
954.55        69.82249
954.94        71.44187
955.33        73.33656
955.72        73.89442
956.11        72.63126
956.50        70.14039
956.89        67.66404
957.28        66.81593
957.66        67.92097
958.05        70.43353
958.44         73.4474
958.83        75.09258
959.22        74.70772
959.61         72.9621
960.00        70.77212
960.39          69.282
960.78        68.73919
961.16        68.80047
961.55        69.15355
961.94        69.31691
962.33        69.11292
962.72        68.83218
963.11        68.58849
963.49        68.47629
963.88        68.52689
964.27        68.62231
964.66        68.85198
965.04        69.45916
965.43         70.3551
965.82        71.49403
966.21        72.51585
966.60        72.77085
966.98        72.17252
967.37        71.03165
967.76        69.78979
968.15        69.02822
968.53         68.8623
968.92        69.04974
969.31        69.61501
969.69        70.59716
970.08        71.83275
970.47        73.42512
970.86        74.73454
971.24        74.68449
971.63        73.11935
972.02        70.45065
972.40        67.84454
972.79        67.12652
973.17        68.60836
973.56        71.64201
973.95        75.22881
974.33        77.44197
974.72        77.54198
975.11        76.13037
975.49        74.05176
975.88        72.92097
976.26        73.15125
976.65        74.19994
977.04         75.5294
977.42        76.19898
977.81        75.75195
978.19        74.65515
978.58        73.35227
978.96        72.37392
979.35        71.96895
979.74        71.98621
980.12        72.34009
980.51        72.84866
980.89         73.4677
981.28        74.06487
981.66        74.84582
982.05        75.86287
982.43         77.1807
982.82        78.67229
983.20        79.76981
983.59         79.4285
983.97        77.56243
984.35        74.59306
984.74         71.7421
985.12        70.67465
985.51        71.62083
985.89        74.18353
986.28        77.15511
986.66        78.85455
987.04        78.59877
987.43        76.93296
987.81        74.60699
988.20        73.24431
988.58        73.25838
988.96        74.16073
989.35        75.11586
989.73        75.03145
990.12        73.58907
990.50        71.39616
990.88        68.95902
991.27        67.04308
991.65        65.91492
992.03        65.36974
992.42        65.57013
992.80        67.09216
993.18        69.81998
993.56        73.65881
993.95        77.59173
994.33        79.80205
994.71        79.59373
995.10        77.47555
995.48        74.63087
995.86        72.95901
996.24        72.96333
996.63         74.0857
997.01        75.80944
997.39        76.93082
997.77        76.99636
998.15        76.43371
998.54        75.56361
998.92        74.84502
999.30        74.41897
999.68        74.10319
1000.06        73.85638
1000.45        73.60465
1000.83        73.38934
1001.21        73.33057
1001.59        73.48049
1001.97        73.84871
1002.35         74.4242
1002.73        75.13824
1003.12        75.97126
1003.50        76.84477
1003.88        77.73323
1004.26        78.63263
1004.64        79.37553
1005.02        79.69181
1005.40        79.54509
1005.78         79.0238
1006.16        78.43368
1006.54        78.20143
1006.92        78.41639
1007.30        79.01662
1007.69        79.69792
1008.07        79.94244
1008.45        79.49832
1008.83         78.5333
1009.21         77.4624
1009.59         76.9845
1009.97        77.27134
1010.35        78.04886
1010.73        78.95366
1011.11        79.41953
1011.49        79.23704
1011.86        78.62502
1012.24        77.53982
1012.62        76.09949
1013.00        74.36664
1013.38        72.31715
1013.76          70.101
1014.14        68.15209
1014.52        66.75996
1014.90        65.97705
1015.28        65.81467
1015.66        66.12488
1016.04        66.80069
1016.41        67.90723
1016.79        69.17709
1017.17        70.05975
1017.55        70.42113
1017.93        70.45995
1018.31        70.54516
1018.69        71.19262
1019.06        72.65057
1019.44        74.81785
1019.82        77.89646
1020.20         81.1656
1020.58        83.35921
1020.95        84.08437
1021.33        83.50289
1021.71        81.88103
1022.09        79.24524
1022.46        75.18059
1022.84        69.95886
1023.22        65.04755
1023.60        62.27602
1023.97        61.73186
1024.35        62.84575
1024.73        64.86553
