SpectraSmart Spectrum 2.9.0.0
--------- Device Information -----------
Spectrum Name :  反射率_0
Saving Time :  2024/04/30 00:35:30
Spectro-Module Model Name : SE2030-DUVN
Spectro-Module Serial Number : OS361AC55029948
Wavelength Start : 200
Wavelength End : 1025
Wavelength Unit : Wavelength(nm)
Spectrum Unit : Reflectance(%)
-----------Spectrum Setting ------------
Integration Time : 20ms
Average : 10
Boxcar : 0
Background removal :  enabled
linearity correction :  enabled
SC :  disabled
Intensity correction :  disabled
DWT denoise :  enabled
savitzky-golay :  disabled
FFT :  disabled
Running average :  disabled
Kalman :  disabled
High pass :  disabled
---------------BEGIN--------------------
Wavelength(nm)             Reflectance(%)
200.29               0
200.75        74.26007
201.21        55.81476
201.67        36.66566
202.13        25.81123
202.58        27.29828
203.04        39.62276
203.50        59.72549
203.96        79.85376
204.42        93.93573
204.88        101.2699
205.34        99.43369
205.80        88.17014
206.26        72.69463
206.72        57.55496
207.18        44.59346
207.64        33.44059
208.10         23.0345
208.55        12.24463
209.01        3.816371
209.47        4.809871
209.93        15.07705
210.39        29.82888
210.85        42.66495
211.31        49.00554
211.77        49.13281
212.23        43.37334
212.69        33.48928
213.14        29.52908
213.60         35.8991
214.06        47.07798
214.52         56.2974
214.98        59.30341
215.44        57.07912
215.90        51.58801
216.36        45.58652
216.81        44.24584
217.27        50.32882
217.73        63.88163
218.19        83.50006
218.65        98.22935
219.11        99.58783
219.57        91.19582
220.02        80.73138
220.48        73.81274
220.94        69.60242
221.40        66.07797
221.86         61.5669
222.32        54.86338
222.77        48.10667
223.23         43.9437
223.69        42.04409
224.15        41.48773
224.61        41.72612
225.06        42.49232
225.52        43.87646
225.98        45.40342
226.44        46.56298
226.90        47.32528
227.36        47.61211
227.81        47.41708
228.27        46.87904
228.73        45.96199
229.19        45.10636
229.65        45.19526
230.10        46.23447
230.56        47.74958
231.02        49.01206
231.48        49.45139
231.93        49.03878
232.39        48.03797
232.85        46.83092
233.31         46.2001
233.77        46.40753
234.22         47.4096
234.68        48.51039
235.14        48.49065
235.60        47.16054
236.05        44.96191
236.51        43.15715
236.97        43.37965
237.43        46.07016
237.88         51.4097
238.34        58.43815
238.80        63.74008
239.26        64.74401
239.71        62.05294
240.17        57.72433
240.63        55.03511
241.08        54.97869
241.54        57.21119
242.00        62.49806
242.46        69.79663
242.91        76.10233
243.37         79.9236
243.83        81.22622
244.28        81.60437
244.74        81.67822
245.20         80.3598
245.66         78.4028
246.11        78.10995
246.57        80.59243
247.03        86.55506
247.48        92.98605
247.94        92.44773
248.40        85.77528
248.85        77.25241
249.31        71.89441
249.77        71.84393
250.22        77.10526
250.68        88.59892
251.14        106.0965
251.59        115.6055
252.05         107.582
252.51        93.28366
252.96        82.14182
253.42        77.33338
253.88        76.58471
254.33         77.8351
254.79        80.06625
255.25        80.75344
255.70        79.31527
256.16        77.64917
256.62        76.25075
257.07        75.25423
257.53        74.93003
257.99        74.76066
258.44        74.25392
258.90        73.60906
259.35        72.47935
259.81        71.43172
260.27        70.45824
260.72        69.56783
261.18        68.92618
261.63        68.14601
262.09        67.25331
262.55        65.90562
263.00         64.1324
263.46        62.38054
263.91        60.64035
264.37        59.23451
264.83        58.06522
265.28        56.97645
265.74        56.11416
266.19        55.45372
266.65        55.04005
267.11        54.78659
267.56        54.49823
268.02        53.91374
268.47        52.93976
268.93        51.65124
269.38         50.1801
269.84        48.89467
270.30        47.90983
270.75        47.15595
271.21         46.4925
271.66        45.64674
272.12        44.56463
272.57        43.29192
273.03        42.03018
273.48        41.00158
273.94        40.31788
274.39        39.85146
274.85        39.44753
275.31        38.79568
275.76        37.84562
276.22        36.75677
276.67        35.70866
277.13        35.06689
277.58        34.81535
278.04        34.84489
278.49        34.89261
278.95        34.70063
279.40         34.1638
279.86        33.46096
280.31          32.665
280.77        32.01302
281.22         31.5234
281.68         31.1634
282.13        30.88862
282.59        30.70293
283.04         30.5574
283.50        30.45793
283.95        30.33755
284.41        30.10788
284.86        29.75051
285.32         29.3484
285.77        28.91824
286.22        28.56406
286.68        28.32691
287.13        28.13995
287.59          28.061
288.04        28.11482
288.50        28.29777
288.95        28.55049
289.41        28.78344
289.86        28.81661
290.32        28.65664
290.77        28.36994
291.22         28.0616
291.68         27.8952
292.13        27.92233
292.59        28.12994
293.04        28.55066
293.50        29.26198
293.95        30.25167
294.40         31.5123
294.86        32.89462
295.31        34.16805
295.77        35.27231
296.22        36.24514
296.68        37.24396
297.13        38.50217
297.58        40.06793
298.04        41.82055
298.49        43.59376
298.95        45.14368
299.40        46.40689
299.85        47.48411
300.31        48.50011
300.76        49.56599
301.21        50.76678
301.67        52.08758
302.12        53.49464
302.58        55.08381
303.03        56.81609
303.48        58.59915
303.94        60.39074
304.39        62.48087
304.84        64.17403
305.30        66.01372
305.75        67.75043
306.20        69.39229
306.66        70.94751
307.11        72.36953
307.57        73.73186
308.02        75.02547
308.47        76.31242
308.93        77.61795
309.38         78.9189
309.83        80.24998
310.29        81.60677
310.74        82.94691
311.19        84.24371
311.65        85.44574
312.10        86.51748
312.55        87.48675
313.00         88.3792
313.46        89.24285
313.91        90.07601
314.36        90.86578
314.82         91.6132
315.27        92.34949
315.72        93.05292
316.18        93.72857
316.63        94.30285
317.08        94.66762
317.53        94.83186
317.99        94.86957
318.44        94.89117
318.89        95.08487
319.35        95.49734
319.80        96.06538
320.25        96.75632
320.70        97.51521
321.16        98.26368
321.61        99.04405
322.06         99.7121
322.51        100.0551
322.97        100.0338
323.42        99.72197
323.87        99.29924
324.32        99.08246
324.78        99.14424
325.23        99.47279
325.68        99.93956
326.13        100.3137
326.59        100.5098
327.04        100.6392
327.49        100.7891
327.94        101.1485
328.39        101.7462
328.85        102.4406
329.30         103.178
329.75        103.6825
330.20        103.8751
330.66        103.8395
331.11        103.6797
331.56        103.4913
332.01        103.3616
332.46        103.2821
332.92        103.3269
333.37        103.7687
333.82        104.5868
334.27        105.7082
334.72        106.9428
335.17        107.9611
335.63        108.6181
336.08        109.0408
336.53        109.2325
336.98        109.2912
337.43        109.2873
337.88        109.1984
338.34        109.1537
338.79        109.3831
339.24        109.9243
339.69        110.7551
340.14        111.6831
340.59         112.356
341.05        112.6892
341.50        112.7759
341.95         112.807
342.40        113.1173
342.85        113.7725
343.30        114.6294
343.75        115.5164
344.20        116.1642
344.66        116.5123
345.11        116.6785
345.56        116.7108
346.01        116.6727
346.46        116.6286
346.91        116.5537
347.36        116.6143
347.81        117.0732
348.26        117.9347
348.72        119.0852
349.17         120.254
349.62        120.9031
350.07        120.9024
350.52        120.4468
350.97        119.7937
351.42        119.3431
351.87        119.2306
352.32        119.3297
352.77        119.6428
353.22        120.1761
353.67         120.852
354.13        121.6252
354.58        122.2772
355.03        122.4436
355.48        122.0425
355.93        121.1814
356.38         120.034
356.83        118.8842
357.28        117.8487
357.73        116.8846
358.18        116.0237
358.63        115.2995
359.08        114.7048
359.53        114.2474
359.98        113.8554
360.43        113.3926
360.88        112.8244
361.33        112.1806
361.78         111.497
362.23        110.8447
362.68        110.2457
363.13        109.6672
363.58         109.118
364.03        108.6154
364.48        108.1475
364.93        107.7056
365.38        107.2352
365.83        106.6495
366.28        105.9385
366.73        105.1363
367.18        104.3036
367.63        103.5336
368.08        102.8519
368.53        102.2348
368.98        101.6658
369.43        101.1095
369.88        100.5637
370.33        100.0634
370.78        99.59332
371.23        99.12949
371.68        98.66228
372.13        98.15698
372.58        97.68929
373.03        97.38874
373.48        97.24726
373.93        97.21591
374.38        97.07524
374.83        96.47611
375.28        95.39308
375.72        93.96198
376.17        92.56393
376.62        91.58819
377.07        91.11636
377.52        91.00665
377.97        91.09767
378.42        91.12324
378.87        90.97811
379.32        90.73306
379.77        90.39944
380.22        89.98953
380.67        89.51295
381.11        88.94685
381.56        88.32329
382.01        87.73376
382.46        87.22162
382.91         86.7968
383.36        86.43189
383.81        86.06461
384.26        85.67905
384.71        85.28889
385.15        84.92396
385.60        84.69015
386.05        84.56864
386.50        84.51658
386.95         84.4459
387.40           84.23
387.85        83.85747
388.29        83.33649
388.74        82.85365
389.19        82.44718
389.64        82.13267
390.09        81.86263
390.54        81.64407
390.98        81.47363
391.43        81.37268
391.88        81.30661
392.33        81.18933
392.78        80.88002
393.23        80.67465
393.67        79.89671
394.12        78.89353
394.57         78.7464
395.02        78.36057
395.47        78.42737
395.91        78.51842
396.36        78.53945
396.81        78.44035
397.26          78.267
397.71        78.04919
398.15        77.73414
398.60         77.4203
399.05        77.14754
399.50        76.91804
399.95        76.63165
400.39        76.10979
400.84        76.34332
401.29        77.03173
401.74        77.14375
402.18        76.57226
402.63        75.82928
403.08         75.2207
403.53        74.97695
403.97        75.16294
404.42        75.68581
404.87        76.26335
405.32         76.4226
405.76        76.04724
406.21        75.39039
406.66        74.66367
407.11        74.06602
407.55        73.80113
408.00        74.03902
408.45        74.61732
408.90        75.07761
409.34        75.20782
409.79        74.87308
410.24        74.33024
410.68        74.23782
411.13        74.66847
411.58         75.2691
412.03        75.80088
412.47        76.00117
412.92        75.74928
413.37        75.18178
413.81         74.4801
414.26        73.98721
414.71        73.75356
415.15        73.70133
415.60        73.75069
416.05        73.81595
416.49        73.86324
416.94        73.93407
417.39        74.00116
417.83        73.99175
418.28        73.91055
418.73        73.76535
419.17        73.64758
419.62        73.73987
420.07        74.04556
420.51        74.44371
420.96        74.83994
421.41        75.06239
421.85        74.99705
422.30        74.78751
422.74        74.45007
423.19          73.916
423.64        73.36066
424.08        73.44513
424.53         74.0567
424.98        74.36722
425.42        74.27575
425.87        74.39505
426.31         74.6712
426.76        74.37157
427.21        73.51566
427.65        73.53919
428.10        74.22417
428.54        74.12331
428.99        73.36246
429.44         73.0666
429.88        73.29546
430.33         73.5057
430.77        73.60637
431.22        74.11164
431.66        74.81714
432.11        74.69937
432.56        73.89725
433.00        73.63908
433.45        74.10178
433.89        74.53073
434.34        74.49832
434.78        75.62835
435.23        74.37147
435.67        73.75497
436.12        73.12395
436.57        73.14321
437.01        73.67268
437.46         74.4491
437.90        74.29367
438.35        74.63375
438.79        75.34524
439.24        75.57241
439.68        75.41911
440.13        75.34877
440.57        75.44574
441.02        75.45655
441.46        75.35316
441.91        75.45724
442.35        75.72491
442.80        75.35326
443.24        76.13966
443.69        75.79841
444.13        75.06832
444.58        74.77099
445.02        74.87955
445.47        75.07565
445.91        75.29472
446.36        75.31613
446.80        75.01079
447.24        75.95471
447.69        75.41505
448.13        75.51036
448.58        75.45895
449.02        75.32339
449.47        75.18671
449.91        75.19001
450.36        75.39286
450.80        75.71085
451.25        76.05494
451.69        76.23583
452.13        76.21454
452.58        76.08736
453.02        75.95144
453.47        75.84094
453.91        75.74514
454.36        76.01688
454.80        76.30881
455.24        75.93441
455.69        76.35178
456.13        76.36856
456.58        76.40587
457.02        76.09494
457.46        75.56817
457.91        75.29547
458.35        75.24802
458.79        75.17381
459.24        75.11175
459.68        75.19908
460.13        75.37608
460.57        75.56654
461.01        75.49355
461.46        75.28754
461.90        74.98415
462.34        75.08379
462.79        75.45385
463.23        75.42099
463.68        74.98152
464.12        74.69481
464.56         74.5989
465.01        74.34819
465.45        73.98375
465.89        73.92738
466.34        74.13963
466.78        74.38235
467.22        74.53207
467.67        74.40027
468.11        74.05929
468.55        73.83475
468.99        73.76862
469.44        73.59846
469.88        73.34161
470.32         73.2182
470.77        73.19281
471.21        73.11742
471.65        72.96767
472.10        72.81298
472.54        72.70757
472.98        72.74335
473.42        72.91576
473.87        73.26192
474.31        73.64122
474.75        73.65364
475.20         73.3615
475.64        73.36485
476.08         73.6574
476.52        73.48771
476.97        72.79691
477.41         72.9317
477.85        72.40867
478.29        71.94463
478.74        72.72868
479.18        72.62699
479.62        72.20669
480.06        72.13566
480.50        72.45845
480.95        72.35285
481.39         72.9297
481.83        72.44223
482.27        72.90623
482.72        72.92131
483.16        72.92592
483.60        72.97503
484.04        73.03558
484.48        73.19497
484.93        73.33037
485.37        73.10253
485.81        72.05277
486.25        71.81344
486.69        73.38956
487.14        72.93861
487.58        71.50758
488.02         72.5481
488.46        72.61954
488.90        72.28664
489.34        72.19495
489.79        73.10047
490.23        71.83225
490.67         71.9305
491.11        72.23821
491.55        72.05326
491.99        71.45367
492.43        71.27809
492.88        71.59254
493.32        71.98118
493.76        72.31821
494.20        72.56506
494.64        72.66776
495.08        72.68188
495.52        72.60777
495.96        72.38484
496.41        72.11967
496.85        71.98056
497.29        71.90666
497.73        72.14391
498.17        71.81431
498.61        71.61697
499.05        71.37433
499.49        71.28889
499.93        71.34454
500.37        71.35876
500.82        71.33322
501.26        71.39406
501.70        71.53125
502.14        71.66126
502.58        71.77351
503.02        71.88708
503.46        71.99683
503.90        72.09502
504.34        72.16844
504.78        72.19874
505.22        72.17149
505.66        72.10516
506.10        72.02995
506.54        71.96785
506.98        71.91016
507.42         72.1636
507.86        71.75069
508.30        72.07281
508.74        71.54531
509.18        71.26319
509.62        70.95657
510.06        70.87502
510.50        71.05425
510.94        71.43381
511.38        71.86723
511.82        72.07246
512.26        71.98342
512.70        71.68348
513.14        71.32787
513.58         71.1582
514.02        71.23398
514.46        71.47678
514.90        71.77057
515.34        71.92935
515.78        71.89856
516.22        71.73989
516.66         71.5379
517.10        71.41861
517.54        71.41553
517.98        71.48447
518.42        71.56172
518.86        71.55126
519.30        71.43178
519.74        71.24316
520.18        71.05021
520.62        70.94344
521.06         70.9507
521.50        71.05389
521.93        71.20415
522.37        71.29829
522.81        71.31761
523.25        71.27953
523.69        71.26024
524.13        71.35452
524.57        71.56754
525.01        71.90206
525.45        72.24991
525.89        72.19008
526.32        72.07184
526.76        71.67282
527.20        71.24103
527.64        70.97223
528.08        70.92064
528.52        71.01877
528.96        71.18439
529.40        71.29511
529.83        71.30299
530.27        71.25722
530.71        71.17698
531.15        71.09669
531.59        71.03063
532.03        70.96161
532.46        70.88337
532.90        70.82153
533.34        70.77464
533.78        70.75041
534.22        70.74544
534.66         70.7483
535.09        70.75086
535.53         70.7683
535.97        70.79907
536.41        70.85894
536.85        70.94125
537.28        71.02386
537.72        71.08749
538.16        71.09766
538.60         71.0461
539.04        70.95341
539.47        70.80672
539.91        70.64344
540.35         70.4642
540.79        70.28523
541.22        70.14621
541.66        70.12087
542.10        70.21344
542.54        70.40012
542.97        70.62375
543.41        70.81535
543.85        70.93739
544.29        71.01702
544.72        71.02576
545.16        70.96126
545.60        70.83031
546.04        70.61405
546.47        70.38977
546.91        70.38183
547.35        70.57397
547.79        70.72565
548.22        70.76149
548.66        70.91885
549.10        71.18771
549.53        71.21002
549.97        70.88784
550.41        71.52837
550.84        70.99331
551.28        70.89902
551.72        70.62336
552.15        70.80128
552.59        70.56464
553.03        70.62473
553.46        70.69754
553.90        70.73801
554.34        70.71765
554.77        70.71761
555.21        70.67728
555.65        70.67411
556.08          70.686
556.52        70.72039
556.96        70.76841
557.39        70.91158
557.83        71.12242
558.27        71.18681
558.70        71.14562
559.14        71.23911
559.57        71.40909
560.01        71.53609
560.45        71.57422
560.88        71.24305
561.32        70.99711
561.75        70.90283
562.19        71.04298
562.63        70.97795
563.06        70.72617
563.50        70.68745
563.93        70.81557
564.37         70.8643
564.80        70.80581
565.24        70.78167
565.68        70.77552
566.11        70.80328
566.55         70.8755
566.98        70.76809
567.42        70.62516
567.85        70.79368
568.29        71.16763
568.72        71.30824
569.16        71.59641
569.60        70.81792
570.03        71.20476
570.47        71.50871
570.90        71.57742
571.34        70.92148
571.77        71.41967
572.21        71.39465
572.64        71.39751
573.08        71.32605
573.51        71.31736
573.95        71.16346
574.38        71.82418
574.82        71.73811
575.25        71.59112
575.69        71.24287
576.12        70.95673
576.56        70.85352
576.99        71.19994
577.42          71.037
577.86        70.95953
578.29        70.91193
578.73        71.73267
579.16        70.84387
579.60        71.31837
580.03         71.0987
580.47        71.73368
580.90        71.59895
581.33        71.12199
581.77         71.3856
582.20        71.41959
582.64        72.02422
583.07        71.16322
583.51        70.76865
583.94        70.62289
584.37        70.35738
584.81        70.26588
585.24        70.67448
585.68          71.258
586.11         72.0669
586.54        71.22581
586.98        70.49621
587.41        71.68116
587.85        71.92299
588.28        71.72564
588.71        72.40273
589.15        71.01134
589.58        71.50871
590.01        70.69807
590.45        70.86313
590.88         71.2765
591.31        71.57806
591.75         71.4466
592.18        71.65129
592.61        71.77832
593.05         70.3414
593.48        70.85794
593.91        72.12283
594.35        70.91338
594.78        70.81406
595.21        70.52165
595.65        71.27871
596.08        70.82002
596.51        70.73085
596.94        71.21886
597.38        71.32117
597.81        71.18221
598.24        71.34708
598.68        70.85999
599.11         70.7676
599.54        71.45921
599.97        71.85257
600.41        70.44424
600.84        70.85048
601.27        70.86946
601.70        70.94865
602.14        71.26769
602.57        71.00883
603.00        70.50897
603.43         70.4259
603.87        70.60558
604.30        70.77298
604.73        70.74471
605.16        70.73341
605.60        70.69537
606.03        70.97243
606.46        71.36912
606.89        71.36275
607.32        71.00648
607.76        70.89026
608.19        71.10183
608.62        71.21718
609.05         71.1965
609.48         71.3342
609.92        71.14958
610.35        70.87181
610.78        71.18639
611.21        70.44032
611.64         70.4138
612.07        71.02998
612.50        71.06731
612.94        70.93807
613.37        71.44583
613.80        71.35819
614.23        71.56094
614.66        71.46455
615.09        71.28487
615.52        71.16952
615.96        71.12637
616.39        71.03069
616.82        70.81952
617.25        70.92948
617.68        70.32457
618.11        70.50591
618.54        71.02339
618.97        71.12944
619.40        70.84934
619.84        70.74536
620.27        70.85609
620.70        71.05499
621.13        71.30186
621.56        70.63667
621.99        70.49448
622.42        70.39886
622.85        70.84486
623.28        70.90095
623.71        71.29794
624.14        70.22564
624.57        70.80894
625.00        70.68562
625.43        70.85632
625.86        70.40697
626.29        70.54836
626.72        70.80245
627.15        70.63643
627.58        70.72359
628.01        70.73853
628.44        70.88656
628.87         70.5676
629.30        70.57416
629.73        70.69659
630.16        70.98518
630.59         70.7689
631.02        70.92392
631.45        70.92887
631.88        70.93293
632.31        70.83234
632.74        70.68268
633.17        70.51607
633.60         70.3773
634.03         70.2888
634.46        70.22454
634.89        70.19801
635.32        70.23922
635.75        70.34155
636.18        70.48772
636.61        70.62922
637.04        70.70094
637.47        70.70416
637.89        70.61259
638.32        70.43435
638.75        70.40297
639.18        70.57388
639.61        70.18949
640.04         70.5078
640.47        70.49569
640.90        70.52276
641.33        70.57868
641.76        70.63091
642.18        70.60188
642.61        70.44873
643.04        70.21254
643.47        69.99658
643.90        69.94417
644.33        70.07577
644.76        70.43626
645.18        70.87099
645.61        70.92741
646.04        70.49559
646.47        70.46039
646.90        70.75156
647.33        70.78777
647.75        70.54662
648.18        70.38257
648.61        70.35046
649.04        70.35159
649.47        70.39017
649.89        70.57964
650.32        70.79297
650.75        70.74289
651.18        70.50836
651.61        70.39137
652.03        70.49548
652.46        70.87648
652.89        71.24924
653.32        71.22615
653.74        70.97523
654.17        70.18653
654.60        69.60476
655.03        71.54443
655.46        69.70023
655.88        71.03859
656.31        73.70105
656.74        73.79002
657.16        73.29657
657.59        70.93349
658.02        69.97001
658.45        71.57775
658.87        71.05663
659.30        71.06091
659.73        71.24908
660.15        71.54256
660.58         71.2346
661.01        71.13582
661.44        71.01053
661.86        70.55703
662.29        69.95774
662.72        70.12218
663.14          70.902
663.57        70.91033
664.00         70.2457
664.42        70.10532
664.85        70.53515
665.27        70.82466
665.70        70.88163
666.13        70.93377
666.55        70.97183
666.98        70.91621
667.41        70.81021
667.83        70.72584
668.26        70.67814
668.69        70.67117
669.11        70.68517
669.54        70.68698
669.96        70.66888
670.39        70.63635
670.82        70.61054
671.24        70.63712
671.67        70.70434
672.09        70.78837
672.52        70.87037
672.94        70.98683
673.37        70.58092
673.80        70.92324
674.22        70.47648
674.65        70.50064
675.07        70.60901
675.50         70.7959
675.92        70.99947
676.35         71.1243
676.77        71.16194
677.20        71.07703
677.62        70.94167
678.05        70.96513
678.47        71.12235
678.90         71.1758
679.32         71.0913
679.75        71.01724
680.17        70.94651
680.60        70.79079
681.02        70.61282
681.45        70.55831
681.87        70.64687
682.30        70.85548
682.72        71.11979
683.15        71.17493
683.57        71.06238
684.00        71.08877
684.42        71.23303
684.85        71.27225
685.27        71.21384
685.70        71.07137
686.12        70.94097
686.54        71.27699
686.97        71.91756
687.39        72.13178
687.82        71.87645
688.24        71.79919
688.66        71.91008
689.09        71.81564
689.51        71.53989
689.94        71.32642
690.36        71.20157
690.78        71.10907
691.21        71.06889
691.63        71.11402
692.06        71.23793
692.48         71.4426
692.90        71.66454
693.33        71.78784
693.75        71.78718
694.17        71.68095
694.60        71.53564
695.02        71.45387
695.44        71.45641
695.87         71.5995
696.29        71.81087
696.71        71.72797
697.14        71.43214
697.56         71.4269
697.98         71.6996
698.41        71.82018
698.83        71.76314
699.25        71.78992
699.68         71.8562
700.10        71.82291
700.52        71.66814
700.94        71.45446
701.37        71.22846
701.79        71.08146
702.21        71.03153
702.64        71.06079
703.06        71.15383
703.48        71.29861
703.90        71.47947
704.33        71.70493
704.75        71.90452
705.17        72.03546
705.59        72.06203
706.01        72.00296
706.44        71.90417
706.86        71.85829
707.28        71.88916
707.70        71.94827
708.12        72.03279
708.55        72.18518
708.97        72.36493
709.39        72.42545
709.81        72.38942
710.23        72.45186
710.66        72.61664
711.08        72.78397
711.50        72.90637
711.92        72.99368
712.34         73.0378
712.76        73.04064
713.19        72.99192
713.61        72.92506
714.03        72.83466
714.45        72.72759
714.87        72.64205
715.29        72.63044
715.71        72.69793
716.13        72.82933
716.56        72.95634
716.98        73.05133
717.40        73.06229
717.82        73.00593
718.24        72.91503
718.66        72.84604
719.08        72.81577
719.50        72.80624
719.92        72.80252
720.34        72.78008
720.76        72.73367
721.19        72.67093
721.61        72.61335
722.03        72.56445
722.45        72.52824
722.87         72.4977
723.29        72.48188
723.71        72.49625
724.13        72.54035
724.55        72.61172
724.97        72.68285
725.39        72.70589
725.81        72.67725
726.23        72.61778
726.65        72.56461
727.07        72.58134
727.49        72.67574
727.91        72.80803
728.33         72.9613
728.75        73.10615
729.17         73.2228
729.59         73.3327
730.01        73.36928
730.43        73.22728
730.85        72.91351
731.27        72.47106
731.69         72.0764
732.10        72.00439
732.52        72.30875
732.94        72.91784
733.36        73.62514
733.78        74.08556
734.20        74.18797
734.62        73.93218
735.04        73.53296
735.46         73.5278
735.88        73.89535
736.30        74.08185
736.72        73.99546
737.13         73.9018
737.55        73.75027
737.97        73.44874
738.39        73.10069
738.81        72.78244
739.23        72.62142
739.65        72.98801
740.06        73.65804
740.48        73.95851
740.90        73.80132
741.32        73.52174
741.74        73.25164
742.16        73.11456
742.57        73.18845
742.99        73.32969
743.41        73.49946
743.83        73.81738
744.25        74.16174
744.67        74.11706
745.08        73.77225
745.50        73.65311
745.92        73.81716
746.34        73.96452
746.75        74.04709
747.17        74.10877
747.59        74.13021
748.01        74.13256
748.42        74.14372
748.84         74.0468
749.26        74.06889
749.68        74.03844
750.09         74.0107
750.51        74.00659
750.93        74.01546
751.35        74.03714
751.76         74.0629
752.18        74.07279
752.60        74.06274
753.01        74.04698
753.43        74.02076
753.85        74.01006
754.27        74.03364
754.68        74.11455
755.10        74.22215
755.52        74.30687
755.93        74.33946
756.35        74.29889
756.77        74.26943
757.18        74.40542
757.60        74.73028
758.02        75.28453
758.43        75.70714
758.85        75.91688
759.26        74.29302
759.68        74.07159
760.10        74.73162
760.51        74.96114
760.93        74.69199
761.34        74.87381
761.76        75.35761
762.18        75.19819
762.59        74.48278
763.01        73.94571
763.42        73.76822
763.84        73.68116
764.26        73.74165
764.67        74.00791
765.09         74.4277
765.50        75.02328
765.92        75.61575
766.33        75.63819
766.75        75.07809
767.16        74.80055
767.58        74.87071
768.00        74.69441
768.41        74.32941
768.83        74.49833
769.24        75.01068
769.66        74.83756
770.07        74.13113
770.49        74.03059
770.90        74.54701
771.32        74.95042
771.73        75.12376
772.15        75.17005
772.56        75.06387
772.97        74.99186
773.39        74.54877
773.80        74.50958
774.22        74.73705
774.63        75.19987
775.05         75.6804
775.46        75.92555
775.88        75.83183
776.29        75.51855
776.70        75.11848
777.12        74.86857
777.53        74.84656
777.95        74.96227
778.36        75.15614
778.77        75.31944
779.19        75.41766
779.60        75.52898
780.02        75.61435
780.43        75.72934
780.84        75.87408
781.26        75.79662
781.67        75.62833
782.09        76.08232
782.50        76.94072
782.91        76.99929
783.33        76.28625
783.74        75.90409
784.15        75.91329
784.57        75.69463
784.98        75.30612
785.39        75.14894
785.81         75.2618
786.22        75.52875
786.63        75.91099
787.04        76.33916
787.46        76.76865
787.87          77.189
788.28        77.54842
788.70         77.7587
789.11         77.7963
789.52        77.69699
789.93        77.51497
790.35           77.34
790.76        77.22373
791.17        77.15691
791.58        77.15028
792.00         77.1663
792.41        77.20885
792.82        77.34456
793.23        77.54827
793.65        77.58237
794.06        77.53019
794.47        77.81911
794.88        78.28525
795.29         78.3275
795.71         77.8802
796.12        77.28527
796.53        76.74338
796.94        76.51379
797.35        76.70506
797.76        77.24737
798.18        77.92373
798.59        78.42168
799.00        78.61555
799.41        78.59135
799.82        78.44382
800.23        78.34322
800.64        78.35058
801.06         78.3773
801.47        78.43752
801.88        78.48518
802.29        78.49594
802.70        78.47492
803.11        78.43888
803.52        78.40237
803.93        78.38967
804.34        78.41999
804.75        78.42049
805.17        78.37506
805.58        78.33035
805.99        77.95489
806.40        77.47358
806.81        78.02615
807.22         79.2915
807.63        79.38293
808.04        78.38351
808.45        78.08278
808.86        78.59016
809.27        78.84328
809.68        78.74143
810.09        78.66716
810.50        78.61873
810.91        78.48793
811.32        78.35616
811.73        78.35403
812.14        78.50108
812.55        78.78238
812.96        79.08415
813.37         79.1791
813.78        79.01893
814.19        78.69347
814.60        78.33449
815.01        78.12623
815.42        78.11098
815.83        78.22372
816.24        78.41804
816.65        78.60082
817.05        78.72053
817.46        78.77066
817.87        78.75241
818.28        78.60155
818.69        78.33198
819.10         77.9753
819.51        77.63924
819.92        77.52857
820.33        77.70025
820.74        78.07398
821.14        78.58038
821.55        79.12141
821.96        79.63481
822.37        80.14552
822.78        80.53209
823.19        80.58795
823.60        80.27064
824.00        79.62234
824.41         78.8683
824.82        78.40118
825.23         78.3139
825.64        78.54286
826.04        78.87952
826.45        78.84834
826.86        78.37839
827.27         77.6306
827.68        76.90581
828.08        76.69432
828.49        77.06386
828.90        77.88806
829.31        78.92252
829.72        79.74942
830.12        80.23981
830.53        80.40203
830.94        80.39832
831.35        80.46696
831.75         80.6989
832.16        80.93124
832.57        81.06225
832.97        80.89435
833.38        80.41553
833.79        79.79401
834.20        79.17662
834.60        78.73055
835.01        78.54112
835.42        78.51737
835.82        78.72153
836.23        79.18122
836.64        79.87061
837.04        80.78767
837.45        81.57732
837.86        81.82044
838.26        81.42252
838.67        80.52321
839.08        79.44833
839.48        78.69059
839.89        78.43671
840.29        78.55016
840.70        78.90144
841.11        79.28542
841.51        79.63346
841.92        79.96259
842.33        80.27512
842.73        80.54539
843.14        80.71078
843.54        80.79693
843.95        80.79159
844.35        80.76729
844.76        80.72021
845.17        80.61324
845.57         80.5256
845.98        80.54273
846.38        80.69362
846.79        80.96919
847.19        81.16953
847.60        80.89545
848.00        80.12981
848.41        79.02721
848.81        78.00792
849.22        77.70259
849.62        78.26994
850.03        79.47166
850.43        80.96973
850.84        81.91843
851.24        82.10194
851.65        81.63516
852.05         80.8308
852.46        80.16954
852.86         79.8138
853.27        79.69579
853.67        79.60206
854.07        79.45467
854.48        79.16595
854.88        78.82188
855.29        78.46333
855.69        78.38969
856.10        78.56408
856.50        79.00304
856.90        79.41957
857.31        79.44287
857.71        79.05395
858.12        78.31844
858.52        77.56322
858.92        77.27749
859.33        77.56437
859.73        78.32175
860.13        79.22527
860.54         79.7519
860.94        79.79433
861.34        79.40688
861.75        78.76549
862.15        78.24846
862.55        77.95046
862.96        77.80949
863.36        77.62841
863.76        77.11983
864.17        76.28766
864.57        75.29513
864.97          74.445
865.38        74.12887
865.78        74.45963
866.18        75.28719
866.58        76.40161
866.99        77.33863
867.39        77.93037
867.79        78.23135
868.19        78.24284
868.60        77.98679
869.00        77.53026
869.40        76.86211
869.80        76.23984
870.21        76.11232
870.61        76.61153
871.01         77.5692
871.41        78.61337
871.81        79.13311
872.22        78.96245
872.62         78.2777
873.02        77.33591
873.42        76.58311
873.82        76.19391
874.22        76.08033
874.63        76.11723
875.03        76.10847
875.43        76.00452
875.83        75.87125
876.23        75.87699
876.63        76.27574
877.03        77.07487
877.44        78.10806
877.84        79.09984
878.24        79.51182
878.64        79.24525
879.04        78.51277
879.44          77.622
879.84        77.03283
880.24        76.85558
880.64        76.91194
881.04        77.16315
881.44        77.53419
881.84        77.95652
882.24        78.50574
882.65        78.87924
883.05        78.69145
883.45        77.86845
883.85        76.60524
884.25        75.45504
884.65        75.25753
885.05         76.1461
885.45        77.79921
885.85        79.75739
886.25        81.21784
886.65        81.85284
887.05        81.88342
887.45        81.30817
887.85        80.17772
888.25        78.70888
888.65        77.00961
889.04        75.48373
889.44        74.73357
889.84        74.77742
890.24        75.50562
890.64        76.64512
891.04        77.55093
891.44        77.94638
891.84        77.99576
892.24        77.85528
892.64        77.78065
893.04        77.85148
893.44        77.94396
893.83         78.1279
894.23        78.46193
894.63        78.95583
895.03        79.60174
895.43          80.202
895.83        80.44204
896.23        80.26328
896.63        79.72343
897.02        79.06929
897.42        78.77547
897.82        78.93765
898.22          79.473
898.62        80.04474
899.01         80.0964
899.41        79.50881
899.81        78.47688
900.21        77.46995
900.61        77.20229
901.00        77.80212
901.40        79.02945
901.80        80.35118
902.20        80.89674
902.59        80.44164
902.99        79.26309
903.39        77.86203
903.79        76.98933
904.18        76.83733
904.58         77.2138
904.98        77.76407
905.38        77.94835
905.77        77.61675
906.17        76.95866
906.57        76.29416
906.96        76.14308
907.36        76.57859
907.76        77.43745
908.15        78.34293
908.55        78.55418
908.95        77.97229
909.34        76.83806
909.74        75.68799
910.14        75.19826
910.53        75.57682
910.93        76.57285
911.33        77.91302
911.72        79.17905
912.12        80.10374
912.52        80.78731
912.91        81.30403
913.31        81.74906
913.70        82.15202
914.10        82.42447
914.49        82.39983
914.89        81.85065
915.29        80.81544
915.68        79.42993
916.08        78.14356
916.47        77.49892
916.87        77.65974
917.26        78.43766
917.66        79.46347
918.05        80.13459
918.45        80.20638
918.84        79.88973
919.24        79.33643
919.64        78.98515
920.03        78.97694
920.42        79.13036
920.82        79.35212
921.21        79.42224
921.61        79.29517
922.00        79.07195
922.40        78.81392
922.79         78.6983
923.19        78.74033
923.58        78.90774
923.98         79.1003
924.37        79.18209
924.77        79.11516
925.16        78.94773
925.55        78.77438
925.95        78.74583
926.34         78.9161
926.74        79.22083
927.13        79.53951
927.52        79.64675
927.92        79.50266
928.31        79.15425
928.70        78.76583
929.10        78.59277
929.49        78.68642
929.89        78.91807
930.28        79.15356
930.67        79.07278
931.07        78.62324
931.46        77.99915
931.85        77.30913
932.24        76.69923
932.64        76.25939
933.03        75.94954
933.42        75.94707
933.82        76.53269
934.21        77.71403
934.60        79.29999
934.99         80.9083
935.39        81.89119
935.78        82.11131
936.17        81.70316
936.56        80.73451
936.96        79.44625
937.35        78.06769
937.74        76.63017
938.13        75.50726
938.53        75.13632
938.92        75.50703
939.31        76.57637
939.70        77.91213
940.09        78.63289
940.49        78.45008
940.88        77.60326
941.27         76.5599
941.66         76.0563
942.05        76.26852
942.44         77.0072
942.84        77.88708
943.23        78.30893
943.62        78.03393
944.01        77.26776
944.40        76.48363
944.79        76.35706
945.18        77.02235
945.57        78.29095
945.97        79.57059
946.36        80.09831
946.75        79.55933
947.14        78.21764
947.53        76.76362
947.92         76.2394
948.31         76.8777
948.70        78.39823
949.09        80.10504
949.48        80.73896
949.87        79.96751
950.26         78.2436
950.65        76.36732
951.04        75.43741
951.43        75.69621
951.82        76.82197
952.21        78.28331
952.60        79.10326
952.99        78.94878
953.38        78.13702
953.77        77.18149
954.16         76.7518
954.55        77.00081
954.94        77.77115
955.33        78.65833
955.72        78.84706
956.11        78.10081
956.50        76.73846
956.89        75.44957
957.28        75.10979
957.66        75.92352
958.05        77.57254
958.44        79.46381
958.83        80.37963
959.22        79.92288
959.61        78.52002
960.00        76.88881
960.39         75.9417
960.78        75.84502
961.16         76.3571
961.55        77.06418
961.94        77.27408
962.33        76.77178
962.72         75.9198
963.11        75.02868
963.49        74.47769
963.88        74.36721
964.27        74.51286
964.66         74.9528
965.04        75.82317
965.43         76.9655
965.82        78.36105
966.21        79.59366
966.60        79.91331
966.98        79.21261
967.37        77.83086
967.76        76.27777
968.15        75.23795
968.53        74.84925
968.92        74.83888
969.31        75.23807
969.69         76.0977
970.08        77.25238
970.47        78.83734
970.86        80.16225
971.24        80.05373
971.63        78.33754
972.02        75.43983
972.40        72.63279
972.79        71.91219
973.17        73.58985
973.56        76.94427
973.95        80.81705
974.33        82.99963
974.72        82.69085
975.11        80.62628
975.49        77.79584
975.88        76.03541
976.26         75.8458
976.65         76.6068
977.04        77.86755
977.42        78.82085
977.81        78.98325
978.19        78.78074
978.58         78.3321
978.96        77.65894
979.35        76.91354
979.74        76.06996
980.12        75.41468
980.51        75.43496
980.89        76.29028
981.28        77.66625
981.66        79.45836
982.05        81.16173
982.43        82.65544
982.82        83.96427
983.20        84.69289
983.59         84.0871
983.97        82.18312
984.35        79.29429
984.74        76.58103
985.12        75.63357
985.51        76.65676
985.89        79.28599
986.28        82.34146
986.66        84.17237
987.04        84.08885
987.43          82.608
987.81        80.41386
988.20        79.00221
988.58        78.78437
988.96         79.3421
989.35        79.93186
989.73        79.62289
990.12          78.134
990.50        75.97586
990.88        73.69568
991.27        72.12056
991.65        71.46667
992.03         71.5118
992.42        72.08891
992.80         73.2595
993.18        74.82008
993.56        76.77227
993.95        78.64446
994.33        79.70001
994.71        79.61514
995.10        78.67127
995.48        77.34641
995.86        76.46027
996.24        76.26908
996.63         76.4645
997.01        77.16383
997.39        78.31078
997.77         79.7231
998.15        81.39516
998.54        82.80995
998.92        83.18026
999.30        82.37052
999.68        80.58094
1000.06        78.44923
1000.45        77.21275
1000.83        77.37856
1001.21        78.59684
1001.59        80.45742
1001.97         82.2132
1002.35         83.5336
1002.73        84.62363
1003.12        85.30227
1003.50        85.21059
1003.88        84.40458
1004.26        82.95724
1004.64        81.39257
1005.02         80.6683
1005.40         81.0097
1005.78        82.12218
1006.16         83.4959
1006.54         84.4012
1006.92        84.63133
1007.30        84.32597
1007.69        83.60816
1008.07        82.93939
1008.45        82.45977
1008.83        82.11243
1009.21         81.6685
1009.59         80.7607
1009.97        79.34889
1010.35        77.57329
1010.73        76.04658
1011.11        75.69666
1011.49        76.64639
1011.86        78.63761
1012.24        80.58698
1012.62        81.05349
1013.00         79.6823
1013.38        76.74223
1013.76        73.20996
1014.14        71.24384
1014.52        71.62747
1014.90        73.71618
1015.28         76.2199
1015.66        77.07845
1016.04        75.74348
1016.41        72.99636
1016.79        69.51241
1017.17        66.84378
1017.55        65.82277
1017.93        65.93144
1018.31        66.89481
1018.69        68.69514
1019.06        71.49847
1019.44        75.57298
1019.82        81.11855
1020.20         86.4333
1020.58        89.34359
1020.95        89.49975
1021.33        87.72106
1021.71        85.14506
1022.09        81.89194
1022.46        77.12924
1022.84        71.38483
1023.22        66.82021
1023.60        65.30703
1023.97        66.72102
1024.35        69.19677
1024.73        70.49949
