SpectraSmart Spectrum 2.9.0.0
--------- Device Information -----------
Spectrum Name :  反射率_0
Saving Time :  2024/04/30 00:37:09
Spectro-Module Model Name : SE2030-DUVN
Spectro-Module Serial Number : OS361AC55029948
Wavelength Start : 200
Wavelength End : 1025
Wavelength Unit : Wavelength(nm)
Spectrum Unit : Reflectance(%)
-----------Spectrum Setting ------------
Integration Time : 20ms
Average : 10
Boxcar : 0
Background removal :  enabled
linearity correction :  enabled
SC :  disabled
Intensity correction :  disabled
DWT denoise :  enabled
savitzky-golay :  disabled
FFT :  disabled
Running average :  disabled
Kalman :  disabled
High pass :  disabled
---------------BEGIN--------------------
Wavelength(nm)             Reflectance(%)
200.29               0
200.75        89.80729
201.21        79.85855
201.67        67.63466
202.13        56.14039
202.58        47.20984
203.04        39.43956
203.50        35.94188
203.96        43.33182
204.42        62.28965
204.88        89.76772
205.34        113.1727
205.80        115.1315
206.26        98.91788
206.72         76.6552
207.18        56.90452
207.64        44.10966
208.10        36.82528
208.55        31.95106
209.01        29.59543
209.47        31.32213
209.93        36.27308
210.39        43.30236
210.85        49.11123
211.31        50.92116
211.77        48.72655
212.23        42.07489
212.69        32.79057
213.14        30.76333
213.60        39.38206
214.06        52.50221
214.52        63.22756
214.98        67.59428
215.44        66.76521
215.90        62.67839
216.36        57.55981
216.81         55.5703
217.27        58.98482
217.73        67.65918
218.19        81.25792
218.65        93.50044
219.11         98.1711
219.57        96.23483
220.02        91.76562
220.48        88.81651
220.94        87.00822
221.40        84.95422
221.86        80.86899
222.32        73.13887
222.77        64.31574
223.23        58.06338
223.69         54.1216
224.15        51.09056
224.61        48.21338
225.06         45.1502
225.52        43.05445
225.98        44.11739
226.44        47.89572
226.90        52.38356
227.36        55.71474
227.81        56.76673
228.27        55.86322
228.73        53.37442
229.19        50.10571
229.65        48.00337
230.10        47.74258
230.56        48.61973
231.02        49.54306
231.48        49.52771
231.93        48.44723
232.39        46.67826
232.85        44.80416
233.31        43.96295
233.77        44.50006
234.22        46.22365
234.68        48.10958
235.14        48.34018
235.60        46.59404
236.05        43.59191
236.51        40.92322
236.97          40.637
237.43        43.30019
237.88        48.96735
238.34        56.90601
238.80        63.97013
239.26         67.3684
239.71        67.36857
240.17        65.33165
240.63        63.99953
241.08        64.43805
241.54        66.15916
242.00        69.84892
242.46         75.4492
242.91        81.48258
243.37        86.64444
243.83        90.46601
244.28        93.99393
244.74        97.92902
245.20        101.4793
245.66        104.8753
246.11         108.619
246.57        112.4142
247.03        117.4184
247.48        120.0071
247.94         113.296
248.40        100.5126
248.85        86.90635
249.31        78.27276
249.77         76.3007
250.22        80.40637
250.68        91.77913
251.14        109.3447
251.59        116.6863
252.05        104.8464
252.51         87.0635
252.96         74.9539
253.42        72.54807
253.88        76.93932
254.33        85.61757
254.79        94.66663
255.25         95.6778
255.70         88.5456
256.16        79.52343
256.62         72.3802
257.07        69.06501
257.53        69.11096
257.99        70.84801
258.44        72.52329
258.90        72.64566
259.35        70.81779
259.81        68.47241
260.27        66.39138
260.72        65.21528
261.18        64.95922
261.63         64.8853
262.09        64.56818
262.55        63.15619
263.00        60.73527
263.46        58.06236
263.91        55.49227
264.37        53.71448
264.83        52.63763
265.28        51.91479
265.74        51.49556
266.19        51.08384
266.65         50.6569
267.11        50.26432
267.56        49.76852
268.02        48.96578
268.47        47.80791
268.93        46.33352
269.38        44.78122
269.84        43.71013
270.30         43.2291
270.75         43.1736
271.21        43.18652
271.66        42.69347
272.12        41.59512
272.57         40.0578
273.03         38.4098
273.48        37.08941
273.94         36.2818
274.39        35.78271
274.85        35.45329
275.31        35.02073
275.76        34.39419
276.22         33.7007
276.67        32.97285
277.13        32.34401
277.58        31.79725
278.04        31.33418
278.49        30.86193
278.95         30.3553
279.40        29.77235
279.86        29.20759
280.31        28.69118
280.77        28.38184
281.22           28.25
281.68        28.26259
282.13        28.32345
282.59         28.3554
283.04        28.30747
283.50        28.20491
283.95        28.03153
284.41        27.78201
284.86        27.46259
285.32        27.12753
285.77        26.78536
286.22        26.52212
286.68        26.36749
287.13        26.26461
287.59        26.24785
288.04        26.30381
288.50        26.42949
288.95        26.58749
289.41        26.72369
289.86        26.71611
290.32        26.58252
290.77        26.37002
291.22        26.17375
291.68        26.13635
292.13        26.29848
292.59        26.65673
293.04         27.2175
293.50        28.01864
293.95        29.04888
294.40        30.30642
294.86        31.70406
295.31        33.11166
295.77        34.48322
296.22        35.82679
296.68        37.20802
297.13        38.71349
297.58        40.36386
298.04        42.08813
298.49        43.82021
298.95        45.47241
299.40        47.01624
299.85        48.49923
300.31        49.96617
300.76        51.40563
301.21        52.87223
301.67        54.39407
302.12        55.98581
302.58        57.81512
303.03        59.85634
303.48        61.99293
303.94        64.15677
304.39        66.55536
304.84        68.55202
305.30        70.65044
305.75        72.62723
306.20        74.49577
306.66        76.26846
307.11        77.88358
307.57        79.41862
308.02        80.87206
308.47        82.29926
308.93        83.70611
309.38        85.05991
309.83         86.3827
310.29        87.67375
310.74        88.92171
311.19        90.07048
311.65        91.01742
312.10        91.74474
312.55        92.31067
313.00        92.88268
313.46        93.72728
313.91        94.86646
314.36        96.20486
314.82        97.54604
315.27        98.60049
315.72         99.2584
316.18         99.6148
316.63        99.74047
317.08        99.76658
317.53        99.78239
317.99        99.79889
318.44        99.86488
318.89        100.0727
319.35        100.4382
319.80        100.9365
320.25        101.5771
320.70         102.359
321.16        103.2129
321.61        104.1605
322.06        104.9897
322.51        105.3839
322.97        105.2829
323.42        104.7931
323.87        104.1894
324.32        103.9406
324.78        104.1498
325.23        104.7607
325.68        105.5422
326.13        106.0879
326.59        106.2548
327.04        106.2001
327.49        106.0968
327.94        106.2764
328.39        106.8133
328.85        107.5343
329.30        108.3187
329.75        108.7651
330.20        108.7687
330.66         108.459
331.11        108.0529
331.56        107.8149
332.01         107.866
332.46        108.1441
332.92        108.5869
333.37        109.2401
333.82        110.0112
334.27        110.8908
334.72        111.8141
335.17        112.6677
335.63         113.375
336.08        114.0056
336.53        114.4779
336.98        114.7481
337.43        114.8358
337.88        114.7593
338.34        114.6938
338.79        114.9409
339.24        115.5531
339.69        116.4733
340.14        117.4661
340.59        118.1141
341.05        118.3276
341.50        118.2455
341.95         118.097
342.40        118.2738
342.85        118.8568
343.30        119.6664
343.75        120.5604
344.20        121.3123
344.66        121.8552
345.11         122.311
345.56        122.5847
346.01        122.5125
346.46        122.1361
346.91        121.4972
347.36        121.0198
347.81        121.3582
348.26        122.5788
348.72        124.4506
349.17        126.3981
349.62         127.361
350.07        127.0836
350.52        125.9368
350.97        124.4936
351.42        123.6315
351.87        123.6015
352.32        124.1273
352.77         124.995
353.22        125.8644
353.67        126.5569
354.13        127.1409
354.58        127.5432
355.03        127.6245
355.48        127.3554
355.93         126.743
356.38        125.8452
356.83        124.7864
357.28        123.6466
357.73        122.4524
358.18        121.3061
358.63        120.3412
359.08         119.588
359.53        119.0249
359.98        118.5653
360.43        118.0539
360.88        117.4408
361.33        116.7575
361.78        116.0356
362.23        115.3329
362.68        114.6685
363.13         114.021
363.58        113.3781
364.03        112.7267
364.48        112.0631
364.93        111.3926
365.38         110.742
365.83        110.1525
366.28        109.6301
366.73        109.1602
367.18        108.6865
367.63        108.1196
368.08        107.4345
368.53        106.6494
368.98        105.8329
369.43        105.0946
369.88        104.4763
370.33         103.977
370.78        103.5139
371.23        102.9533
371.68        102.2648
372.13        101.4595
372.58        100.7011
373.03        100.2515
373.48        100.1277
373.93        100.2296
374.38        100.2453
374.83        99.67604
375.28        98.45926
375.72        96.78761
376.17        95.10832
376.62        93.89869
377.07        93.26819
377.52        93.04559
377.97        93.07096
378.42        93.08334
378.87        92.96991
379.32        92.80304
379.77        92.55934
380.22        92.19455
380.67        91.70823
381.11          91.089
381.56        90.39959
382.01        89.78936
382.46        89.31188
382.91        88.94917
383.36         88.6479
383.81         88.3087
384.26        87.90224
384.71        87.45737
385.15        87.00065
385.60        86.63084
386.05        86.34184
386.50        86.10622
386.95         85.8695
387.40        85.55808
387.85        85.16931
388.29        84.68492
388.74         84.2735
389.19        83.94434
389.64        83.69475
390.09        83.48136
390.54         83.2739
390.98        83.01543
391.43        82.73624
391.88        82.44672
392.33        82.11015
392.78        81.74786
393.23        81.38273
393.67        80.84363
394.12        80.25896
394.57        80.34733
395.02         79.9468
395.47        79.94623
395.91        79.95692
396.36        79.88681
396.81        79.72023
397.26        79.50959
397.71         79.2573
398.15        78.90659
398.60        78.56228
399.05        78.16865
399.50        77.79838
399.95        77.68125
400.39        77.53132
400.84        77.78838
401.29        78.16155
401.74        78.13847
402.18        77.64258
402.63        76.86956
403.08        76.12462
403.53        75.79227
403.97        75.94178
404.42        76.43296
404.87        76.97916
405.32        77.12296
405.76        76.76324
406.21        76.10247
406.66        75.33408
407.11        74.85342
407.55        74.79845
408.00        74.75394
408.45         74.7312
408.90        75.40874
409.34        76.41486
409.79        76.22328
410.24        75.10637
410.68        74.78696
411.13        75.36497
411.58        75.87715
412.03        76.13558
412.47        76.27437
412.92        76.20237
413.37         75.9324
413.81        75.54099
414.26        75.22026
414.71        74.98607
415.15        74.81873
415.60        74.69746
416.05        74.63051
416.49        74.62103
416.94        74.68253
417.39        74.76799
417.83        74.77164
418.28        74.68319
418.73        74.52806
419.17        74.39406
419.62        74.43894
420.07        74.66378
420.51        74.98875
420.96        75.33172
421.41        75.44753
421.85        75.26305
422.30        75.14129
422.74        75.04697
423.19        74.55882
423.64        73.90703
424.08        74.18752
424.53        75.22192
424.98        75.70244
425.42        75.47288
425.87        75.38593
426.31        75.52133
426.76          75.047
427.21        74.47581
427.65        74.64469
428.10        75.38223
428.54         75.2831
428.99        74.52982
429.44        73.99974
429.88        73.84585
430.33        74.38593
430.77        75.37747
431.22        75.11784
431.66        75.77336
432.11        75.39081
432.56        74.85538
433.00        74.76659
433.45        75.25657
433.89        75.58099
434.34        75.73228
434.78        76.55098
435.23        75.43203
435.67        74.69256
436.12        73.94826
436.57        74.18912
437.01        75.22549
437.46        75.73608
437.90        75.64433
438.35        75.83229
438.79        76.28394
439.24        76.42455
439.68        76.29321
440.13        76.29933
440.57        76.48954
441.02        76.62837
441.46        76.66647
441.91        76.93562
442.35        77.20285
442.80        77.01143
443.24         76.5423
443.69        76.28269
444.13        76.30898
444.58        76.25307
445.02        76.08299
445.47        76.10461
445.91        76.28042
446.36        76.35942
446.80        76.28267
447.24        76.46943
447.69        76.33262
448.13        76.34754
448.58        76.36382
449.02        76.36457
449.47        76.38211
449.91         76.4481
450.36        76.57924
450.80        76.72996
451.25        76.88466
451.69        76.97797
452.13        77.00816
452.58        77.03668
453.02        77.04594
453.47        77.00658
453.91        76.90179
454.36        76.85739
454.80        76.62817
455.24        76.74218
455.69        77.31362
456.13        77.48695
456.58        77.32729
457.02         76.9316
457.46        76.48546
457.91        76.41685
458.35         76.6383
458.79        76.64789
459.24        76.47816
459.68        76.48277
460.13        76.64839
460.57        76.55928
461.01        76.78874
461.46        76.26726
461.90        75.99517
462.34         76.3185
462.79        76.92992
463.23        76.71641
463.68        75.72346
464.12        75.24672
464.56        75.34403
465.01        75.34536
465.45        75.19242
465.89        75.19701
466.34         75.3408
466.78        75.69624
467.22        75.88982
467.67          75.897
468.11        75.68519
468.55        75.25792
468.99        74.77367
469.44        74.43053
469.88        74.28978
470.32        74.31022
470.77        74.41048
471.21        74.47884
471.65        74.46261
472.10        74.41444
472.54        74.36067
472.98        74.37758
473.42        74.46569
473.87        74.61022
474.31         74.7349
474.75        74.68951
475.20        74.49129
475.64        74.40131
476.08        74.46517
476.52        74.24203
476.97        73.67236
477.41        73.97336
477.85         73.6465
478.29         73.0799
478.74        74.39652
479.18        74.20135
479.62        73.45434
480.06        73.23708
480.50        73.62517
480.95        73.59366
481.39        74.28817
481.83        73.57428
482.27        74.50056
482.72        74.38203
483.16        74.16785
483.60        74.09943
484.04        74.19357
484.48        74.41499
484.93        74.65739
485.37        74.28501
485.81        73.24471
486.25        73.33681
486.69        74.17933
487.14        73.66897
487.58        73.36116
488.02        73.13937
488.46        73.74007
488.90        74.04673
489.34        73.48689
489.79         74.3036
490.23        73.38068
490.67        73.30123
491.11        73.22057
491.55        73.12379
491.99        73.01935
492.43        73.00805
492.88        73.10625
493.32        73.28991
493.76        73.52468
494.20        73.72475
494.64        73.83508
495.08        74.01517
495.52        74.23398
495.96        73.96342
496.41        73.29498
496.85        73.61166
497.29        73.80171
497.73        73.51681
498.17        73.39702
498.61         73.0015
499.05        72.75957
499.49        72.87901
499.93        73.23766
500.37        73.27377
500.82        73.03107
501.26        72.66396
501.70        73.04338
502.14        73.08089
502.58        73.03484
503.02        73.08176
503.46        73.22949
503.90        73.41047
504.34        73.56679
504.78        73.62574
505.22        73.55307
505.66        73.40819
506.10        73.25459
506.54        73.12199
506.98        73.01955
507.42        73.37684
507.86        73.02113
508.30        73.44162
508.74        72.96317
509.18         72.7401
509.62        72.48129
510.06        72.40777
510.50        72.55499
510.94        72.86163
511.38        73.21722
511.82        73.40254
512.26        73.36138
512.70        73.15865
513.14        72.89279
513.58        72.71452
514.02        72.66929
514.46         72.7141
514.90        72.79527
515.34        72.82977
515.78        72.79257
516.22        72.71091
516.66         72.6328
517.10        72.62608
517.54        72.70086
517.98         72.8302
518.42        72.94514
518.86        72.93969
519.30        72.79729
519.74        72.55979
520.18        72.31627
520.62        72.19978
521.06        72.24642
521.50        72.42414
521.93        72.66676
522.37        72.83924
522.81        72.90893
523.25        72.89819
523.69        72.87107
524.13        72.92969
524.57        73.08778
525.01         73.3047
525.45        73.48383
525.89        73.47384
526.32        73.24182
526.76        72.87473
527.20        72.48764
527.64        72.25878
528.08        72.23072
528.52        72.34515
528.96        72.52874
529.40        72.66364
529.83        72.70242
530.27        72.68747
530.71         72.6292
531.15        72.55054
531.59        72.46552
532.03        72.36534
532.46        72.25177
532.90          72.163
533.34        72.10181
533.78           72.07
534.22        72.06823
534.66        72.09186
535.09        72.12821
535.53          72.188
535.97        72.24909
536.41        72.29332
536.85        72.31198
537.28        72.30159
537.72        72.26608
538.16        72.20892
538.60        72.13591
539.04        72.04852
539.47        71.92825
539.91        71.85311
540.35         71.8215
540.79        71.74902
541.22        71.61066
541.66        71.84309
542.10        71.69952
542.54        71.77974
542.97        71.85536
543.41        71.95461
543.85        72.05791
544.29        72.17452
544.72         72.2707
545.16        72.31558
545.60        72.30289
546.04        72.21663
546.47        72.10146
546.91        72.14516
547.35        72.31591
547.79        72.34798
548.22        72.23142
548.66        72.33692
549.10        72.67712
549.53        72.84774
549.97        72.66607
550.41        73.36911
550.84        72.74539
551.28        72.41861
551.72        71.86681
552.15        72.06359
552.59        72.04819
553.03        72.13482
553.46        72.09354
553.90        71.89211
554.34         72.2283
554.77        72.35508
555.21        72.44871
555.65        72.37123
556.08        72.18524
556.52        72.19231
556.96        72.35614
557.39        72.48289
557.83        72.54307
558.27        72.49111
558.70        72.40216
559.14        72.50821
559.57        72.75911
560.01        72.98322
560.45        73.09535
560.88        72.88372
561.32          72.742
561.75        72.45028
562.19        72.20533
562.63        72.05222
563.06        72.01218
563.50        72.11524
563.93        72.27531
564.37        72.39429
564.80        72.41785
565.24        72.40997
565.68        72.36932
566.11        72.31792
566.55        72.29265
566.98        72.20387
567.42        72.14825
567.85        72.18097
568.29        72.32554
568.72        72.41282
569.16        73.29272
569.60        72.65517
570.03        72.91442
570.47        73.13551
570.90        73.18302
571.34        72.48116
571.77        73.05584
572.21        73.17965
572.64        73.37635
573.08        73.23692
573.51        72.73158
573.95        72.67111
574.38        73.43967
574.82        73.01476
575.25        73.16848
575.69        72.71873
576.12        72.35022
576.56        72.19749
576.99        72.52151
577.42        72.61975
577.86         72.8061
578.29        72.52059
578.73        73.29789
579.16        72.65372
579.60        73.09008
580.03        72.98594
580.47        73.11185
580.90        72.92273
581.33        72.66045
581.77        72.48919
582.20        72.89457
582.64        72.97287
583.07        72.50182
583.51        72.15563
583.94        72.14044
584.37        72.00948
584.81        71.95317
585.24        72.27892
585.68        73.06166
586.11        73.33619
586.54        72.39108
586.98        72.35694
587.41        72.89523
587.85         73.2542
588.28        72.97908
588.71        72.97753
589.15         72.4621
589.58        72.91713
590.01        72.29688
590.45        72.38818
590.88        72.68679
591.31        72.95713
591.75        72.87791
592.18        73.11697
592.61        72.96214
593.05        71.61916
593.48        72.69327
593.91        73.48164
594.35        72.44812
594.78        72.10335
595.21        71.67098
595.65        72.46967
596.08        72.02483
596.51        72.32592
596.94         72.5905
597.38        72.83141
597.81        72.85879
598.24        72.99169
598.68        72.35676
599.11        72.14476
599.54         72.9146
599.97         73.4586
600.41        71.62243
600.84        72.16681
601.27        72.10011
601.70        72.49806
602.14        72.81824
602.57        72.64497
603.00        72.18652
603.43        72.03563
603.87        72.02972
604.30        72.55388
604.73        72.33469
605.16        72.27012
605.60        72.49386
606.03        72.61571
606.46        72.69521
606.89        72.70155
607.32        72.64677
607.76        72.60326
608.19        72.61697
608.62        72.57306
609.05        72.51193
609.48        72.61897
609.92        72.53001
610.35        72.58778
610.78        73.24536
611.21        72.52364
611.64        72.26894
612.07        72.51772
612.50        72.36053
612.94        72.54213
613.37        72.68637
613.80        72.54529
614.23        73.16712
614.66        72.99407
615.09        73.23692
615.52        73.25557
615.96        73.30789
616.39        73.10744
616.82        72.64897
617.25        72.79204
617.68        72.24482
618.11        72.39392
618.54        72.68974
618.97         72.8054
619.40        72.52206
619.84        72.19471
620.27        72.52016
620.70        72.73613
621.13         73.0527
621.56        72.50338
621.99        72.67739
622.42        72.50506
622.85         73.0053
623.28        72.36986
623.71        73.39783
624.14        72.27316
624.57        72.79493
625.00        72.56837
625.43         72.5107
625.86         72.3826
626.29        72.24321
626.72        72.35108
627.15        72.27946
627.58        72.47032
628.01        72.70481
628.44        72.61864
628.87        72.30302
629.30        72.31181
629.73        72.60948
630.16        72.91947
630.59        72.65443
631.02        72.76548
631.45        72.75453
631.88        72.72865
632.31        72.58453
632.74        72.39337
633.17        72.18982
633.60        72.02355
634.03        71.91802
634.46         71.8446
634.89         71.8122
635.32        71.84444
635.75        71.93307
636.18        72.06268
636.61        72.18904
637.04        72.25255
637.47        72.25066
637.89        72.16761
638.32        72.01554
638.75        71.98382
639.18        72.11589
639.61        71.86439
640.04        72.12234
640.47        72.12583
640.90        72.13928
641.33        72.16611
641.76        72.19424
642.18        72.18848
642.61        72.11311
643.04        71.98663
643.47        71.88123
643.90        71.89101
644.33        72.02141
644.76        72.33401
645.18        72.68519
645.61        72.63866
646.04        72.09732
646.47        71.96156
646.90        72.16963
647.33        72.14653
647.75        71.87519
648.18        71.72106
648.61         71.7258
649.04        71.76064
649.47        71.83984
649.89         72.0806
650.32        72.34668
650.75        72.43845
651.18        72.38776
651.61        72.17973
652.03         72.0163
652.46        72.50775
652.89        73.27291
653.32        73.24915
653.74        72.67979
654.17        71.41898
654.60        71.36203
655.03        73.04974
655.46        71.44018
655.88        72.68639
656.31        74.88611
656.74        75.20859
657.16        74.28648
657.59        72.39294
658.02        72.26649
658.45        73.16258
658.87        73.40939
659.30        72.71204
659.73         72.9416
660.15        72.96908
660.58        72.86491
661.01        72.87151
661.44        72.80788
661.86        72.54499
662.29        72.16305
662.72        72.21034
663.14         72.6012
663.57        72.46007
664.00        71.90265
664.42        71.73223
664.85        72.00157
665.27        72.25229
665.70        72.39819
666.13        72.53849
666.55        72.65161
666.98        72.69368
667.41        72.68242
667.83        72.64737
668.26        72.59109
668.69        72.51237
669.11        72.42667
669.54        72.36147
669.96         72.3231
670.39        72.32034
670.82        72.32309
671.24        72.26538
671.67        72.14233
672.09        72.02611
672.52        71.97185
672.94        72.08102
673.37        71.80535
673.80        72.41698
674.22        72.26696
674.65        72.52951
675.07        72.69421
675.50        72.84669
675.92        72.94463
676.35        72.94847
676.77        72.87625
677.20        72.71779
677.62        72.54375
678.05        72.46777
678.47        72.50883
678.90        72.64521
679.32        72.79371
679.75        72.82796
680.17        72.71727
680.60          72.517
681.02         72.3053
681.45        72.21366
681.87         72.2777
682.30        72.43034
682.72        72.63723
683.15        72.79642
683.57        72.89964
684.00         72.9808
684.42        73.02859
684.85        73.06028
685.27         73.0845
685.70        72.97625
686.12        72.82789
686.54        73.12224
686.97        73.71674
687.39        73.95836
687.82        73.76553
688.24        73.64679
688.66        73.60487
689.09        73.31842
689.51        72.89265
689.94        72.66948
690.36        72.69071
690.78        72.86136
691.21        73.10271
691.63        73.28697
692.06        73.36951
692.48        73.40743
692.90        73.40564
693.33        73.36017
693.75        73.28107
694.17        73.14853
694.60        73.02426
695.02        72.98045
695.44        73.01704
695.87        73.27425
696.29        73.62811
696.71        73.44737
697.14        72.88799
697.56        72.87701
697.98        73.36584
698.41        73.53724
698.83        73.35921
699.25        73.30551
699.68        73.35325
700.10        73.39856
700.52         73.4437
700.94        73.34888
701.37        73.04224
701.79        73.48468
702.21         72.9937
702.64        72.93055
703.06        72.84943
703.48        72.89224
703.90        73.06253
704.33        73.35233
704.75        73.66599
705.17        73.86977
705.59        73.90317
706.01        73.81081
706.44        73.65574
706.86        73.54827
707.28        73.52223
707.70        73.54685
708.12        73.61561
708.55        73.70845
708.97        73.81227
709.39        73.91941
709.81        74.02896
710.23        74.16483
710.66        74.31335
711.08         74.4666
711.50        74.59211
711.92        74.68842
712.34         74.7523
712.76        74.78075
713.19        74.76498
713.61        74.74322
714.03        74.70461
714.45         74.6549
714.87         74.6051
715.29        74.56606
715.71        74.53954
716.13        74.52385
716.56        74.49734
716.98        74.51614
717.40        74.55209
717.82        74.60162
718.24        74.64976
718.66        74.67435
719.08        74.66845
719.50        74.63171
719.92        74.58346
720.34        74.55588
720.76        74.55557
721.19        74.56835
721.61        74.57631
722.03        74.52175
722.45        74.39619
722.87        74.21624
723.29        74.03711
723.71         73.9454
724.13        73.96127
724.55        74.06635
724.97        74.20265
725.39        74.25187
725.81         74.1915
726.23         74.0979
726.65        74.04665
727.07        73.97591
727.49        74.19846
727.91        74.42219
728.33         74.6889
728.75        74.91689
729.17        75.07234
729.59        75.18238
730.01         75.2032
730.43         75.0732
730.85        74.80968
731.27        74.44743
731.69        74.12445
732.10        74.05883
732.52        74.28887
732.94        74.75069
733.36        75.30322
733.78        75.68752
734.20        75.81193
734.62         75.7398
735.04        75.56911
735.46        75.46314
735.88        75.47908
736.30        75.55276
736.72        75.61816
737.13        75.68262
737.55        75.64108
737.97        75.28987
738.39        74.78851
738.81         74.6272
739.23        74.84349
739.65        75.15815
740.06        75.40369
740.48        75.52864
740.90        75.47457
741.32        75.24383
741.74        74.95594
742.16        74.85466
742.57        75.00683
742.99         75.2699
743.41        75.55742
743.83        75.82888
744.25        75.99004
744.67        75.84432
745.08        75.50098
745.50        75.34273
745.92          75.436
746.34        75.57845
746.75        75.71936
747.17        75.85789
747.59        75.96476
748.01        76.04411
748.42        76.09174
748.84        76.06827
749.26        75.98634
749.68        75.85675
750.09        75.69669
750.51          75.572
750.93        75.48874
751.35        75.44418
751.76        75.44241
752.18        75.47674
752.60         75.5387
753.01        75.63081
753.43        75.72364
753.85        75.80213
754.27        75.86963
754.68        75.95865
755.10        76.03288
755.52        76.04121
755.93        75.96003
756.35        75.77424
756.77        75.64333
757.18        75.73564
757.60        76.07391
758.02        76.86834
758.43        77.73606
758.85        77.52388
759.26        76.44181
759.68        75.85984
760.10        75.97752
760.51         76.2871
760.93        76.62683
761.34        76.81633
761.76        76.75314
762.18        76.61499
762.59        76.43184
763.01        75.97688
763.42        75.44756
763.84        75.21181
764.26        75.34171
764.67         75.7125
765.09        76.19804
765.50        76.52973
765.92        76.65761
766.33        76.69944
766.75        76.60577
767.16        76.51524
767.58         76.4208
768.00        76.17721
768.41        75.89622
768.83        76.08566
769.24        76.55184
769.66        76.64278
770.07        75.99252
770.49        75.87391
770.90        76.19766
771.32        76.51711
771.73        76.74546
772.15        76.82298
772.56        76.73156
772.97        76.77315
773.39        76.48199
773.80        76.49897
774.22        76.65659
774.63        76.96655
775.05        77.26092
775.46        77.36945
775.88        77.22144
776.29        76.92354
776.70        76.57339
777.12        76.35097
777.53        76.31226
777.95         76.3737
778.36        76.53109
778.77         76.7309
779.19        76.94035
779.60        77.31082
780.02        77.68259
780.43        77.68861
780.84        77.40845
781.26        77.16343
781.67        77.11582
782.09        77.59871
782.50        78.37859
782.91        78.43204
783.33         77.7769
783.74        77.44084
784.15        77.47081
784.57        77.23537
784.98         76.8139
785.39        76.66695
785.81        76.84157
786.22        77.19794
786.63        77.65977
787.04        78.10703
787.46        78.48421
787.87        78.79309
788.28        79.03687
788.70        79.21149
789.11        79.31075
789.52        79.35139
789.93        79.31055
790.35        79.15342
790.76         78.9031
791.17        78.58341
791.58        78.31257
792.00        78.20451
792.41        78.29933
792.82        78.68388
793.23        79.20184
793.65        79.24873
794.06         78.9285
794.47        79.05131
794.88        79.53191
795.29        79.63256
795.71        79.30569
796.12        79.00292
796.53        78.84579
796.94        78.85542
797.35        79.06922
797.76        79.48548
798.18        79.93422
798.59        80.18264
799.00        80.14763
799.41        79.89821
799.82        79.55824
800.23        79.34779
800.64        79.33672
801.06        79.43339
801.47        79.62019
801.88        79.77901
802.29        79.86588
802.70        79.90993
803.11        79.92208
803.52        79.91319
803.93        79.89361
804.34        79.85626
804.75        79.79195
805.17        79.70447
805.58        79.63323
805.99        79.52081
806.40        79.41621
806.81        79.51658
807.22         79.7725
807.63        79.87526
808.04        79.82883
808.45        79.89866
808.86        80.09386
809.27        80.25317
809.68        80.34075
810.09        80.38855
810.50        80.39138
810.91        80.32747
811.32        80.26653
811.73        80.32601
812.14        80.52176
812.55        80.82557
812.96        81.11506
813.37        81.16345
813.78        80.92735
814.19        80.50312
814.60        80.04153
815.01        79.75048
815.42        79.67976
815.83        79.76443
816.24        79.96129
816.65        80.17794
817.05        80.36017
817.46        80.49523
817.87        80.57427
818.28        80.52479
818.69        80.34838
819.10        80.05716
819.51        79.74863
819.92        79.61541
820.33        79.70989
820.74        79.96939
821.14        80.30039
821.55        80.55902
821.96        80.69064
822.37         80.7448
822.78        80.71529
823.19        80.59997
823.60        80.41525
824.00        80.14781
824.41        79.87728
824.82        79.76789
825.23        79.84309
825.64        80.07928
826.04        80.34818
826.45        80.32524
826.86        79.97841
827.27        79.40802
827.68        78.82738
828.08        78.59605
828.49        78.75809
828.90        79.25064
829.31        79.92033
829.72        80.49478
830.12        80.90192
830.53        81.11565
830.94        81.26171
831.35        81.50941
831.75        81.91398
832.16        82.32322
832.57        82.61777
832.97        82.57004
833.38        82.15569
833.79        81.53712
834.20        80.87493
834.60         80.3663
835.01        80.11285
835.42        80.02864
835.82        80.18412
836.23        80.61441
836.64        81.29964
837.04        82.23989
837.45        83.08855
837.86        83.43704
838.26        83.18243
838.67        82.45023
839.08        81.52797
839.48        80.85395
839.89        80.60606
840.29        80.66418
840.70        80.93207
841.11        81.26283
841.51        81.60552
841.92        81.95756
842.33        82.30953
842.73        82.61424
843.14         82.7946
843.54        82.88501
843.95        82.85915
844.35        82.76411
844.76        82.59979
845.17        82.34667
845.57        82.11121
845.98        82.02479
846.38        82.12888
846.79        82.38992
847.19        82.61513
847.60        82.41494
848.00         81.7534
848.41        80.77455
848.81         79.8276
849.22        79.42924
849.62        79.73102
850.03        80.54547
850.43        81.63096
850.84        82.32178
851.24        82.47199
851.65        82.13419
852.05        81.61579
852.46        81.36681
852.86        81.47649
853.27        81.85482
853.67         82.1394
854.07        82.07036
854.48        81.55055
854.88        80.70911
855.29        79.75488
855.69        79.36527
856.10        79.63972
856.50        80.49349
856.90        81.44926
857.31        81.83138
857.71        81.53321
858.12        80.71424
858.52        79.76919
858.92        79.29808
859.33        79.46004
859.73         80.1145
860.13        80.95715
860.54         81.5113
860.94        81.67198
861.34        81.48531
861.75          81.084
862.15        80.75827
862.55        80.56473
862.96        80.45853
863.36        80.23512
863.76        79.60596
864.17        78.59557
864.57        77.37547
864.97        76.30843
865.38        75.87621
865.78        76.20711
866.18        77.12801
866.58        78.38193
866.99         79.3961
867.39        79.96993
867.79        80.20422
868.19        80.11031
868.60        79.72758
869.00        79.13622
869.40        78.29678
869.80        77.55902
870.21        77.52813
870.61        78.35254
871.01        79.82706
871.41        81.36133
871.81        82.00008
872.22        81.51222
872.62        80.16009
873.02        78.49857
873.42        77.46923
873.82        77.36049
874.22        77.94384
874.63        78.75063
875.03        79.04799
875.43        78.67318
875.83        77.85376
876.23        77.10172
876.63        77.24517
877.03        78.43247
877.44        80.29632
877.84        82.21101
878.24        83.07329
878.64        82.63529
879.04        81.31483
879.44        79.68616
879.84        78.58012
880.24        78.22292
880.64        78.34382
881.04        78.78806
881.44        79.30206
881.84        79.75815
882.24        80.27035
882.65        80.66966
883.05        80.78369
883.45        80.53842
883.85        80.00943
884.25        79.45699
884.65        79.31371
885.05        79.65724
885.45        80.30735
885.85        81.12399
886.25        81.85508
886.65        82.35103
887.05        82.68823
887.45        82.65427
887.85        81.91882
888.25        80.56631
888.65        78.82954
889.04        77.19264
889.44        76.36172
889.84        76.38746
890.24        77.10638
890.64        78.24221
891.04        79.17141
891.44        79.61172
891.84        79.72278
892.24        79.65189
892.64        79.63303
893.04        79.74358
893.44        79.87682
893.83        80.07226
894.23        80.33815
894.63        80.68668
895.03        81.12234
895.43        81.54556
895.83        81.79178
896.23        81.81986
896.63        81.64095
897.02        81.35542
897.42        81.19466
897.82         81.1955
898.22        81.34222
898.62        81.44711
899.01        81.20922
899.41        80.57652
899.81        79.66158
900.21        78.81491
900.61        78.56305
901.00         78.9921
901.40        79.94579
901.80        80.96201
902.20        81.27996
902.59        80.72507
902.99        79.53639
903.39        78.22609
903.79        77.56773
904.18        77.73187
904.58        78.50321
904.98        79.44442
905.38        79.88497
905.77        79.63455
906.17        78.90355
906.57        78.06926
906.96        77.75105
907.36         78.0624
907.76        78.83881
908.15        79.67651
908.55        79.78057
908.95        79.05865
909.34        77.78594
909.74        76.58556
910.14        76.26115
910.53        77.01881
910.93        78.52863
911.33        80.38953
911.72        81.98358
912.12         82.9804
912.52        83.54284
912.91        83.77393
913.31         83.8342
913.70        83.81436
914.10        83.61858
914.49        83.20716
914.89         82.5351
915.29        81.66055
915.68        80.68398
916.08        79.85919
916.47        79.40681
916.87        79.42422
917.26        79.80285
917.66        80.38882
918.05        80.94947
918.45        81.32397
918.84        81.60049
919.24         81.6965
919.64        81.65367
920.03        81.50231
920.42        81.20103
920.82        80.84821
921.21        80.50448
921.61        80.21152
922.00        79.98783
922.40        79.83613
922.79        79.83672
923.19        79.96432
923.58        80.22971
923.98        80.53154
924.37        80.72175
924.77          80.757
925.16        80.66042
925.55         80.5368
925.95        80.56927
926.34        80.81274
926.74        81.19644
927.13        81.55898
927.52        81.60658
927.92        81.29688
928.31        80.71356
928.70        80.09592
929.10        79.81207
929.49        79.95103
929.89        80.36149
930.28        80.85513
930.67        81.01377
931.07        80.73025
931.46        80.18495
931.85         79.5283
932.24        78.97734
932.64        78.63131
933.03        78.44759
933.42        78.47687
933.82        78.78869
934.21        79.37865
934.60        80.13779
934.99        80.97042
935.39        81.69164
935.78        82.26517
936.17        82.68491
936.56        82.69983
936.96         81.9846
937.35        80.60344
937.74        78.78044
938.13        77.11237
938.53        76.33514
938.92        76.52452
939.31        77.54202
939.70         78.9454
940.09        79.84416
940.49        79.91275
940.88        79.38998
941.27        78.68142
941.66        78.42961
942.05        78.79271
942.44        79.59727
942.84        80.45052
943.23        80.76671
943.62        80.33158
944.01        79.36143
944.40        78.40887
944.79        78.26273
945.18        79.07187
945.57        80.61603
945.97        82.21078
946.36        82.92678
946.75        82.38332
947.14        80.87785
947.53        79.16689
947.92        78.39019
948.31        78.82531
948.70        80.19946
949.09        81.77637
949.48        82.23714
949.87        81.24816
950.26        79.26604
950.65        77.24847
951.04        76.51439
951.43        77.31981
951.82        79.29872
952.21        81.57912
952.60        82.55626
952.99        81.76849
953.38         79.7579
953.77         77.5751
954.16        76.60965
954.55        77.15284
954.94         78.8982
955.33        81.04116
955.72        81.86565
956.11        80.80302
956.50         78.4735
956.89        76.10474
957.28        75.28002
957.66        76.33947
958.05        78.74532
958.44        81.58046
958.83        82.99097
959.22        82.35397
959.61        80.34259
960.00        77.99095
960.39         76.5894
960.78        76.39748
961.16        77.07648
961.55        78.08655
961.94        78.49776
962.33        78.00415
962.72        77.03958
963.11        76.09393
963.49         75.7962
963.88        76.28009
964.27        77.27483
964.66        78.55071
965.04         79.7877
965.43        80.68814
965.82        81.34511
966.21         81.6667
966.60         81.5018
966.98        80.90056
967.37         79.9966
967.76        78.97875
968.15        78.07829
968.53        77.34955
968.92        76.69648
969.31        76.30602
969.69        76.52912
970.08        77.33979
970.47        78.75269
970.86         80.1361
971.24        80.40318
971.63        79.32317
972.02        77.29731
972.40        75.25626
972.79        74.71249
973.17        75.92941
973.56        78.30459
973.95         81.1178
974.33         82.9593
974.72        83.24514
975.11        82.48776
975.49        81.18127
975.88        80.35426
976.26        80.29208
976.65        80.58447
977.04        81.16091
977.42        81.91225
977.81        82.56553
978.19        83.28934
978.58        83.86697
978.96        83.82837
979.35        83.17313
979.74        82.03935
980.12        80.87268
980.51        80.40693
980.89        80.91663
981.28        82.01597
981.66        83.55738
982.05        84.95911
982.43        86.09041
982.82        87.03229
983.20        87.48022
983.59        86.79545
983.97        85.03091
984.35         82.4303
984.74          80.034
985.12        79.26472
985.51        80.29196
985.89        82.79831
986.28          85.658
986.66        87.32343
987.04        87.13585
987.43        85.55932
987.81        83.28789
988.20        81.83244
988.58        81.59424
988.96        82.16422
989.35        82.70874
989.73        82.13259
990.12        80.15527
990.50        77.38645
990.88        74.54115
991.27        72.71723
991.65        72.20394
992.03        72.67625
992.42        73.90965
992.80        75.88252
993.18        78.33854
993.56        81.31212
993.95        84.15088
994.33        85.77747
994.71        85.75809
995.10        84.43368
995.48        82.58891
995.86        81.54384
996.24        81.65538
996.63        82.46749
997.01        83.83512
997.39        85.19229
997.77        86.19263
998.15        87.02013
998.54        87.37048
998.92        86.74219
999.30        85.12683
999.68        82.70474
1000.06        80.13074
1000.45        78.66927
1000.83        78.86207
1001.21        80.36101
1001.59        82.82455
1001.97        85.61041
1002.35        88.26553
1002.73        90.76094
1003.12        92.57793
1003.50        92.87611
1003.88        91.62861
1004.26        89.17141
1004.64        86.08432
1005.02        83.49822
1005.40        81.90446
1005.78          81.034
1006.16        81.00725
1006.54        81.92561
1006.92        83.69602
1007.30        86.46939
1007.69        89.36483
1008.07        90.60792
1008.45        89.49888
1008.83        86.36514
1009.21         82.7356
1009.59        81.36533
1009.97        82.92043
1010.35        86.46208
1010.73        90.60862
1011.11        93.06072
1011.49        93.10716
1011.86        91.65783
1012.24        89.01829
1012.62        85.75927
1013.00        82.21389
1013.38        78.09413
1013.76         74.1702
1014.14        72.22231
1014.52        72.85199
1014.90        75.74934
1015.28         79.5146
1015.66        81.77173
1016.04        81.88237
1016.41        80.53577
1016.79        78.23362
1017.17        76.33455
1017.55        75.55295
1017.93        75.39408
1018.31        75.96573
1018.69        77.62419
1019.06         80.6096
1019.44        85.26447
1019.82        91.42777
1020.20        96.23666
1020.58         97.1815
1020.95        94.58393
1021.33        90.68237
1021.71        87.85421
1022.09        86.30387
1022.46         85.1933
1022.84         84.2604
1023.22        82.58777
1023.60        80.36021
1023.97        78.64895
1024.35        77.61059
1024.73        76.87476
