SpectraSmart Spectrum 2.9.0.0
--------- Device Information -----------
Spectrum Name :  反射率_0
Saving Time :  2024/04/30 00:22:20
Spectro-Module Model Name : SE2030-DUVN
Spectro-Module Serial Number : OS361AC55029948
Wavelength Start : 200
Wavelength End : 1025
Wavelength Unit : Wavelength(nm)
Spectrum Unit : Reflectance(%)
-----------Spectrum Setting ------------
Integration Time : 20ms
Average : 10
Boxcar : 0
Background removal :  enabled
linearity correction :  enabled
SC :  disabled
Intensity correction :  disabled
DWT denoise :  enabled
savitzky-golay :  disabled
FFT :  disabled
Running average :  disabled
Kalman :  disabled
High pass :  disabled
---------------BEGIN--------------------
Wavelength(nm)             Reflectance(%)
200.29               0
200.75        45.50854
201.21         48.7473
201.67        54.92446
202.13        60.06254
202.58        62.46727
203.04        62.72141
203.50        63.78428
203.96        72.40852
204.42        89.58395
204.88        111.0171
205.34        125.7023
205.80        120.5433
206.26        100.3912
206.72        76.59225
207.18         57.1283
207.64        45.78511
208.10        40.84125
208.55        39.55402
209.01        40.72765
209.47        42.95201
209.93        45.00513
210.39         47.1573
210.85        48.67035
211.31        48.90996
211.77        47.83265
212.23        44.91362
212.69        40.43453
213.14        37.97186
213.60        39.10058
214.06        42.63894
214.52        46.10866
214.98        47.77839
215.44        48.00652
215.90        47.51194
216.36        47.51763
216.81        50.28547
217.27        57.21106
217.73        68.86031
218.19        84.23709
218.65        95.30038
219.11        95.98464
219.57        88.72897
220.02        80.10781
220.48        75.24889
220.94        73.36476
221.40        72.89767
221.86        71.75474
222.32         66.2104
222.77        57.60053
223.23         50.4924
223.69        45.67712
224.15        42.45617
224.61        39.98107
225.06        37.54811
225.52        36.02386
225.98        36.97751
226.44        40.00809
226.90        43.73497
227.36        46.39534
227.81         46.8159
228.27        45.26096
228.73        41.99522
229.19        38.32929
229.65        37.12719
230.10        38.82665
230.56         41.9504
231.02        44.54465
231.48        44.88783
231.93        42.99791
232.39        39.59897
232.85        35.82321
233.31         33.8393
233.77        34.38914
234.22         37.0107
234.68        40.42754
235.14        42.21968
235.60        41.74464
236.05        39.84891
236.51        38.10261
236.97        38.64426
237.43        42.13379
237.88         48.5365
238.34         57.2035
238.80        65.07844
239.26        69.27774
239.71        70.08807
240.17        68.56973
240.63         67.0798
241.08        66.60162
241.54        66.30491
242.00        67.29943
242.46        72.71476
242.91        84.02165
243.37        98.64807
243.83        111.3887
244.28        119.6384
244.74        124.1191
245.20        124.0949
245.66        120.7714
246.11        117.9117
246.57        117.1451
247.03        119.3486
247.48        119.9874
247.94        110.4207
248.40        94.70116
248.85        79.89468
249.31        71.40936
249.77        70.74503
250.22         77.4286
250.68        92.52137
251.14         116.825
251.59        134.0639
252.05        129.3689
252.51        114.4899
252.96        101.1619
253.42         93.9557
253.88        90.55923
254.33        88.68387
254.79         87.7947
255.25        86.93975
255.70         85.7721
256.16        85.15114
256.62         85.0332
257.07        85.28662
257.53        86.15308
257.99         87.1581
258.44        87.21752
258.90        85.82566
259.35         82.9379
259.81         79.8466
260.27         77.2098
260.72         75.5732
261.18        74.95304
261.63        74.56966
262.09        74.10104
262.55        72.73926
263.00        70.50106
263.46        68.11512
263.91         65.7162
264.37         63.8089
264.83        62.30758
265.28        60.95881
265.74        59.93872
266.19        59.27458
266.65        58.98905
267.11        58.96571
267.56        58.87112
268.02        58.24371
268.47        56.96714
268.93        55.18965
269.38        53.17896
269.84        51.55764
270.30        50.50888
270.75        49.85342
271.21        49.38436
271.66        48.72424
272.12        47.77658
272.57        46.64013
273.03        45.41049
273.48        44.14081
273.94        42.96021
274.39        41.79874
274.85        40.76884
275.31        39.93382
275.76        39.25755
276.22        38.74702
276.67        38.27435
277.13        37.76243
277.58        37.13986
278.04        36.49705
278.49        35.81275
278.95         35.1743
279.40        34.55132
279.86        33.98589
280.31        33.46132
280.77        33.09048
281.22        32.82577
281.68        32.67102
282.13        32.53479
282.59        32.34849
283.04        32.07472
283.50        31.75988
283.95          31.416
284.41        31.08741
284.86        30.78844
285.32        30.55562
285.77        30.38316
286.22        30.34552
286.68        30.45112
287.13        30.62365
287.59        30.85561
288.04        31.06625
288.50        31.24186
288.95         31.3618
289.41        31.41184
289.86        31.32155
290.32        31.13777
290.77        30.90689
291.22         30.7268
291.68        30.74004
292.13         30.9829
292.59        31.45057
293.04        32.16132
293.50        33.17556
293.95         34.4763
294.40        36.05883
294.86        37.77436
295.31        39.39657
295.77        40.86529
296.22        42.21151
296.68         43.6048
297.13        45.29409
297.58        47.33062
298.04        49.59594
298.49        51.88917
298.95        53.92039
299.40         55.6158
299.85        57.08591
300.31        58.51691
300.76        60.10355
301.21        61.93975
301.67        63.98162
302.12        66.09707
302.58        68.24237
303.03        70.34113
303.48        72.37558
303.94        74.41772
304.39        76.76179
304.84        78.99671
305.30        81.42242
305.75        83.74088
306.20         85.7753
306.66         87.5135
307.11         88.9599
307.57         90.3279
308.02         91.7926
308.47        93.44846
308.93        95.23397
309.38        97.00571
309.83         98.6262
310.29          100.05
310.74         101.308
311.19        102.4163
311.65        103.3801
312.10        104.2077
312.55        104.9305
313.00        105.6623
313.46        106.5891
313.91        107.7185
314.36        108.9858
314.82        110.2693
315.27        111.3964
315.72        112.2747
316.18        112.9535
316.63        113.4021
317.08        113.5952
317.53        113.5843
317.99        113.4293
318.44         113.266
318.89        113.3273
319.35        113.6723
319.80        114.2433
320.25        114.9913
320.70        115.8211
321.16        116.6328
321.61        117.4778
322.06        118.2042
322.51        118.5957
322.97        118.6092
323.42         118.316
323.87        117.8917
324.32         117.655
324.78        117.6808
325.23        117.9729
325.68        118.4133
326.13        118.7911
326.59        119.0194
327.04        119.1986
327.49        119.4117
327.94        119.8492
328.39        120.5305
328.85        121.3093
329.30        122.0899
329.75          122.49
330.20        122.4229
330.66        122.0086
331.11        121.4824
331.56        121.1349
332.01        121.1024
332.46        121.3299
332.92        121.7668
333.37        122.4878
333.82        123.3932
334.27        124.4632
334.72        125.5926
335.17         126.604
335.63        127.3882
336.08        128.0193
336.53        128.4332
336.98        128.6334
337.43        128.6553
337.88        128.5152
338.34        128.3554
338.79        128.4205
339.24        128.7675
339.69        129.3757
340.14        130.0943
340.59        130.6393
341.05        130.9483
341.50        131.1076
341.95        131.2604
342.40        131.6646
342.85        132.3552
343.30        133.1833
343.75        134.0185
344.20        134.6637
344.66        135.0665
345.11        135.3288
345.56        135.3954
346.01        135.1678
346.46        134.7078
346.91        134.0698
347.36        133.6066
347.81        133.8519
348.26        134.8573
348.72        136.4155
349.17         138.092
349.62        139.0577
350.07        139.0843
350.52        138.4424
350.97        137.4881
351.42        136.7778
351.87        136.4929
352.32        136.4532
352.77        136.6181
353.22        136.9344
353.67        137.3125
354.13        137.7442
354.58        138.0571
355.03         137.947
355.48         137.349
355.93        136.3521
356.38        135.0904
356.83        133.7849
357.28        132.5394
357.73        131.3326
358.18        130.2266
358.63        129.3046
359.08        128.5667
359.53        127.9902
359.98         127.485
360.43        126.8899
360.88        126.1564
361.33        125.3243
361.78        124.4094
362.23        123.4487
362.68        122.4719
363.13        121.4703
363.58        120.5091
364.03        119.6928
364.48        119.0334
364.93        118.4999
365.38        118.0039
365.83        117.3999
366.28        116.6504
366.73         115.795
367.18        114.8913
367.63        114.0308
368.08        113.2364
368.53        112.4767
368.98        111.7278
369.43        110.9507
369.88        110.1477
370.33        109.3603
370.78        108.5991
371.23        107.8796
371.68        107.2039
372.13        106.5341
372.58        105.9207
373.03        105.4448
373.48        105.0903
373.93        104.8285
374.38        104.4742
374.83        103.7349
375.28        102.6003
375.72        101.1801
376.17        99.83186
376.62        98.90391
377.07        98.45735
377.52        98.34778
377.97        98.41216
378.42        98.38475
378.87        98.16115
379.32        97.81551
379.77         97.3451
380.22        96.74059
380.67        96.01515
381.11        95.15792
381.56        94.25551
382.01        93.48885
382.46        92.92193
382.91        92.54135
383.36        92.24741
383.81        91.86492
384.26        91.35202
384.71        90.75211
385.15        90.16161
385.60        89.79493
386.05        89.65478
386.50        89.66167
386.95        89.65897
387.40        89.41557
387.85        88.90288
388.29        88.16994
388.74        87.47348
389.19         86.9315
389.64        86.57032
390.09        86.30901
390.54         86.1074
390.98        85.89311
391.43        85.67715
391.88        85.46707
392.33        85.19043
392.78        84.81923
393.23        84.37223
393.67        83.68965
394.12        82.93241
394.57        82.88451
395.02        82.36471
395.47        82.28372
395.91        82.24164
396.36         82.1619
396.81        82.02414
397.26        81.82129
397.71        81.55872
398.15        81.27944
398.60        81.02431
399.05        80.53535
399.50        79.92113
399.95        79.58508
400.39        79.29314
400.84        79.53537
401.29        79.98755
401.74        80.06602
402.18         79.5043
402.63        78.73269
403.08        78.00378
403.53        77.66035
403.97        77.76332
404.42        78.17297
404.87        78.65512
405.32        78.77024
405.76        78.39604
406.21        77.91879
406.66        77.43099
407.11        76.60511
407.55        75.77262
408.00         75.9251
408.45        76.87875
408.90        77.39938
409.34         77.2478
409.79        76.79307
410.24         76.2856
410.68        76.11942
411.13        76.36097
411.58        76.74448
412.03        77.07544
412.47        77.15771
412.92        76.89189
413.37        76.38398
413.81        75.76579
414.26        75.31396
414.71        75.05888
415.15        74.93861
415.60        74.89462
416.05        74.88178
416.49        74.87941
416.94        74.91227
417.39        74.94064
417.83        74.87482
418.28        74.71059
418.73        74.46242
419.17        74.22832
419.62        74.18731
420.07        74.34665
420.51        74.62273
420.96        74.91357
421.41        74.96538
421.85        74.70129
422.30        74.42561
422.74        74.13853
423.19        73.59251
423.64        72.93127
424.08        72.99862
424.53        73.49915
424.98        73.60388
425.42        73.48177
425.87        73.43383
426.31        73.54321
426.76        73.26329
427.21        72.58092
427.65        72.64498
428.10         73.2249
428.54        73.10957
428.99        72.39209
429.44        71.97546
429.88        71.94189
430.33        71.95824
430.77        71.97933
431.22        72.36742
431.66         72.9623
432.11        73.00108
432.56        72.45437
433.00        72.10272
433.45        72.30746
433.89        71.98338
434.34        72.68954
434.78        74.23411
435.23        71.82339
435.67        71.36978
436.12        71.49953
436.57        71.42282
437.01        70.99076
437.46        71.84016
437.90        71.44533
438.35        71.82565
438.79         72.3951
439.24        72.55735
439.68        72.37764
440.13        72.29019
440.57        72.40366
441.02        72.38066
441.46         72.1736
441.91        72.49963
442.35        72.60324
442.80        72.19914
443.24        72.37595
443.69        71.95047
444.13        71.44778
444.58        71.18447
445.02        71.16344
445.47        71.26273
445.91        71.38982
446.36        71.46429
446.80        71.42664
447.24        71.39884
447.69        71.41711
448.13           71.19
448.58        71.20436
449.02        71.19889
449.47        71.31425
449.91        71.42944
450.36        71.54552
450.80        71.69453
451.25        71.85027
451.69         71.9183
452.13        71.89027
452.58        71.81995
453.02        71.71132
453.47        71.58443
453.91        71.44302
454.36        71.39346
454.80        71.14087
455.24        71.25376
455.69        71.54375
456.13        71.50526
456.58        71.19073
457.02         71.0151
457.46        71.00748
457.91        70.92488
458.35        70.72469
458.79        70.58125
459.24        70.53158
459.68        70.43928
460.13        70.30157
460.57        70.39907
461.01        70.21562
461.46        70.07901
461.90        69.87151
462.34        69.87081
462.79        69.97041
463.23        69.79208
463.68         69.3617
464.12        69.07217
464.56        68.96235
465.01         68.7421
465.45        68.47997
465.89        68.64711
466.34        69.08685
466.78        69.59986
467.22        69.31931
467.67         69.1209
468.11        68.92797
468.55        68.52318
468.99        68.04202
469.44        67.67325
469.88        67.47379
470.32        67.44778
470.77        67.51849
471.21        67.53628
471.65        67.45323
472.10        67.34442
472.54         67.2392
472.98        67.21848
473.42        67.28648
473.87        67.39707
474.31        67.50359
474.75        67.53019
475.20        67.44051
475.64         67.4082
476.08         67.4787
476.52        67.02654
476.97        66.48589
477.41        66.82275
477.85        66.08785
478.29        65.80491
478.74        66.61543
479.18        66.56457
479.62        66.14863
480.06        66.06935
480.50        66.33772
480.95        66.37987
481.39        67.25909
481.83        66.21028
482.27        66.68484
482.72        66.90414
483.16        66.62675
483.60        66.37943
484.04        66.66539
484.48        66.91397
484.93        66.97716
485.37        67.12064
485.81        65.97086
486.25        65.91579
486.69        67.83006
487.14        66.92316
487.58        65.67947
488.02        66.09176
488.46        66.48052
488.90        66.25294
489.34        65.74973
489.79        66.11631
490.23        65.65681
490.67        65.77591
491.11        65.82666
491.55        65.58322
491.99        65.13102
492.43        64.97222
492.88        65.15506
493.32        65.42509
493.76        65.67985
494.20        65.87931
494.64         65.9762
495.08         65.9888
495.52        65.94435
495.96        65.80746
496.41        65.61214
496.85        65.56287
497.29        65.63902
497.73        65.33654
498.17        65.15409
498.61        65.09867
499.05        64.97147
499.49        65.08914
499.93        65.22774
500.37        65.19085
500.82        65.03582
501.26        64.88889
501.70         64.7075
502.14        65.40533
502.58        64.99344
503.02        65.11436
503.46        65.18053
503.90        65.22746
504.34        65.23526
504.78        65.22289
505.22        65.21062
505.66        65.14384
506.10        65.05119
506.54         65.0781
506.98        65.22581
507.42        65.27299
507.86        65.11481
508.30        65.32547
508.74        64.79051
509.18        64.41833
509.62        64.03365
510.06        63.84319
510.50        64.01491
510.94        64.37759
511.38        64.81309
511.82        65.02433
512.26        64.93826
512.70        64.64349
513.14        64.27987
513.58        64.06671
514.02        64.06398
514.46        64.20206
514.90        64.39636
515.34        64.51402
515.78         64.5122
516.22        64.43447
516.66        64.33653
517.10        64.29806
517.54        64.33685
517.98        64.42089
518.42        64.49325
518.86        64.46944
519.30        64.33606
519.74        64.13081
520.18        63.92386
520.62        63.81635
521.06        63.83636
521.50        63.96052
521.93        64.14105
522.37        64.26648
522.81        64.30975
523.25        64.30579
523.69         64.3085
524.13        64.30212
524.57        64.45896
525.01        64.61438
525.45        64.73595
525.89        64.69255
526.32        64.46017
526.76        64.11497
527.20        63.75291
527.64        63.52695
528.08        63.47402
528.52         63.5436
528.96        63.68525
529.40        63.81612
529.83        63.89745
530.27         63.9623
530.71        63.99281
531.15        63.96654
531.59        63.88846
532.03        63.76141
532.46        63.62454
532.90        63.57222
533.34        63.61409
533.78        63.72541
534.22        63.86017
534.66        63.94422
535.09        63.95189
535.53        63.91948
535.97        63.85905
536.41        63.80554
536.85        63.77004
537.28        63.73406
537.72        63.69733
538.16        63.65778
538.60        63.61031
539.04        63.55964
539.47        63.48357
539.91        63.39611
540.35        63.28725
540.79        63.17945
541.22        63.07898
541.66        63.00785
542.10        62.97087
542.54        62.96188
542.97        63.00166
543.41        63.13646
543.85        63.34603
544.29        63.63739
544.72        63.90356
545.16        63.95956
545.60        63.76668
546.04        63.56493
546.47        63.11197
546.91        63.04971
547.35        63.27379
547.79        63.51669
548.22        63.64686
548.66        63.80974
549.10        63.98098
549.53        63.85609
549.97        63.40835
550.41         63.8973
550.84        63.42402
551.28        63.44064
551.72        63.34581
552.15        63.51848
552.59        63.13714
553.03        63.35212
553.46        63.12232
553.90        63.14447
554.34        63.15619
554.77        63.22496
555.21        63.33065
555.65        63.28336
556.08        63.13352
556.52        63.23939
556.96        63.52888
557.39         63.5651
557.83        63.36761
558.27         63.3001
558.70         63.4351
559.14        63.34694
559.57        63.56992
560.01        63.68324
560.45        63.80027
560.88         63.5828
561.32        63.40965
561.75        63.29156
562.19        63.32106
562.63        63.20448
563.06        62.97953
563.50        62.97727
563.93        63.14182
564.37        63.22882
564.80        63.20039
565.24        63.19262
565.68        63.20744
566.11        63.24419
566.55        63.30551
566.98         63.2952
567.42        63.29444
567.85         63.3032
568.29        63.32587
568.72        63.56699
569.16        64.10812
569.60        63.60094
570.03        63.98018
570.47         64.2545
570.90        64.28153
571.34        64.06054
571.77        64.27692
572.21        64.34499
572.64        64.50214
573.08        64.32844
573.51        63.84927
573.95        64.34975
574.38        64.88662
574.82        64.44577
575.25        64.19312
575.69        64.43552
576.12         64.1293
576.56        63.58552
576.99        63.81501
577.42        64.03828
577.86        63.78395
578.29        64.08733
578.73        65.10456
579.16        64.25884
579.60        64.09745
580.03        64.02181
580.47        64.48364
580.90        64.43954
581.33        63.98684
581.77        64.26051
582.20        65.00546
582.64        64.98588
583.07        64.39788
583.51        63.72392
583.94         63.4545
584.37        63.22347
584.81        63.22512
585.24        64.01375
585.68        64.76678
586.11        64.93265
586.54        63.92897
586.98        63.33203
587.41        64.16395
587.85         64.6274
588.28        64.58105
588.71        64.71743
589.15        63.84975
589.58          64.001
590.01        63.21938
590.45        63.29113
590.88        63.70263
591.31        63.97128
591.75        63.83723
592.18        64.00001
592.61         64.4529
593.05        63.10761
593.48        64.08375
593.91        64.80459
594.35        63.61212
594.78        63.30936
595.21        63.01551
595.65        63.79661
596.08         63.1756
596.51        63.39118
596.94        63.59513
597.38        63.72973
597.81        63.62069
598.24         63.9634
598.68        63.20822
599.11        63.32858
599.54        64.37222
599.97         64.6614
600.41        62.82215
600.84        63.48679
601.27        63.18217
601.70         63.6783
602.14        63.83268
602.57        63.57278
603.00        63.03419
603.43        62.80354
603.87        63.09856
604.30        63.55002
604.73        63.21703
605.16        63.13301
605.60        63.03537
606.03        63.32841
606.46        63.78878
606.89        63.75676
607.32        63.28753
607.76        63.11936
608.19        63.35519
608.62        63.41286
609.05        63.24913
609.48        63.54269
609.92        63.41413
610.35        63.17819
610.78        63.49899
611.21        62.90133
611.64        63.08289
612.07        63.21063
612.50        63.22466
612.94        63.36239
613.37        63.50543
613.80           63.45
614.23        63.61399
614.66          63.614
615.09        63.56626
615.52        63.57544
615.96         63.6228
616.39        63.40917
616.82        62.96405
617.25        63.20317
617.68        62.94963
618.11        63.18123
618.54        63.42282
618.97        63.34385
619.40        62.99594
619.84        62.85324
620.27        63.00947
620.70        63.14833
621.13        63.14993
621.56        63.05415
621.99         62.9443
622.42         62.2344
622.85         63.1424
623.28        62.90334
623.71        63.37607
624.14        62.43929
624.57        62.98634
625.00        63.00724
625.43        63.15976
625.86        63.09966
626.29        62.85622
626.72        62.74514
627.15        62.76639
627.58        62.77744
628.01        62.74399
628.44          62.661
628.87        62.57431
629.30        62.50861
629.73        62.74886
630.16        62.80383
630.59        62.73818
631.02         62.8237
631.45         62.7858
631.88        62.80076
632.31        62.78147
632.74        62.75181
633.17        62.70539
633.60        62.64226
634.03        62.56829
634.46        62.47697
634.89        62.39153
635.32        62.35695
635.75        62.37856
636.18        62.43527
636.61        62.50108
637.04        62.54581
637.47        62.57155
637.89        62.54769
638.32        62.44863
638.75        62.42397
639.18        62.51257
639.61        62.06689
640.04        62.23261
640.47        62.14738
640.90        62.15602
641.33          62.235
641.76        62.35187
642.18        62.43109
642.61        62.42102
643.04        62.34953
643.47        62.28502
643.90        62.32029
644.33        62.46201
644.76        62.75529
645.18        63.06784
645.61        63.01165
646.04        62.50522
646.47        62.34101
646.90         62.4764
647.33        62.43382
647.75        62.20827
648.18        62.09419
648.61        62.12769
649.04        62.24083
649.47        62.40709
649.89        62.62019
650.32        62.78361
650.75        62.78749
651.18        62.67717
651.61         62.5817
652.03        62.59953
652.46        62.80165
652.89        62.98755
653.32        62.99476
653.74        63.01525
654.17        62.17347
654.60        61.77079
655.03        63.32664
655.46        61.84658
655.88        62.77137
656.31        66.25582
656.74        68.18109
657.16        67.40113
657.59        64.74127
658.02        62.90734
658.45        63.37324
658.87        63.38869
659.30         62.6484
659.73        63.04705
660.15        63.36007
660.58        62.83194
661.01        62.79935
661.44        62.80288
661.86        62.54075
662.29        62.08565
662.72        62.16893
663.14        62.68642
663.57        62.57978
664.00         61.9691
664.42        61.81137
664.85        62.15361
665.27        62.43689
665.70        62.57699
666.13        62.72732
666.55        62.86527
666.98        62.92956
667.41        62.92217
667.83        62.84999
668.26         62.7179
668.69         62.5447
669.11        62.37262
669.54        62.25785
669.96        62.21545
670.39        62.26714
670.82        62.38039
671.24         62.4153
671.67        62.38312
672.09        62.49384
672.52        62.71713
672.94        62.88814
673.37         62.5076
673.80        62.80785
674.22        62.43629
674.65        62.47134
675.07        62.56947
675.50        62.73808
675.92        62.91359
676.35        62.98225
676.77        62.93676
677.20        62.79462
677.62        62.63435
678.05        62.57986
678.47        62.65443
678.90        62.82153
679.32        63.00225
679.75        63.08232
680.17        63.02499
680.60        62.87893
681.02        62.70491
681.45        62.57857
681.87        62.52493
682.30        62.57439
682.72        62.70178
683.15        62.64936
683.57        62.51715
684.00        62.74194
684.42        63.19537
684.85        63.48884
685.27        63.31575
685.70        63.04263
686.12        62.76708
686.54        63.02967
686.97        63.69717
687.39        64.00138
687.82        63.84059
688.24        63.77067
688.66        63.78256
689.09        63.51122
689.51         63.0556
689.94        62.77617
690.36         62.7227
690.78        62.79528
691.21        62.94439
691.63         63.0932
692.06        63.20485
692.48        63.31776
692.90        63.41216
693.33        63.44214
693.75        63.40642
694.17        63.30249
694.60        63.18405
695.02         63.1326
695.44         63.1589
695.87        63.32891
696.29        63.57049
696.71        63.51311
697.14        63.23796
697.56        63.27205
697.98        63.58832
698.41        63.70315
698.83        63.60682
699.25        63.63333
699.68        63.75996
700.10        63.80832
700.52         63.7543
700.94         63.6868
701.37        63.59908
701.79        63.47687
702.21        63.32373
702.64        63.15727
703.06        63.02528
703.48        63.01211
703.90         63.1312
704.33        63.36715
704.75        63.62047
705.17        63.78944
705.59        63.81996
706.01        63.74538
706.44         63.6294
706.86        63.59063
707.28        63.65691
707.70        63.76921
708.12        63.89623
708.55        64.03645
708.97        64.14664
709.39        64.10996
709.81        63.98287
710.23        63.99728
710.66        64.17328
711.08        64.40891
711.50        64.61861
711.92        64.74187
712.34        64.75574
712.76        64.68065
713.19        64.55396
713.61        64.48243
714.03        64.47832
714.45        64.51929
714.87        64.58554
715.29        64.64471
715.71        64.68326
716.13        64.71124
716.56        64.71285
716.98        64.73978
717.40        64.77056
717.82        64.79958
718.24        64.81584
718.66         64.8061
719.08        64.76926
719.50         64.7087
719.92        64.64996
720.34        64.63152
720.76        64.65992
721.19        64.72088
721.61        64.79218
722.03        64.79322
722.45        64.70746
722.87        64.58858
723.29        64.49627
723.71        64.34715
724.13        64.44621
724.55        64.53627
724.97        64.65228
725.39        64.70199
725.81        64.66969
726.23        64.58901
726.65        64.49287
727.07        64.44267
727.49        64.45251
727.91        64.48715
728.33        64.55426
728.75        64.66718
729.17        64.81524
729.59        65.00513
730.01        65.15232
730.43        65.11639
730.85         64.8908
731.27         64.5311
731.69        64.19392
732.10        64.13194
732.52        64.40325
732.94        64.89662
733.36          65.451
733.78         65.8917
734.20        66.14587
734.62        65.80474
735.04        65.84475
735.46        65.64954
735.88         65.5591
736.30        65.68313
736.72        65.92349
737.13        65.93434
737.55        65.63231
737.97        65.27258
738.39        64.97599
738.81        64.70661
739.23        64.57812
739.65        64.93436
740.06        65.54956
740.48        65.80065
740.90         65.6003
741.32        65.23854
741.74        64.87333
742.16        64.67863
742.57        64.73711
742.99         64.9442
743.41        65.20341
743.83        65.42522
744.25        65.52842
744.67        65.39738
745.08        65.13336
745.50        65.03591
745.92        65.15697
746.34        65.33843
746.75        65.51921
747.17        65.64375
747.59        65.68143
748.01        65.70538
748.42        65.73011
748.84        65.62766
749.26        65.47715
749.68        65.54905
750.09        65.77808
750.51        65.85828
750.93        65.75746
751.35        65.65341
751.76        65.58248
752.18        65.51797
752.60        65.47324
753.01        65.46545
753.43        65.46417
753.85        65.44727
754.27        65.42371
754.68        65.43089
755.10        65.47294
755.52        65.55353
755.93        65.65112
756.35        65.73012
756.77        65.85879
757.18        66.06322
757.60        66.32747
758.02        66.89335
758.43        67.48569
758.85         67.1156
759.26        66.04334
759.68        65.68056
760.10        66.04248
760.51        66.46043
760.93        66.07302
761.34        66.27841
761.76        66.69983
762.18        66.84315
762.59        66.62847
763.01        66.00507
763.42        65.25112
763.84        64.92277
764.26        65.13585
764.67        65.55598
765.09        66.01752
765.50        66.46181
765.92        66.78577
766.33        66.55314
766.75        66.27523
767.16        66.08549
767.58         66.1668
768.00        66.24674
768.41         66.2776
768.83        66.38595
769.24        66.47398
769.66        66.28208
770.07        65.90002
770.49        65.71904
770.90        65.79275
771.32        66.01051
771.73        66.29608
772.15        66.41743
772.56        66.33912
772.97        66.39132
773.39        66.16705
773.80        66.19651
774.22        66.33413
774.63        66.58885
775.05         66.8195
775.46        66.89814
775.88        66.76594
776.29        66.50473
776.70        66.20856
777.12        66.04586
777.53        66.07352
777.95        66.23171
778.36        66.47265
778.77        66.70601
779.19        66.88945
779.60        67.06658
780.02        67.20773
780.43        67.33447
780.84        67.43207
781.26        67.41631
781.67        67.33794
782.09         67.4108
782.50        67.58938
782.91        67.55024
783.33        67.27917
783.74        67.05486
784.15        66.89561
784.57        66.65477
784.98        66.41451
785.39        66.38467
785.81        66.59122
786.22        66.96341
786.63        67.40769
787.04        67.77385
787.46        68.01348
787.87        68.14195
788.28        68.19976
788.70        68.25011
789.11        68.30572
789.52        68.36053
789.93        68.38554
790.35        68.33317
790.76        68.21122
791.17        68.04489
791.58        67.90852
792.00        67.86146
792.41        67.93092
792.82        68.18201
793.23        68.52299
793.65        68.54539
794.06         68.3406
794.47        68.51144
794.88        68.95139
795.29        69.03321
795.71        68.70724
796.12        68.34508
796.53        68.08305
796.94        68.01911
797.35        68.21075
797.76        68.63277
798.18        69.11519
798.59        69.42144
799.00        69.46105
799.41        69.29792
799.82        69.03692
800.23        68.86549
800.64        68.84272
801.06        68.88634
801.47        68.97769
801.88        69.01231
802.29        68.95786
802.70        68.84861
803.11        68.72324
803.52        68.63281
803.93        68.60828
804.34        68.64967
804.75        68.72146
805.17        68.79537
805.58        68.89122
805.99        68.88681
806.40        68.87632
806.81        69.26996
807.22        69.95673
807.63        70.29264
808.04        70.23372
808.45        70.25192
808.86        70.35423
809.27        70.22495
809.68        69.90669
810.09        69.66058
810.50        69.53929
810.91        69.48414
811.32        69.48615
811.73        69.52237
812.14        69.57332
812.55        69.64958
812.96        69.73364
813.37        69.77961
813.78        69.77629
814.19        69.74133
814.60        69.67029
815.01        69.55885
815.42        69.41576
815.83        69.23643
816.24        69.09171
816.65         69.1177
817.05        69.34096
817.46        69.67485
817.87        70.01543
818.28        70.15597
818.69        70.05853
819.10        69.79115
819.51        69.45144
819.92        69.22777
820.33        69.19093
820.74        69.27008
821.14        69.44783
821.55        69.70774
821.96        70.01201
822.37        70.37904
822.78        70.68997
823.19        70.72433
823.60        70.43697
824.00        69.88857
824.41        69.26856
824.82        68.91227
825.23        68.89748
825.64        69.14584
826.04        69.51321
826.45        69.66099
826.86        69.52053
827.27        69.20108
827.68         68.8404
828.08        68.67323
828.49        68.72446
828.90         68.9499
829.31        69.29662
829.72         69.6786
830.12        70.07796
830.53        70.44321
830.94        70.80102
831.35        71.14862
831.75        71.49017
832.16        71.73579
832.57        71.86031
832.97        71.80005
833.38        71.56505
833.79        71.23873
834.20        70.88084
834.60        70.55396
835.01        70.31787
835.42        70.13082
835.82        70.10277
836.23        70.34018
836.64        70.85618
837.04         71.6412
837.45         72.3571
837.86        72.59098
838.26        72.24726
838.67        71.46487
839.08        70.56236
839.48        70.02065
839.89        70.00495
840.29        70.36188
840.70        70.91889
841.11        71.40653
841.51        71.74397
841.92        71.97582
842.33         72.1424
842.73         72.2906
843.14        72.39028
843.54        72.44023
843.95        72.44504
844.35        72.49031
844.76        72.56823
845.17        72.65324
845.57        72.74108
845.98        72.78073
846.38        72.77831
846.79        72.75404
847.19        72.65283
847.60        72.34111
848.00        71.83813
848.41         71.1913
848.81        70.62537
849.22        70.46873
849.62        70.80957
850.03        71.52685
850.43        72.39137
850.84        72.78865
851.24         72.6134
851.65        71.93749
852.05        71.13826
852.46        70.78915
852.86        71.00171
853.27        71.61903
853.67        72.23196
854.07        72.49411
854.48        72.28826
854.88        71.74716
855.29         71.0302
855.69        70.66969
856.10        70.74782
856.50        71.22023
856.90        71.72434
857.31        71.75242
857.71        71.25048
858.12        70.34512
858.52        69.42731
858.92        69.08848
859.33        69.45912
859.73        70.39018
860.13        71.48669
860.54        72.11666
860.94        72.13695
861.34        71.64126
861.75        70.86707
862.15        70.28876
862.55        70.03713
862.96        70.00991
863.36        69.98018
863.76        69.61671
864.17        68.89493
864.57        67.98569
864.97        67.17456
865.38        66.83236
865.78         67.0633
866.18         67.7178
866.58        68.59917
866.99        69.28363
867.39        69.63833
867.79        69.76215
868.19        69.66856
868.60        69.38351
869.00        68.96674
869.40        68.37222
869.80        67.90046
870.21        68.06812
870.61        68.97761
871.01        70.42697
871.41        71.83916
871.81        72.28972
872.22        71.57999
872.62        69.99736
873.02        68.10795
873.42        66.87199
873.82        66.59392
874.22        67.02844
874.63        67.79028
875.03        68.27252
875.43        68.30475
875.83        68.07702
876.23        67.86761
876.63        68.11675
877.03        68.89742
877.44         69.9582
877.84        70.99904
878.24        71.46899
878.64        71.24712
879.04        70.56525
879.44        69.69623
879.84        69.02577
880.24        68.67255
880.64        68.50834
881.04        68.54156
881.44         68.7803
881.84        69.18487
882.24        69.78185
882.65        70.31933
883.05        70.48151
883.45        70.14938
883.85        69.44669
884.25        68.70615
884.65        68.44789
885.05        68.77126
885.45         69.4867
885.85        70.36311
886.25        70.99568
886.65        71.22628
887.05        71.19639
887.45        70.88923
887.85        70.29279
888.25        69.50884
888.65         68.5832
889.04        67.77534
889.44         67.5051
889.84        67.77682
890.24        68.52129
890.64         69.4581
891.04        69.98053
891.44        69.88914
891.84        69.37989
892.24        68.78422
892.64        68.56316
893.04        68.80932
893.44        69.36508
893.83        70.09097
894.23        70.66638
894.63        70.99724
895.03        71.17658
895.43        71.24853
895.83        71.28319
896.23        71.29691
896.63        71.21231
897.02        71.05003
897.42        70.92303
897.82        70.83249
898.22         70.8299
898.62        70.75626
899.01         70.3418
899.41        69.57047
899.81        68.55215
900.21        67.68656
900.61        67.58032
901.00        68.31712
901.40         69.6962
901.80        71.17481
902.20        71.85747
902.59        71.50639
902.99        70.37202
903.39        68.97073
903.79        68.09305
904.18        67.94172
904.58        68.32415
904.98        68.85198
905.38        68.92606
905.77        68.39912
906.17         67.4892
906.57        66.60139
906.96        66.38335
907.36        66.93588
907.76        68.05711
908.15        69.27377
908.55        69.68292
908.95        69.13576
909.34         67.9255
909.74        66.66095
910.14        66.13791
910.53        66.59781
910.93          67.744
911.33        69.27489
911.72        70.72948
912.12        71.81996
912.52        72.65395
912.91        73.27512
913.31        73.73866
913.70        74.05543
914.10        74.13515
914.49        73.85692
914.89        73.05945
915.29        71.81277
915.68        70.27243
916.08        68.83685
916.47        67.96517
916.87        67.82187
917.26        68.24654
917.66        69.01537
918.05        69.75225
918.45        70.25284
918.84        70.64212
919.24        70.85296
919.64        70.93222
920.03        70.91338
920.42        70.73383
920.82        70.50181
921.21        70.32076
921.61        70.23731
922.00        70.25414
922.40        70.34468
922.79        70.52761
923.19        70.74992
923.58        71.02154
923.98         71.2612
924.37        71.35492
924.77        71.27727
925.16        71.06968
925.55        70.79953
925.95        70.59061
926.34        70.50246
926.74        70.48273
927.13         70.5133
927.52        70.52549
927.92         70.5033
928.31        70.45755
928.70        70.38577
929.10        70.26388
929.49         70.0935
929.89        69.84933
930.28        69.59451
930.67         69.3742
931.07        69.20866
931.46        69.11456
931.85        69.04857
932.24         68.9423
932.64        68.80395
933.03        68.67853
933.42        68.63222
933.82        68.75806
934.21        69.07912
934.60        69.48111
934.99        69.94748
935.39        70.44083
935.78         70.9605
936.17         71.4878
936.56        71.72729
936.96        71.23871
937.35        70.04214
937.74        68.38503
938.13        66.85253
938.53        66.18204
938.92        66.46037
939.31        67.51972
939.70         68.9512
940.09        69.93202
940.49        70.13249
940.88        69.76815
941.27        69.15978
941.66        68.81784
942.05        68.88573
942.44        69.23981
942.84        69.59993
943.23        69.57169
943.62        69.03149
944.01        68.14016
944.40        67.37885
944.79        67.42638
945.18         68.3823
945.57        70.04561
945.97        71.72084
946.36        72.43655
946.75        71.82334
947.14         70.2056
947.53        68.35031
947.92        67.42133
948.31         67.7126
948.70        68.93236
949.09        70.45466
949.48        71.13773
949.87        70.65269
950.26        69.38773
950.65         68.0315
951.04        67.53199
951.43        68.08651
951.82        69.40687
952.21        70.91471
952.60        71.57054
952.99        71.06223
953.38        69.74384
953.77         68.2944
954.16        67.59306
954.55        67.83103
954.94        68.83878
955.33        70.07416
955.72        70.40605
956.11        69.49199
956.50        67.73575
956.89        66.06792
957.28         65.6946
957.66        66.86249
958.05        69.17361
958.44        71.77691
958.83        72.93913
959.22        72.13061
959.61        69.99348
960.00        67.59241
960.39        66.28305
960.78        66.30692
961.16        67.26209
961.55        68.59077
961.94        69.24885
962.33        68.85018
962.72        67.87064
963.11        66.65628
963.49         65.6188
963.88        64.90357
964.27        64.32945
964.66         64.0692
965.04        64.51109
965.43        65.59843
965.82        67.25895
966.21          68.999
966.60        69.87817
966.98        69.67744
967.37        68.74328
967.76        67.53139
968.15        66.67533
968.53        66.33211
968.92        66.24041
969.31        66.52675
969.69        67.43125
970.08        68.85687
970.47        70.87003
970.86        72.69395
971.24         72.9838
971.63        71.49113
972.02        68.68709
972.40        65.82562
972.79        64.86647
973.17         66.1512
973.56        68.97594
973.95        72.31965
974.33        74.22549
974.72        73.97465
975.11        72.24684
975.49        69.88202
975.88        68.46255
976.26        68.40895
976.65        69.17127
977.04        70.37859
977.42        71.38409
977.81        71.75031
978.19        71.80436
978.58        71.60342
978.96        71.08399
979.35        70.37466
979.74        69.50373
980.12        68.72015
980.51        68.45323
980.89        68.86679
981.28        69.66001
981.66        70.90495
982.05        72.41088
982.43        74.12359
982.82        76.03712
983.20        77.45703
983.59        77.10312
983.97        74.88523
984.35        71.28642
984.74        67.84073
985.12        66.71093
985.51        68.18051
985.89        71.66429
986.28        75.66207
986.66        77.98701
987.04         77.7907
987.43        75.78688
987.81        72.81576
988.20        70.66904
988.58        69.91508
988.96        70.08012
989.35        70.53482
989.73        70.52111
990.12        69.74335
990.50        68.62995
990.88        67.48003
991.27        66.69127
991.65        66.34388
992.03        66.31306
992.42        66.53159
992.80        67.24757
993.18        68.34076
993.56         69.7633
993.95        71.16927
994.33        72.02482
994.71        72.09837
995.10        71.68814
995.48        71.05435
995.86        70.67727
996.24        70.71893
996.63        70.85976
997.01        71.48679
997.39        73.04929
997.77        75.43518
998.15        78.49007
998.54         81.0468
998.92         81.3307
999.30        79.01605
999.68        74.50735
1000.06        69.38132
1000.45        66.69286
1000.83        67.52093
1001.21        71.09043
1001.59        75.77358
1001.97         78.7747
1002.35        79.25307
1002.73        78.06206
1003.12        76.12968
1003.50        74.83627
1003.88        74.68056
1004.26         75.1274
1004.64        75.92975
1005.02        76.76313
1005.40        77.41998
1005.78        78.04416
1006.16        78.57429
1006.54        78.86484
1006.92        78.88377
1007.30        78.58491
1007.69          77.936
1008.07        77.10876
1008.45        76.18974
1008.83        75.31867
1009.21        74.56082
1009.59         73.9427
1009.97        73.51936
1010.35        73.26693
1010.73         73.4834
1011.11        74.62325
1011.49        76.58331
1011.86        79.10413
1012.24         81.2711
1012.62         81.9361
1013.00        80.82819
1013.38        78.21523
1013.76        74.71106
1014.14        71.79004
1014.52        70.17635
1014.90        69.59476
1015.28        69.77411
1015.66        70.09485
1016.04        70.30979
1016.41        70.79147
1016.79        71.27242
1017.17        71.23009
1017.55        70.74055
1017.93        70.02596
1018.31        69.68742
1018.69        70.49014
1019.06        72.70486
1019.44        76.36263
1019.82        81.46342
1020.20        86.04629
1020.58        87.98463
1020.95        87.19165
1021.33        84.98803
1021.71        82.90722
1022.09        81.09064
1022.46         78.8558
1022.84        75.90204
1023.22        71.80896
1023.60        67.61089
1023.97        64.54425
1024.35        62.95864
1024.73        62.62879
