SpectraSmart Spectrum 2.9.0.0
--------- Device Information -----------
Spectrum Name :  反射率_0
Saving Time :  2024/04/30 00:02:56
Spectro-Module Model Name : SE2030-DUVN
Spectro-Module Serial Number : OS361AC55029948
Wavelength Start : 200
Wavelength End : 1025
Wavelength Unit : Wavelength(nm)
Spectrum Unit : Reflectance(%)
-----------Spectrum Setting ------------
Integration Time : 20ms
Average : 10
Boxcar : 0
Background removal :  enabled
linearity correction :  enabled
SC :  disabled
Intensity correction :  disabled
DWT denoise :  enabled
savitzky-golay :  disabled
FFT :  disabled
Running average :  disabled
Kalman :  disabled
High pass :  disabled
---------------BEGIN--------------------
Wavelength(nm)             Reflectance(%)
200.29               0
200.75        76.18336
201.21        67.76626
201.67        57.86606
202.13        48.25465
202.58        40.13033
203.04        32.26024
203.50         27.4075
203.96        31.92483
204.42        47.05404
204.88        70.48898
205.34        91.78251
205.80        96.06231
206.26        85.21973
206.72        68.71938
207.18        54.09298
207.64        45.69993
208.10        42.48438
208.55        42.08896
209.01        43.26668
209.47        44.42492
209.93        44.80943
210.39         45.3084
210.85         45.6151
211.31        45.29102
211.77        44.26399
212.23        42.01704
212.69        39.34294
213.14        40.03355
213.60        44.52138
214.06        50.81899
214.52        55.81526
214.98        57.75347
215.44        57.33411
215.90        55.17746
216.36        53.35803
216.81        55.91995
217.27        64.91998
217.73        81.16018
218.19        102.0541
218.65        113.5462
219.11         107.708
219.57        91.26233
220.02        75.12659
220.48        66.06585
220.94        62.52707
221.40        61.97994
221.86        62.64591
222.32        60.69764
222.77        55.76577
223.23        51.52613
223.69        48.42512
224.15        45.92247
224.61        43.57568
225.06        40.84217
225.52        38.68523
225.98        39.12223
226.44        41.94779
226.90         45.5275
227.36        48.30324
227.81        49.30715
228.27        48.75642
228.73        46.96023
229.19        44.47344
229.65        42.68011
230.10        42.13954
230.56        42.41219
231.02        42.71666
231.48        42.30196
231.93        41.04895
232.39        39.26225
232.85        37.42199
233.31         36.4989
233.77        36.79144
234.22        38.11131
234.68        39.67709
235.14        40.07362
235.60        39.02154
236.05        37.08662
236.51        35.36349
236.97        35.24665
237.43        37.16204
237.88        41.16354
238.34        46.91738
238.80        52.74294
239.26        56.77224
239.71        58.89038
240.17        59.48254
240.63        60.11994
241.08        61.64334
241.54        63.80636
242.00         67.0981
242.46         71.2713
242.91        75.02524
243.37        77.43303
243.83        78.59494
244.28        79.34138
244.74        79.97708
245.20        79.99337
245.66        80.12059
246.11        82.00967
246.57        86.22809
247.03        93.26797
247.48        99.53828
247.94        97.24696
248.40         88.0013
248.85        76.88437
249.31        69.41853
249.77        67.51591
250.22        70.73476
250.68        79.66967
251.14        93.76032
251.59        100.7211
252.05        92.90709
252.51        80.11179
252.96        70.82291
253.42        67.98966
253.88         69.5817
254.33        73.88638
254.79        78.77887
255.25        79.47475
255.70        75.73669
256.16        71.02522
256.62        67.51905
257.07        66.45502
257.53        67.59762
257.99        69.74281
258.44        71.28249
258.90        70.85722
259.35        68.33975
259.81        65.34476
260.27        62.69392
260.72        61.03398
261.18        60.38224
261.63        60.00438
262.09        59.66264
262.55        58.76679
263.00        57.27548
263.46        55.70079
263.91         54.0621
264.37        52.65379
264.83        51.40815
265.28        50.17465
265.74        49.13076
266.19        48.33724
266.65        47.85374
267.11        47.58823
267.56        47.32911
268.02        46.77065
268.47        45.81712
268.93         44.5547
269.38        43.13087
269.84        41.93726
270.30        41.08348
270.75        40.47973
271.21        39.95601
271.66        39.21565
272.12        38.19857
272.57        36.97506
273.03        35.75207
273.48         34.7645
273.94        34.13261
274.39        33.73672
274.85        33.43748
275.31        32.96836
275.76        32.26699
276.22        31.44062
276.67        30.63918
277.13        30.16779
277.58        30.00568
278.04        30.07653
278.49        30.09769
278.95        29.76553
279.40        29.00764
279.86        28.02654
280.31        27.03296
280.77         26.4533
281.22        26.31829
281.68        26.49746
282.13        26.78454
282.59        26.94297
283.04         26.8877
283.50        26.70344
283.95        26.42452
284.41        26.11258
284.86        25.79487
285.32        25.49313
285.77        25.19928
286.22        24.97809
286.68        24.85374
287.13        24.78344
287.59        24.80255
288.04        24.89919
288.50        25.06633
288.95        25.25633
289.41        25.42242
289.86        25.45758
290.32        25.38013
290.77        25.24176
291.22        25.10126
291.68        25.04362
292.13        25.10718
292.59        25.30609
293.04        25.72395
293.50        26.51085
293.95        27.66727
294.40         29.1492
294.86        30.76771
295.31        32.23132
295.77        33.45612
296.22        34.49834
296.68        35.51686
297.13        36.74899
297.58        38.25393
298.04        39.91272
298.49        41.58885
298.95        43.08453
299.40        44.34555
299.85        45.45999
300.31        46.52616
300.76        47.61151
301.21        48.79045
301.67        50.06428
302.12        51.40596
302.58        52.92302
303.03        54.58053
303.48         56.2646
303.94        57.94745
304.39        59.97339
304.84        61.59937
305.30        63.39719
305.75        65.05124
306.20         66.4864
306.66        67.70686
307.11        68.70531
307.57        69.63383
308.02        70.60381
308.47        71.68729
308.93        72.85574
309.38        74.01991
309.83        75.10892
310.29        76.09186
310.74        76.97485
311.19        77.75197
311.65        78.40014
312.10        78.91473
312.55        79.32507
313.00         79.7084
313.46        80.19077
313.91        80.78326
314.36        81.45229
314.82         82.1384
315.27        82.76733
315.72        83.28541
316.18        83.71854
316.63        84.03093
317.08        84.17981
317.53        84.19141
317.99        84.11655
318.44        84.03433
318.89        84.08614
319.35        84.30749
319.80        84.64999
320.25         85.1179
320.70         85.7107
321.16        86.36781
321.61        87.11791
322.06        87.77257
322.51        88.04211
322.97        87.87297
323.42        87.35925
323.87        86.75302
324.32        86.48229
324.78        86.63805
325.23        87.16019
325.68        87.82747
326.13        88.25231
326.59        88.30471
327.04        88.13538
327.49        87.91327
327.94        87.95496
328.39        88.33509
328.85        88.89486
329.30         89.5345
329.75         89.9215
330.20        89.96462
330.66        89.77847
331.11        89.50806
331.56        89.31554
332.01         89.2907
332.46        89.38625
332.92        89.61874
333.37        90.14584
333.82         90.9179
334.27         91.8951
334.72        92.91418
335.17        93.69546
335.63        94.13108
336.08        94.33064
336.53        94.35056
336.98        94.36715
337.43        94.45645
337.88        94.56833
338.34        94.74509
338.79        95.07379
339.24        95.55276
339.69          96.195
340.14        96.86115
340.59        97.29514
341.05        97.45455
341.50        97.41459
341.95        97.36194
342.40        97.62084
342.85        98.24865
343.30        99.10555
343.75        100.0215
344.20        100.7229
344.66        101.1389
345.11        101.3801
345.56        101.4559
346.01        101.3773
346.46         101.203
346.91        100.9247
347.36        100.7739
347.81        101.1072
348.26        101.9565
348.72         103.205
349.17        104.5071
349.62        105.2073
350.07        105.1444
350.52        104.5266
350.97        103.7348
351.42        103.3592
351.87        103.5552
352.32        104.1422
352.77        104.9063
353.22        105.5029
353.67        105.8058
354.13        105.9051
354.58         105.883
355.03        105.8603
355.48        105.8563
355.93        105.7937
356.38        105.5903
356.83         105.142
357.28        104.4512
357.73        103.6034
358.18        102.6996
358.63        101.8802
359.08        101.2002
359.53        100.6277
359.98        100.1639
360.43        99.80387
360.88        99.52139
361.33         99.3071
361.78        99.08409
362.23        98.72854
362.68        98.21432
363.13        97.57463
363.58        96.87585
364.03        96.23125
364.48        95.68024
364.93        95.19553
365.38        94.76273
365.83        94.36102
366.28        93.97166
366.73        93.58956
367.18        93.20164
367.63        92.78148
368.08        92.31347
368.53        91.80427
368.98        91.22669
369.43        90.53832
369.88        89.76349
370.33        88.95102
370.78        88.19175
371.23        87.63349
371.68        87.30412
372.13        87.12691
372.58        87.06178
373.03        87.04057
373.48         86.9963
373.93        86.92892
374.38        86.68718
374.83        86.04084
375.28        85.00374
375.72        83.67632
376.17        82.39449
376.62        81.50323
377.07         81.0732
377.52        80.98148
377.97        81.09955
378.42        81.20606
378.87        81.19832
379.32        81.12406
379.77        80.94071
380.22        80.58581
380.67        80.05862
381.11        79.36208
381.56         78.5892
382.01        77.92896
382.46         77.4528
382.91        77.14494
383.36        76.92652
383.81        76.65704
384.26        76.29906
384.71        75.88401
385.15        75.48589
385.60         75.2733
386.05        75.23984
386.50        75.32113
386.95         75.3656
387.40        75.15104
387.85        74.65633
388.29        73.93542
388.74        73.25018
389.19         72.7618
389.64        72.50147
390.09        72.38483
390.54        72.33506
390.98        72.21568
391.43        72.02051
391.88        71.78768
392.33        71.49864
392.78        71.18833
393.23        70.88322
393.67        70.42274
394.12        69.92058
394.57        70.01121
395.02        69.68351
395.47        69.71146
395.91        69.75423
396.36         69.7253
396.81        69.60756
397.26        69.44474
397.71        69.23804
398.15        68.94377
398.60        68.66016
399.05        68.32202
399.50        67.99211
399.95        67.92802
400.39         67.8534
400.84        68.01369
401.29        68.21636
401.74        68.24287
402.18        68.04527
402.63        67.68152
403.08        67.29684
403.53        67.07798
403.97          67.059
404.42        67.17788
404.87        67.30907
405.32        67.23864
405.76        66.91621
406.21        66.49816
406.66        66.08055
407.11        65.71687
407.55        65.52937
408.00        65.66311
408.45        66.03434
408.90        66.35452
409.34        66.48959
409.79        66.34701
410.24        66.07077
410.68        66.04949
411.13        66.32232
411.58        66.67484
412.03        66.95934
412.47        67.01934
412.92        66.78429
413.37         66.3542
413.81        65.85152
414.26          65.527
414.71        65.40659
415.15        65.43178
415.60         65.5455
416.05        65.69245
416.49        65.84345
416.94        66.02505
417.39        66.17585
417.83        66.17917
418.28        66.03194
418.73        65.75645
419.17        65.50214
419.62         65.5275
420.07        65.85546
420.51        66.38134
420.96        66.93597
421.41        67.16835
421.85         66.9903
422.30        66.71027
422.74        66.40013
423.19        65.97337
423.64        65.57255
424.08        65.80038
424.53         66.5636
424.98        66.81669
425.42        67.02198
425.87        67.26471
426.31        67.64973
426.76        67.43732
427.21        66.70569
427.65        66.87608
428.10        67.70061
428.54        67.83432
428.99         67.2674
429.44        66.66313
429.88        66.26935
430.33        66.30896
430.77        66.70747
431.22         67.4502
431.66        68.30234
432.11        68.40295
432.56        67.74323
433.00        67.49464
433.45        68.01278
433.89         67.6543
434.34        67.96786
434.78          69.701
435.23        68.02976
435.67        67.61436
436.12        67.18109
436.57        67.32782
437.01        67.93751
437.46         68.2935
437.90        68.38947
438.35         68.7542
438.79        69.33397
439.24        69.61627
439.68        69.62031
440.13        69.76257
440.57        70.06478
441.02        70.14545
441.46        69.94864
441.91        69.94498
442.35        70.22051
442.80        69.46851
443.24        70.68949
443.69        70.40985
444.13        69.69694
444.58        69.44867
445.02         69.6348
445.47        69.86469
445.91        70.07393
446.36        70.07349
446.80        69.73214
447.24        70.79002
447.69        70.20323
448.13        70.39687
448.58        70.48741
449.02        70.53893
449.47        70.56692
449.91        70.61349
450.36        70.72606
450.80        70.84937
451.25        70.98241
451.69        71.08392
452.13        71.14678
452.58        71.20457
453.02        71.25098
453.47        71.27534
453.91        71.26607
454.36        71.37073
454.80         71.2615
455.24        71.37441
455.69         71.5574
456.13         71.5024
456.58        71.27934
457.02        71.16197
457.46        71.18877
457.91        71.24138
458.35         71.2312
458.79        71.16222
459.24        71.06123
459.68        70.90449
460.13        70.75964
460.57        70.78304
461.01        70.93494
461.46        71.03278
461.90        71.00868
462.34         71.5033
462.79        71.73383
463.23        71.47717
463.68        70.71634
464.12        70.30405
464.56         70.3098
465.01        70.36246
465.45        70.35569
465.89        70.31826
466.34        70.24467
466.78        70.47534
467.22        70.51295
467.67        70.49606
468.11        70.30316
468.55        70.02989
468.99        69.76164
469.44        69.58009
469.88        69.51896
470.32        69.56898
470.77        69.66564
471.21        69.72013
471.65        69.68851
472.10          69.612
472.54        69.51986
472.98        69.47641
473.42        69.48561
473.87        69.59614
474.31        69.73111
474.75         69.6078
475.20         69.2856
475.64        69.29674
476.08        69.64607
476.52        69.48407
476.97        68.91443
477.41        69.32465
477.85        68.91434
478.29        68.47379
478.74        69.27337
479.18        69.22762
479.62        68.74965
480.06        68.63824
480.50        68.87587
480.95        69.04592
481.39        69.45323
481.83        69.07282
482.27         69.6938
482.72        69.35368
483.16        69.58768
483.60        69.53905
484.04        69.50057
484.48        69.93511
484.93        70.04292
485.37        69.63818
485.81        68.97151
486.25        68.17637
486.69        69.16808
487.14        69.46474
487.58        68.88721
488.02        68.47454
488.46        69.36158
488.90        69.44636
489.34        68.50325
489.79        69.10373
490.23        68.75864
490.67        69.01394
491.11         69.0669
491.55        68.78306
491.99         68.2756
492.43         68.0699
492.88        68.22842
493.32         68.4548
493.76        68.67307
494.20        68.90596
494.64        69.11349
495.08        69.31453
495.52        69.46802
495.96         69.4445
496.41        69.31056
496.85        69.26352
497.29        69.24043
497.73        69.40574
498.17        68.96457
498.61        68.78311
499.05        68.67722
499.49        68.64386
499.93        68.65374
500.37        68.63766
500.82        68.59557
501.26        68.60097
501.70        68.64528
502.14        68.65897
502.58        68.65144
503.02        68.67798
503.46        68.74711
503.90        68.84196
504.34        68.93748
504.78        69.01565
505.22        69.05674
505.66        69.01798
506.10        68.94177
506.54        69.00768
506.98        69.13202
507.42        69.32795
507.86        68.59599
508.30        68.79813
508.74        68.41332
509.18        68.26189
509.62        68.04287
510.06        68.02267
510.50        68.21938
510.94        68.57175
511.38         68.9427
511.82        69.06759
512.26        68.89323
512.70        68.49979
513.14        68.05925
513.58        67.85876
514.02        67.96631
514.46        68.25726
514.90        68.57413
515.34        68.87421
515.78        68.74792
516.22        68.54491
516.66        68.27973
517.10        68.13844
517.54        68.16422
517.98        68.29947
518.42        68.45531
518.86        68.48608
519.30        68.36011
519.74        68.13435
520.18        67.89781
520.62          67.778
521.06        67.81113
521.50        67.96387
521.93        68.17126
522.37        68.30547
522.81        68.33994
523.25        68.30107
523.69        68.26154
524.13        68.33544
524.57        68.53609
525.01        68.81389
525.45        69.06495
525.89        69.12518
526.32        68.95321
526.76        68.63618
527.20        68.27444
527.64        68.02493
528.08        67.93272
528.52        67.95033
528.96        68.03793
529.40        68.13061
529.83        68.19411
530.27        68.25606
530.71        68.29837
531.15        68.29675
531.59        68.24923
532.03        68.15623
532.46        68.03526
532.90        67.94876
533.34        67.90571
533.78        67.89929
534.22         67.9135
534.66        67.91941
535.09        67.90428
535.53        67.89177
535.97        67.88647
536.41        67.91058
536.85        67.96309
537.28        68.02373
537.72        68.07414
538.16        68.08229
538.60        68.03931
539.04        67.96075
539.47        67.83874
539.91        67.71691
540.35        67.59161
540.79        67.47198
541.22        67.37401
541.66        67.33373
542.10        67.35312
542.54        67.42778
542.97        67.53052
543.41        67.63734
543.85        67.72559
544.29        67.80776
544.72        67.85297
545.16        67.85337
545.60        67.80611
546.04        67.68806
546.47        67.54887
546.91        67.57513
547.35        67.74021
547.79        67.80183
548.22        67.72598
548.66        67.81934
549.10        68.08613
549.53        68.15577
549.97        67.91131
550.41         68.5703
550.84        68.07272
551.28        67.98346
551.72        67.71436
552.15        67.88605
552.59        67.66853
553.03        67.73081
553.46        67.80795
553.90        67.86411
554.34        67.86877
554.77        67.90497
555.21        67.96594
555.65         67.8735
556.08        67.68957
556.52        67.72917
556.96        67.94508
557.39        68.10101
557.83        68.16312
558.27        68.11239
558.70        68.01009
559.14        68.06029
559.57         68.2197
560.01        68.32422
560.45        68.34987
560.88        68.17499
561.32         68.1654
561.75        68.11868
562.19        68.12729
562.63        67.99274
563.06        67.75831
563.50        67.72116
563.93        67.83769
564.37        67.88802
564.80        67.84374
565.24        67.85597
565.68        67.89783
566.11        67.93357
566.55        67.96389
566.98        67.84106
567.42        67.70936
567.85         67.7934
568.29        68.04862
568.72        68.33775
569.16        68.75266
569.60          68.157
570.03        68.63176
570.47        68.63393
570.90         68.8205
571.34        68.14544
571.77         68.5985
572.21        68.60136
572.64        68.69982
573.08         68.5985
573.51        68.32771
573.95        68.37776
574.38        69.24174
574.82        68.31245
575.25        68.70927
575.69        68.76827
576.12        68.06225
576.56        67.85748
576.99        68.32819
577.42        68.40931
577.86        68.09082
578.29        68.03598
578.73        68.61008
579.16         68.1394
579.60        68.50864
580.03         68.2121
580.47        68.78225
580.90        68.67907
581.33        68.22904
581.77        68.26548
582.20        68.17999
582.64        68.75832
583.07        68.22674
583.51        68.02829
583.94        67.94863
584.37        67.70074
584.81        67.49086
585.24        67.93204
585.68         68.4175
586.11        68.80112
586.54        68.02712
586.98        68.02215
587.41        68.80783
587.85        68.80296
588.28        68.60448
588.71        68.85687
589.15        68.34915
589.58        68.18114
590.01         67.8026
590.45        67.71602
590.88        67.97916
591.31        68.35678
591.75        68.47516
592.18        68.91365
592.61        69.14985
593.05        67.26228
593.48        68.05316
593.91        68.99983
594.35        67.85066
594.78        67.72195
595.21        67.52721
595.65        68.47461
596.08        67.85347
596.51        68.01004
596.94        68.39291
597.38        68.42232
597.81        68.15637
598.24        68.41114
598.68        68.10499
599.11        67.83773
599.54        68.84241
599.97        69.07836
600.41        67.70961
600.84        68.03931
601.27        67.93985
601.70        68.35977
602.14        68.54961
602.57        68.25827
603.00        67.62323
603.43         67.5825
603.87        67.92912
604.30        68.38822
604.73        68.13405
605.16        68.15088
605.60        68.19093
606.03         68.2934
606.46        68.35688
606.89         68.2897
607.32        68.12855
607.76        68.06836
608.19        68.16642
608.62        68.28085
609.05        68.40067
609.48         68.4712
609.92        68.44273
610.35         68.3237
610.78        68.51431
611.21          67.894
611.64        68.15598
612.07        68.12951
612.50        68.24284
612.94        68.39489
613.37        68.63403
613.80        68.48969
614.23        68.81688
614.66        68.84289
615.09        68.82319
615.52        68.73555
615.96        68.60282
616.39        68.57352
616.82        68.38692
617.25        68.45296
617.68        68.26306
618.11        68.28499
618.54        68.35497
618.97        68.32843
619.40        68.25163
619.84        68.22566
620.27        68.26431
620.70        68.51133
621.13        68.91368
621.56        68.41499
621.99         67.9995
622.42         68.0117
622.85        68.66764
623.28        67.99936
623.71        68.85249
624.14        67.64309
624.57        68.39366
625.00        68.06215
625.43        68.35028
625.86        68.11191
626.29        68.03911
626.72        68.46011
627.15         68.1659
627.58        68.34047
628.01        68.49184
628.44        68.29417
628.87        67.87218
629.30        67.81626
629.73         68.0789
630.16        68.61958
630.59        68.25253
631.02        68.45488
631.45        68.55181
631.88        68.58582
632.31        68.44547
632.74         68.2206
633.17        67.97518
633.60        67.79317
634.03        67.70938
634.46        67.68243
634.89        67.69942
635.32        67.74987
635.75        67.81574
636.18        67.89209
636.61        67.95073
637.04        67.95888
637.47        67.92625
637.89         67.8185
638.32        67.63232
638.75        67.57376
639.18        67.69407
639.61         67.2794
640.04         67.5466
640.47        67.51917
640.90        67.55441
641.33        67.63657
641.76        67.74315
642.18        67.78053
642.61         67.6938
643.04        67.58095
643.47         67.5316
643.90        67.33759
644.33        67.54269
644.76        67.76763
645.18        68.05234
645.61        68.00242
646.04        67.53913
646.47        67.50073
646.90        67.78602
647.33        67.82339
647.75        67.59328
648.18        67.36142
648.61        67.23534
649.04        67.42792
649.47        67.85512
649.89         68.0713
650.32        67.99972
650.75        67.98396
651.18        68.06265
651.61        67.99203
652.03        67.86763
652.46        68.07997
652.89        68.39503
653.32        68.37793
653.74        67.88607
654.17        67.31333
654.60        67.11716
655.03        68.76959
655.46         66.8628
655.88        68.32637
656.31         69.0182
656.74         70.2748
657.16        70.81263
657.59        68.66711
658.02        67.72989
658.45        68.68176
658.87        68.66953
659.30        68.06158
659.73        68.41316
660.15        69.09612
660.58        68.61078
661.01        68.58746
661.44        68.43707
661.86        68.07644
662.29        67.61048
662.72        67.68456
663.14          68.186
663.57        68.02397
664.00         67.3434
664.42        67.18045
664.85        67.58666
665.27        67.95406
665.70         68.1648
666.13        68.34338
666.55        68.45791
666.98        68.45535
667.41        68.36813
667.83         68.2544
668.26        68.13071
668.69        68.00231
669.11        67.89279
669.54        67.82236
669.96        67.79281
670.39        67.87592
670.82        67.90231
671.24         67.9293
671.67        67.89019
672.09        67.80153
672.52        67.71336
672.94         67.7662
673.37        67.45072
673.80        67.94158
674.22        67.71298
674.65        67.87917
675.07        68.03544
675.50        68.20472
675.92        68.34966
676.35        68.40169
676.77        68.36833
677.20        68.24454
677.62        68.10649
678.05        68.07922
678.47        68.18023
678.90        68.37629
679.32        68.56947
679.75        68.61329
680.17        68.47277
680.60        68.21146
681.02        67.91978
681.45        67.74567
681.87        67.73479
682.30        67.82484
682.72        67.98263
683.15        68.10933
683.57        68.19598
684.00        68.27364
684.42        68.34069
684.85        68.42519
685.27        68.53214
685.70        68.53516
686.12        68.48725
686.54        68.79867
686.97        69.32825
687.39        69.45245
687.82        69.17568
688.24        69.01817
688.66        69.00967
689.09        68.82827
689.51        68.52489
689.94        68.34167
690.36        68.30262
690.78        68.34984
691.21        68.45145
691.63        68.55476
692.06        68.63605
692.48        68.72166
692.90        68.79983
693.33        68.84207
693.75        68.84595
694.17        68.80311
694.60        68.74944
695.02        68.72857
695.44        68.74057
695.87        68.88436
696.29        69.09398
696.71        68.95316
697.14        68.58072
697.56        68.62027
697.98        69.01994
698.41         69.1721
698.83        69.04179
699.25        68.98161
699.68        68.99516
700.10        68.98119
700.52        68.92886
700.94        68.87943
701.37        68.81891
701.79        68.74194
702.21         68.6442
702.64        68.54096
703.06        68.45949
703.48        68.45514
703.90        68.53637
704.33        68.69201
704.75        68.85577
705.17        68.98798
705.59        69.04943
706.01        69.06336
706.44        69.04556
706.86        69.03683
707.28        69.05041
707.70        69.04629
708.12         69.0602
708.55        69.19964
708.97        69.43687
709.39        69.60561
709.81         69.6871
710.23        69.80833
710.66        69.95463
711.08        70.04355
711.50        70.07685
711.92         70.1428
712.34        70.24842
712.76        70.36742
713.19        70.44086
713.61        70.41862
714.03        70.27626
714.45        70.05553
714.87        69.83189
715.29        69.71149
715.71        69.71784
716.13        69.81749
716.56         69.9471
716.98        70.08309
717.40        70.16829
717.82        70.21959
718.24         70.2339
718.66        70.20884
719.08        70.14999
719.50        70.05212
719.92        69.94421
720.34        69.87711
720.76        69.86272
721.19        69.88596
721.61        69.92676
722.03         69.9202
722.45         69.8524
722.87        69.74075
723.29        69.62407
723.71        69.56553
724.13        69.57936
724.55        69.64464
724.97        69.72369
725.39        69.75368
725.81        69.72307
726.23        69.66111
726.65        69.59649
727.07        69.57559
727.49        69.60899
727.91        69.66663
728.33        69.75428
728.75        69.88213
729.17        70.03938
729.59        70.23032
730.01        70.37862
730.43        70.35918
730.85         70.1656
731.27        69.84699
731.69        69.54712
732.10        69.49342
732.52        69.73116
732.94        70.19228
733.36        70.73734
733.78        71.11947
734.20        71.24847
734.62        71.16879
735.04        70.98785
735.46        70.90561
735.88         70.9562
736.30        71.03178
736.72        71.06297
737.13        71.01389
737.55        70.84021
737.97        70.56949
738.39        70.31316
738.81        70.23513
739.23        70.36842
739.65        70.68909
740.06        71.02486
740.48         71.1525
740.90        71.01295
741.32        70.68867
741.74        70.30943
742.16        70.11698
742.57        70.19228
742.99        70.36984
743.41        70.58244
743.83        70.89253
744.25        71.17274
744.67        71.04411
745.08        70.62708
745.50         70.4813
745.92        70.67432
746.34        70.90129
746.75        71.09995
747.17        71.23967
747.59        71.27751
748.01        71.33812
748.42        71.47256
748.84        71.11925
749.26         71.2744
749.68        71.15504
750.09        71.05485
750.51        70.99292
750.93        70.96884
751.35        70.97073
751.76        70.98373
752.18         70.9963
752.60        71.00013
753.01        71.00873
753.43        71.00036
753.85        70.97352
754.27        70.94057
754.68        70.92631
755.10         70.9336
755.52        70.96852
755.93         71.0181
756.35        71.05078
756.77        71.10475
757.18        71.27811
757.60        71.58514
758.02        72.01204
758.43        72.28446
758.85        72.54049
759.26        71.34428
759.68        71.07275
760.10        71.35234
760.51        71.50503
760.93        71.48532
761.34        71.82572
761.76        72.33618
762.18        72.25499
762.59        71.63931
763.01        71.07923
763.42        70.78506
763.84        70.62865
764.26        70.69844
764.67        70.98628
765.09        71.38173
765.50        71.92123
765.92        72.50023
766.33        72.04828
766.75        71.83546
767.16         71.5582
767.58        71.65529
768.00        71.58349
768.41        71.38226
768.83        71.67416
769.24        72.22087
769.66        72.02328
770.07        71.23803
770.49        70.96092
770.90        71.26814
771.32        71.63613
771.73        71.93514
772.15        72.04536
772.56        71.92434
772.97        71.88892
773.39        71.53786
773.80        71.52045
774.22        71.69475
774.63         72.0514
775.05        72.40952
775.46         72.5736
775.88        72.46246
776.29        72.18778
776.70        71.84409
777.12        71.60339
777.53        71.52631
777.95        71.53867
778.36          71.646
778.77        71.81809
779.19         72.0275
779.60        72.39706
780.02        72.78189
780.43        72.85867
780.84        72.67918
781.26        72.51629
781.67        72.50032
782.09        72.87703
782.50        73.46831
782.91        73.48975
783.33        72.94797
783.74        72.62621
784.15        72.56425
784.57        72.28915
784.98        71.88076
785.39        71.72215
785.81        71.85702
786.22        72.16529
786.63        72.58559
787.04        73.01979
787.46        73.41515
787.87        73.76644
788.28        74.04621
788.70        74.20268
789.11        74.21944
789.52        74.13499
789.93        73.97572
790.35        73.75079
790.76        73.52417
791.17        73.38857
791.58        73.36372
792.00        73.36838
792.41        73.41292
792.82        73.55435
793.23        73.77807
793.65        73.95373
794.06        74.10195
794.47        74.39543
794.88        74.71272
795.29        74.73095
795.71        74.39968
796.12        73.89878
796.53        73.41357
796.94        73.25012
797.35        73.50515
797.76        74.09467
798.18        74.77559
798.59        75.19324
799.00        75.22079
799.41         74.9623
799.82        74.57019
800.23        74.30677
800.64         74.2618
801.06        74.33319
801.47        74.48464
801.88        74.58148
802.29        74.57516
802.70        74.49666
803.11        74.40604
803.52        74.39008
803.93        74.48326
804.34        74.67098
804.75        74.83719
805.17        74.86528
805.58        74.77299
805.99        74.36187
806.40         73.8669
806.81        74.20508
807.22        75.18034
807.63        75.43608
808.04         74.9669
808.45        74.91095
808.86        75.30813
809.27        75.45378
809.68        75.30407
810.09        75.17288
810.50        75.08283
810.91        74.93963
811.32        74.81962
811.73         74.8484
812.14        75.04007
812.55        75.38049
812.96         75.7407
813.37        75.86436
813.78        75.69669
814.19        75.33661
814.60        74.93352
815.01        74.70055
815.42        74.68822
815.83        74.82166
816.24        75.05826
816.65        75.30843
817.05        75.51151
817.46        75.65509
817.87        75.70988
818.28        75.57128
818.69        75.24421
819.10        74.76524
819.51        74.26873
819.92        74.01472
820.33        74.08429
820.74        74.39283
821.14        74.84604
821.55        75.30038
821.96        75.68332
822.37        76.03403
822.78        76.27443
823.19        76.27261
823.60        76.00897
824.00        75.50809
824.41        74.93263
824.82        74.57813
825.23        74.51622
825.64        74.70429
826.04        75.00092
826.45        75.05719
826.86        74.81968
827.27        74.39272
827.68        73.98241
828.08        73.93424
828.49         74.2801
828.90        74.94321
829.31        75.73322
829.72        76.32632
830.12        76.64066
830.53        76.67217
830.94        76.60258
831.35        76.69913
831.75        77.05067
832.16        77.49464
832.57        77.87861
832.97        77.91128
833.38        77.54197
833.79        76.94358
834.20        76.28832
834.60        75.79317
835.01        75.55901
835.42         75.4886
835.82        75.62827
836.23        75.98165
836.64        76.52696
837.04        77.28331
837.45        77.94965
837.86        78.18457
838.26        77.90839
838.67        77.22839
839.08         76.4089
839.48        75.85213
839.89        75.71218
840.29        75.86857
840.70        76.20854
841.11        76.55704
841.51        76.86173
841.92        77.13915
842.33        77.38903
842.73        77.58651
843.14        77.67344
843.54        77.67107
843.95        77.60292
844.35        77.59035
844.76        77.62948
845.17        77.66966
845.57        77.69706
845.98        77.64751
846.38        77.52587
846.79        77.37103
847.19        77.11732
847.60         76.6039
848.00        75.87043
848.41          74.993
848.81          74.267
849.22        74.12441
849.62        74.67293
850.03        75.75248
850.43        77.06815
850.84        77.86734
851.24        77.97427
851.65        77.45617
852.05        76.68461
852.46        76.24135
852.86        76.26354
853.27        76.62674
853.67        76.94275
854.07        76.89273
854.48         76.3652
854.88        75.49789
855.29        74.50816
855.69        74.06318
856.10        74.27529
856.50        75.05878
856.90        75.93336
857.31        76.21271
857.71        75.79659
858.12        74.85807
858.52        73.83234
858.92        73.39311
859.33        73.70892
859.73        74.59955
860.13        75.70579
860.54        76.46082
860.94        76.72114
861.34        76.55854
861.75        76.10324
862.15        75.64312
862.55        75.26279
862.96        74.92995
863.36        74.51534
863.76        73.84534
864.17        72.95708
864.57        71.98182
864.97        71.20466
865.38        70.99223
865.78        71.43365
866.18        72.38077
866.58         73.5789
866.99        74.47429
867.39        74.87898
867.79        74.89471
868.19        74.57567
868.60        74.02136
869.00        73.32638
869.40         72.4507
869.80        71.70515
870.21        71.62398
870.61        72.33044
871.01        73.62786
871.41        74.98781
871.81        75.54746
872.22        75.10455
872.62        73.92618
873.02        72.45547
873.42        71.45078
873.82        71.17615
874.22        71.44161
874.63        72.01212
875.03        72.52523
875.43        72.85652
875.83         73.1002
876.23        73.40022
876.63        73.97236
877.03        74.81102
877.44         75.7365
877.84        76.48962
878.24        76.58811
878.64        75.97092
879.04        74.86954
879.44        73.63336
879.84        72.75469
880.24        72.36575
880.64        72.32255
881.04        72.55307
881.44        72.91841
881.84        73.33856
882.24        73.87466
882.65        74.34219
883.05        74.55322
883.45         74.4188
883.85        74.01069
884.25        73.58858
884.65        73.58361
885.05        74.06215
885.45        74.83337
885.85         75.7123
886.25        76.37285
886.65         76.6663
887.05        76.71938
887.45        76.38982
887.85         75.4684
888.25        74.07499
888.65        72.38647
889.04        70.88995
889.44        70.28603
889.84        70.61584
890.24        71.73363
890.64         73.2212
891.04        74.17328
891.44        74.25114
891.84        73.71236
892.24        72.98965
892.64         72.6959
893.04        72.96136
893.44        73.57881
893.83         74.3466
894.23         74.8467
894.63        74.97828
895.03        74.89294
895.43        74.74115
895.83        74.73783
896.23        74.92886
896.63        75.19164
897.02        75.44319
897.42        75.62489
897.82        75.68049
898.22        75.69034
898.62        75.56718
899.01        75.16877
899.41        74.50386
899.81        73.63077
900.21        72.86144
900.61        72.67635
901.00        73.13753
901.40        74.09834
901.80        75.12173
902.20        75.47445
902.59        74.98832
902.99        73.90661
903.39        72.66292
903.79        71.91485
904.18         71.8309
904.58        72.22871
904.98        72.84829
905.38        73.29841
905.77        73.42831
906.17        73.35342
906.57        73.20266
906.96        73.20004
907.36        73.36561
907.76        73.64256
908.15        73.85645
908.55        73.61781
908.95        72.95161
909.34        72.01176
909.74        71.23016
910.14        71.11544
910.53        71.79846
910.93         73.0533
911.33        74.61163
911.72        76.05734
912.12        77.12227
912.52        77.89775
912.91        78.38797
913.31        78.60226
913.70        78.57729
914.10        78.26768
914.49          77.717
914.89        76.99408
915.29         76.1938
915.68        75.39264
916.08        74.76214
916.47        74.40742
916.87        74.39526
917.26        74.62652
917.66        75.07729
918.05        75.72214
918.45        76.43639
918.84        77.25521
919.24        77.84521
919.64        77.81648
920.03        77.12983
920.42        75.90846
920.82        74.62826
921.21        73.91809
921.61        73.94132
922.00        74.54264
922.40        75.41659
922.79        76.10423
923.19        76.40134
923.58        76.46456
923.98        76.39301
924.37        76.35809
924.77        76.40781
925.16        76.45567
925.55        76.48402
925.95        76.49345
926.34        76.49973
926.74        76.52401
927.13        76.52771
927.52        76.39288
927.92        76.12028
928.31          75.725
928.70        75.34829
929.10        75.20681
929.49        75.33685
929.89        75.63262
930.28        75.94012
930.67        75.91475
931.07         75.4799
931.46        74.78947
931.85        74.00431
932.24        73.35365
932.64        72.94208
933.03        72.75037
933.42        72.79398
933.82        73.07484
934.21        73.57784
934.60        74.20728
934.99        74.97031
935.39        75.85845
935.78        76.85271
936.17        77.87995
936.56        78.50462
936.96        78.08594
937.35        76.61272
937.74        74.42203
938.13        72.28844
938.53        71.18366
938.92        71.24672
939.31        72.27984
939.70        73.78494
940.09         74.7635
940.49        74.84766
940.88        74.31381
941.27        73.61452
941.66        73.45481
942.05         73.9948
942.44          75.019
942.84        76.05416
943.23         76.3716
943.62        75.72056
944.01        74.36668
944.40        72.94864
944.79        72.37235
945.18        72.82136
945.57         74.0579
945.97        75.39066
946.36        75.85998
946.75        75.10758
947.14        73.48486
947.53        71.75655
947.92        71.06547
948.31        71.68192
948.70        73.28638
949.09         75.1965
949.48        76.17809
949.87        75.85355
950.26        74.61694
950.65         73.1857
951.04         72.5582
951.43        72.96239
951.82         74.1192
952.21        75.47041
952.60        76.01743
952.99        75.46622
953.38        74.15388
953.77        72.77645
954.16        72.23578
954.55        72.71521
954.94        74.04897
955.33        75.57713
955.72         75.9207
956.11        74.68221
956.50        72.36871
956.89        70.13551
957.28        69.47807
957.66        70.69141
958.05        73.28768
958.44         76.3054
958.83        77.77275
959.22        77.04459
959.61        74.83221
960.00        72.24065
960.39        70.66386
960.78        70.37242
961.16        70.96651
961.55        71.92814
961.94        72.34456
962.33        71.89345
962.72        71.01395
963.11        70.06306
963.49        69.46546
963.88        69.33842
964.27        69.48416
964.66        69.90038
965.04        70.66822
965.43        71.64201
965.82        72.82803
966.21        73.94592
966.60        74.46784
966.98         74.2936
967.37        73.62735
967.76        72.78057
968.15         72.1866
968.53        71.94574
968.92         71.8814
969.31        72.07602
969.69        72.68671
970.08        73.61564
970.47        74.93996
970.86         76.0966
971.24        76.12064
971.63        74.84814
972.02        72.65119
972.40        70.48667
972.79        69.89045
973.17        71.11421
973.56        73.55338
973.95        76.41651
974.33        78.16011
974.72        78.17442
975.11        77.01038
975.49        75.23595
975.88        74.00503
976.26        73.63268
976.65         73.6792
977.04        74.05839
977.42        74.63335
977.81        75.12848
978.19        75.73407
978.58        76.19931
978.96        75.97945
979.35        75.07393
979.74        73.64376
980.12         72.2141
980.51         71.6756
980.89        72.33535
981.28        73.76917
981.66        75.75278
982.05        77.58807
982.43        79.08805
982.82        80.37481
983.20        81.11372
983.59        80.64429
983.97        79.00726
984.35        76.42059
984.74        74.01361
985.12         73.3671
985.51        74.66817
985.89        77.58029
986.28        80.82493
986.66        82.57572
987.04        82.13721
987.43        80.08803
987.81        77.34972
988.20        75.85061
988.58        76.09799
988.96        77.52333
989.35        79.10932
989.73        79.45915
990.12        78.13403
990.50        75.79304
990.88         73.0552
991.27        70.86861
991.65        69.58322
992.03        69.00299
992.42        69.14192
992.80        70.35239
993.18        72.47083
993.56         75.3884
993.95        78.50416
994.33        80.75787
994.71        81.59446
995.10        81.31219
995.48        80.17783
995.86        78.74818
996.24        77.30358
996.63        75.60828
997.01        74.26942
997.39        74.17568
997.77         75.4752
998.15        77.97588
998.54        80.64885
998.92         81.8562
999.30        81.20342
999.68        79.05966
1000.06         76.3859
1000.45        75.04499
1000.83        75.72679
1001.21        77.86211
1001.59        80.58488
1001.97        82.45734
1002.35        83.02252
1002.73        82.76105
1003.12        82.06413
1003.50        81.42988
1003.88        81.12063
1004.26        80.94543
1004.64        80.93443
1005.02        81.20324
1005.40        81.69515
1005.78        82.33926
1006.16        83.02597
1006.54        83.57215
1006.92        83.93388
1007.30        84.19723
1007.69        84.13777
1008.07        83.52422
1008.45        82.29873
1008.83        80.57084
1009.21        78.99783
1009.59        78.65105
1009.97        79.72749
1010.35         81.8577
1010.73         84.2447
1011.11        85.56744
1011.49        85.42207
1011.86         84.2412
1012.24        82.28778
1012.62        80.17416
1013.00        78.12788
1013.38        75.98128
1013.76        73.86664
1014.14        72.17255
1014.52        71.13329
1014.90        70.85402
1015.28        71.21188
1015.66        71.82526
1016.04        72.55164
1016.41        73.50279
1016.79        74.50896
1017.17        75.27855
1017.55        75.72998
1017.93        75.92059
1018.31        76.19138
1018.69        77.06104
1019.06        78.79275
1019.44        81.34166
1019.82        84.75775
1020.20        87.80216
1020.58        89.05048
1020.95        88.42599
1021.33        86.64229
1021.71        84.37131
1022.09        81.60162
1022.46        77.80916
1022.84        73.19569
1023.22        68.88322
1023.60        66.41833
1023.97        66.00764
1024.35        67.03724
1024.73        68.66678
