SpectraSmart Spectrum 2.9.0.0
--------- Device Information -----------
Spectrum Name :  反射率_0
Saving Time :  2024/04/30 00:23:43
Spectro-Module Model Name : SE2030-DUVN
Spectro-Module Serial Number : OS361AC55029948
Wavelength Start : 200
Wavelength End : 1025
Wavelength Unit : Wavelength(nm)
Spectrum Unit : Reflectance(%)
-----------Spectrum Setting ------------
Integration Time : 20ms
Average : 10
Boxcar : 0
Background removal :  enabled
linearity correction :  enabled
SC :  disabled
Intensity correction :  disabled
DWT denoise :  enabled
savitzky-golay :  disabled
FFT :  disabled
Running average :  disabled
Kalman :  disabled
High pass :  disabled
---------------BEGIN--------------------
Wavelength(nm)             Reflectance(%)
200.29               0
200.75         69.6102
201.21        57.19768
201.67        45.98962
202.13         38.9015
202.58        37.37782
203.04        42.06343
203.50        51.40145
203.96        61.09724
204.42        68.21143
204.88        71.79513
205.34        72.44691
205.80        72.38552
206.26        72.04491
206.72        71.12334
207.18        68.54722
207.64        62.82027
208.10         54.0249
208.55        42.54849
209.01        30.71411
209.47        25.59895
209.93        28.90224
210.39        36.97744
210.85        45.03889
211.31        49.36234
211.77        49.88457
212.23        47.24191
212.69        42.67367
213.14        41.91389
213.60        46.73507
214.06        53.92577
214.52        59.63649
214.98        61.71642
215.44        60.95538
215.90        58.42444
216.36         56.3418
216.81        58.90629
217.27        68.33138
217.73        85.30019
218.19        107.7919
218.65        122.5297
219.11        120.5312
219.57        106.9991
220.02        91.95996
220.48        82.10624
220.94        75.90317
221.40        70.57201
221.86          64.264
222.32        56.10651
222.77        48.65434
223.23        44.61763
223.69        42.57397
224.15        40.57952
224.61        38.08875
225.06        34.91325
225.52        32.44925
225.98        33.42234
226.44        37.52436
226.90        42.51316
227.36        46.31075
227.81        47.70079
228.27        47.02717
228.73        44.74406
229.19        41.80223
229.65        40.30399
230.10        40.79852
230.56        42.37485
231.02        43.78936
231.48        43.93425
231.93        42.77171
232.39        40.80659
232.85        38.75863
233.31        38.00325
233.77        38.97482
234.22        41.37188
234.68        44.24908
235.14        45.84984
235.60        45.70374
236.05        44.38973
236.51        43.11244
236.97        43.50143
237.43        46.09694
237.88        51.00082
238.34        57.74872
238.80        64.20217
239.26        68.22318
239.71        69.89861
240.17        70.05068
240.63        70.89476
241.08        73.67269
241.54        78.43018
242.00        86.63591
242.46        98.19904
242.91        109.6295
243.37        117.4613
243.83        120.8895
244.28        122.2749
244.74        122.7969
245.20        120.9928
245.66        117.8353
246.11        116.2529
246.57        117.3652
247.03        122.1711
247.48         126.315
247.94         120.513
248.40         107.411
248.85         93.5677
249.31        84.61171
249.77        81.91323
250.22        84.76625
250.68        93.39241
251.14         108.143
251.59        118.7244
252.05        115.9375
252.51        107.0138
252.96        99.42522
253.42         96.7157
253.88        97.28745
254.33         99.5569
254.79        102.2127
255.25        102.1885
255.70        99.27014
256.16        96.07863
256.62        93.76102
257.07        92.86148
257.53        93.48804
257.99        94.72755
258.44        95.35435
258.90        94.68974
259.35        92.40891
259.81        89.81717
260.27        87.43608
260.72        85.67845
261.18        84.70857
261.63        83.84763
262.09        82.88671
262.55        81.12025
263.00        78.59371
263.46        75.99974
263.91        73.53827
264.37        71.85452
264.83        70.80768
265.28        70.08745
265.74        69.63061
266.19        69.06349
266.65        68.38571
267.11        67.62003
267.56        66.74989
268.02        65.78139
268.47        64.65716
268.93        63.36922
269.38        61.91131
269.84        60.43061
270.30        59.00309
270.75        57.65549
271.21        56.40501
271.66        55.16317
272.12        53.91597
272.57        52.63678
273.03        51.42242
273.48        50.32391
273.94        49.42734
274.39        48.65667
274.85        47.95465
275.31        47.12307
275.76        46.11191
276.22        45.02098
276.67        43.95517
277.13        43.20737
277.58        42.73275
278.04        42.47836
278.49        42.18169
278.95        41.60001
279.40        40.64918
279.86        39.53514
280.31        38.38937
280.77        37.55308
281.22        37.04604
281.68        36.79452
282.13        36.68919
282.59         36.6563
283.04        36.61308
283.50        36.59665
283.95        36.51485
284.41        36.25817
284.86        35.81064
285.32        35.26342
285.77         34.7009
286.22        34.34221
286.68        34.23765
287.13         34.2784
287.59        34.42499
288.04        34.53969
288.50         34.5982
288.95        34.59752
289.41        34.55776
289.86        34.44589
290.32        34.31125
290.77        34.18035
291.22        34.09492
291.68        34.11179
292.13        34.25546
292.59        34.55716
293.04        35.10531
293.50        36.07059
293.95        37.44931
294.40         39.1898
294.86        41.08265
295.31         42.8065
295.77        44.26674
296.22        45.51871
296.68        46.74013
297.13        48.19458
297.58        49.94901
298.04        51.88356
298.49        53.82732
298.95        55.54074
299.40        56.96185
299.85        58.19727
300.31        59.41278
300.76        60.76089
301.21        62.33339
301.67        64.11281
302.12        65.98148
302.58        67.91644
303.03        69.84881
303.48        71.74337
303.94        73.68692
304.39        76.00906
304.84        78.27478
305.30        80.77512
305.75        83.14735
306.20        85.12285
306.66        86.67746
307.11        87.85301
307.57        88.92639
308.02        90.16705
308.47        91.69225
308.93        93.41415
309.38        95.16247
309.83        96.75334
310.29        98.12868
310.74         99.3396
311.19        100.4063
311.65        101.3411
312.10        102.1487
312.55        102.8373
313.00        103.5309
313.46        104.4348
313.91        105.5592
314.36         106.852
314.82        108.1324
315.27        109.1316
315.72        109.7534
316.18        110.0756
316.63        110.2148
317.08        110.3769
317.53        110.6477
317.99        111.0116
318.44        111.3967
318.89         111.705
319.35        111.9193
319.80        112.0739
320.25        112.3214
320.70        112.8971
321.16        113.7918
321.61        114.9635
322.06        116.0863
322.51        116.6485
322.97        116.5268
323.42         115.892
323.87        115.0882
324.32         114.689
324.78         114.834
325.23        115.4439
325.68        116.2583
326.13        116.8292
326.59        116.9994
327.04        116.9429
327.49        116.8718
327.94        117.1822
328.39        117.9512
328.85        118.9697
329.30        120.0366
329.75        120.5918
330.20        120.4939
330.66        119.9272
331.11        119.2104
331.56        118.7642
332.01        118.7645
332.46        119.1094
332.92        119.7088
333.37        120.5704
333.82        121.5614
334.27         122.677
334.72        123.8102
335.17        124.7761
335.63        125.4737
336.08        125.9862
336.53        126.2602
336.98        126.3198
337.43         126.221
337.88        125.9846
338.34        125.7948
338.79        125.9575
339.24        126.5243
339.69        127.4362
340.14        128.4588
340.59         129.171
341.05         129.468
341.50        129.4772
341.95        129.3822
342.40          129.51
342.85        129.9362
343.30        130.5076
343.75        131.1386
344.20        131.6987
344.66        132.1462
345.11        132.5693
345.56        132.8547
346.01        132.8036
346.46        132.4393
346.91        131.8238
347.36        131.3393
347.81        131.5714
348.26        132.5867
348.72        134.1714
349.17         135.853
349.62        136.7434
350.07        136.6179
350.52        135.7821
350.97        134.6834
351.42        134.0108
351.87        133.9614
352.32        134.3024
352.77        134.8897
353.22        135.5003
353.67        135.9974
354.13        136.4262
354.58        136.6692
355.03        136.5162
355.48        135.9374
355.93        134.9838
356.38        133.8013
356.83        132.6345
357.28        131.5757
357.73        130.5988
358.18        129.7002
358.63        128.8531
359.08        128.0441
359.53        127.2928
359.98        126.5841
360.43        125.8812
360.88        125.1683
361.33        124.4409
361.78        123.6819
362.23         122.876
362.68        122.0225
363.13        121.1241
363.58        120.2178
364.03        119.3599
364.48        118.5661
364.93        117.8316
365.38         117.119
365.83        116.3688
366.28        115.5737
366.73         114.751
367.18        113.9588
367.63        113.2844
368.08        112.7314
368.53        112.2638
368.98        111.7965
369.43        111.1892
369.88        110.4265
370.33        109.5798
370.78         108.728
371.23        108.0063
371.68        107.4505
372.13        106.9812
372.58        106.6148
373.03        106.3794
373.48        106.2256
373.93        106.1294
374.38        105.8742
374.83        105.1161
375.28        103.8457
375.72        102.2029
376.17        100.5928
376.62        99.42648
377.07        98.79585
377.52        98.55732
377.97        98.57015
378.42        98.59883
378.87        98.53012
379.32        98.40818
379.77        98.19211
380.22        97.81955
380.67         97.2808
381.11         96.5743
381.56        95.75133
382.01        94.94256
382.46        94.22016
382.91        93.59641
383.36        93.06483
383.81        92.59284
384.26        92.16155
384.71         91.7662
385.15        91.41917
385.60         91.1972
386.05        91.06628
386.50        90.99691
386.95        90.86452
387.40         90.4918
387.85        89.87925
388.29        89.05749
388.74        88.31782
389.19        87.83021
389.64         87.6257
390.09        87.60922
390.54        87.67205
390.98        87.65576
391.43        87.54609
391.88        87.27005
392.33        86.83695
392.78        86.57397
393.23        86.39669
393.67        85.60053
394.12        84.45055
394.57         84.3038
395.02        83.97932
395.47        84.10465
395.91        84.22133
396.36        84.27602
396.81        84.21522
397.26        84.06717
397.71        83.84686
398.15        83.50422
398.60        83.15285
399.05        82.76873
399.50        82.38941
399.95        82.13507
400.39        81.73436
400.84        81.81963
401.29        82.15025
401.74        82.15077
402.18         81.7565
402.63        81.23592
403.08        80.79079
403.53         80.5952
403.97        80.67978
404.42        80.96113
404.87        81.26525
405.32        81.28272
405.76        80.93824
406.21        80.48717
406.66        80.00269
407.11        79.39747
407.55        78.88599
408.00        78.82807
408.45        79.17809
408.90        79.68137
409.34        80.05919
409.79         79.7555
410.24        78.98902
410.68        78.72842
411.13        79.04307
411.58        79.34953
412.03         79.5124
412.47        79.59035
412.92        79.50489
413.37        79.27997
413.81        78.94166
414.26        78.61562
414.71        78.30499
415.15        78.00755
415.60        77.74543
416.05        77.60847
416.49         77.6197
416.94        77.75851
417.39         77.9438
417.83        78.01718
418.28        77.94672
418.73        77.77267
419.17        77.57903
419.62        77.51948
420.07         77.6013
420.51        77.74533
420.96         77.9015
421.41        77.87525
421.85        77.60514
422.30        77.44916
422.74        77.33538
423.19        76.78443
423.64        76.01628
424.08        76.14651
424.53        77.02637
424.98        77.43107
425.42        77.23441
425.87        77.20655
426.31        77.36177
426.76        77.11137
427.21        76.44512
427.65        76.51275
428.10        77.06352
428.54        76.97898
428.99        76.34197
429.44        75.75523
429.88        75.41903
430.33         75.6685
430.77        76.24256
431.22        76.57946
431.66        76.57316
432.11        76.31585
432.56        75.96654
433.00        75.87676
433.45        76.20034
433.89        76.72714
434.34        76.89561
434.78        78.29027
435.23        76.31203
435.67        75.62059
436.12         75.2263
436.57        75.13065
437.01        75.15105
437.46        76.17111
437.90        75.61401
438.35        76.03423
438.79        76.60932
439.24        76.90692
439.68        76.88357
440.13        76.98421
440.57        77.25665
441.02        77.21791
441.46        76.79037
441.91        77.24677
442.35         76.7636
442.80        76.62785
443.24        76.85855
443.69        76.72518
444.13        76.41074
444.58        76.22884
445.02        76.16553
445.47        76.06718
445.91        75.94973
446.36        75.94931
446.80        76.04674
447.24        76.22005
447.69        76.40363
448.13        76.46848
448.58        76.41209
449.02        76.25291
449.47        76.09261
449.91        76.04957
450.36        76.16553
450.80         76.3791
451.25        76.62587
451.69        76.76624
452.13        76.77242
452.58        76.71397
453.02        76.62482
453.47        76.54211
453.91        76.45776
454.36        76.51751
454.80        76.48035
455.24        76.42591
455.69        76.40717
456.13        76.50883
456.58        76.73119
457.02         76.1869
457.46        75.80125
457.91        75.58486
458.35        75.71239
458.79        75.67954
459.24         75.5094
459.68        75.50113
460.13        75.67307
460.57        75.61057
461.01         75.8528
461.46        75.82384
461.90        75.63156
462.34        75.98881
462.79        75.73756
463.23        75.57377
463.68        75.20893
464.12        74.96405
464.56        74.84358
465.01        74.55635
465.45        74.15657
465.89        74.10635
466.34        74.39116
466.78        74.60116
467.22        74.89717
467.67        74.78691
468.11          74.691
468.55        74.27593
468.99        73.78819
469.44        73.45484
469.88        73.33171
470.32        73.35661
470.77        73.45729
471.21        73.54855
471.65        73.58097
472.10        73.61143
472.54        73.62187
472.98         73.6216
473.42        73.61286
473.87        73.58449
474.31        73.54583
474.75        73.53569
475.20        73.53203
475.64        73.61762
476.08        73.79314
476.52        73.54952
476.97        72.88296
477.41        73.32278
477.85        72.59914
478.29         72.0249
478.74        72.27076
479.18        72.26046
479.62        72.35082
480.06        72.43102
480.50        72.48906
480.95        72.30756
481.39        73.14697
481.83        72.17876
482.27        73.14878
482.72        73.37174
483.16        73.18168
483.60        73.05106
484.04        73.42527
484.48        73.49394
484.93        73.24252
485.37        73.52906
485.81        72.22191
486.25        71.82479
486.69        72.66693
487.14        72.23796
487.58        72.02931
488.02        72.33028
488.46        73.38113
488.90         72.6617
489.34        71.98852
489.79        72.66058
490.23         72.1302
490.67        72.16354
491.11        71.87249
491.55        71.72755
491.99        71.72693
492.43        71.76875
492.88        71.86007
493.32        72.03457
493.76         72.2422
494.20        72.40585
494.64        72.49236
495.08        72.55128
495.52        72.58109
495.96        72.47679
496.41        72.26511
496.85         72.4224
497.29        72.11313
497.73         72.3079
498.17         72.2906
498.61        72.07364
499.05        71.64051
499.49        71.65292
499.93        72.03105
500.37        72.04403
500.82        71.71112
501.26        71.61722
501.70        71.77513
502.14        71.84247
502.58        71.82262
503.02        71.89056
503.46        72.05453
503.90        72.18266
504.34        72.38049
504.78        72.41788
505.22        72.30488
505.66        72.08467
506.10        71.88102
506.54        71.81771
506.98        71.82688
507.42        72.53296
507.86        71.90759
508.30        72.34801
508.74        71.94774
509.18        71.71243
509.62         71.3681
510.06        71.24622
510.50        71.40166
510.94        71.74004
511.38        72.12532
511.82        72.29852
512.26        72.20462
512.70        71.90557
513.14         71.5224
513.58        71.36641
514.02        71.51768
514.46        71.53799
514.90        71.68232
515.34        72.14703
515.78        71.84398
516.22        71.74461
516.66         71.5809
517.10        71.48711
517.54        71.47912
517.98        71.53401
518.42        71.60049
518.86        71.56752
519.30        71.41743
519.74        71.20232
520.18        70.99007
520.62        70.85105
521.06         70.8271
521.50        70.95823
521.93        71.17795
522.37         71.2998
522.81        71.29794
523.25        71.23051
523.69        71.18253
524.13        71.27303
524.57        71.51511
525.01         71.8547
525.45        72.16582
525.89         72.2481
526.32         72.0519
526.76        71.67784
527.20        71.24591
527.64         70.9437
528.08        70.82689
528.52        70.84122
528.96        70.94213
529.40        71.05663
529.83        71.14566
530.27        71.23792
530.71         71.3146
531.15        71.34984
531.59        71.33858
532.03         71.2782
532.46        71.17709
532.90        71.08672
533.34        71.01639
533.78        70.96626
534.22        70.93443
534.66        70.91306
535.09        70.89467
535.53        70.89759
535.97        70.92012
536.41        70.97345
536.85        71.05182
537.28        71.13828
537.72        71.21092
538.16        71.23141
538.60         71.1908
539.04        71.10505
539.47        70.97482
539.91        70.86068
540.35        70.76019
540.79        70.67686
541.22        70.61505
541.66        70.59248
542.10        70.60597
542.54        70.65739
542.97          70.727
543.41        70.80344
543.85        70.86861
544.29        70.93406
544.72        70.96559
545.16        70.95137
545.60        70.88799
546.04        70.75296
546.47        70.60309
546.91        70.63993
547.35        70.83521
547.79        70.93123
548.22        70.88042
548.66        70.98789
549.10        71.25343
549.53        71.29028
549.97        70.98885
550.41        71.64183
550.84        71.09922
551.28         71.0019
551.72        70.72248
552.15          70.853
552.59        70.51265
553.03        70.54469
553.46        70.48923
553.90        70.47212
554.34        70.56374
554.77        70.70389
555.21        70.88328
555.65        70.84155
556.08         70.6286
556.52        70.58906
556.96        70.72462
557.39        70.86964
557.83        71.00205
558.27        71.08296
558.70        71.11737
559.14        71.19877
559.57        71.27158
560.01         71.2636
560.45        71.19428
560.88        70.91988
561.32        70.85376
561.75        70.88853
562.19        71.07676
562.63        71.00169
563.06        70.71725
563.50         70.7392
563.93        70.99233
564.37        71.06446
564.80        70.91746
565.24         70.7923
565.68        70.71803
566.11        70.69631
566.55        70.73718
566.98        70.73112
567.42        70.74889
567.85        70.75886
568.29        70.74871
568.72        70.95559
569.16        71.49194
569.60        70.82085
570.03        71.06514
570.47        71.34417
570.90         71.2274
571.34        70.57841
571.77        71.06207
572.21        71.10185
572.64        71.19145
573.08        71.09026
573.51        70.87299
573.95        70.97186
574.38         71.2252
574.82        71.14836
575.25        71.03041
575.69        70.81684
576.12        70.69711
576.56        70.57735
576.99        70.74998
577.42        70.78422
577.86        70.79425
578.29        70.38898
578.73        71.16518
579.16        70.51784
579.60        71.13843
580.03        70.93243
580.47        71.41894
580.90        71.15231
581.33        70.58288
581.77        70.82888
582.20        70.76176
582.64        71.18492
583.07        70.49542
583.51        70.34846
583.94        70.58791
584.37        70.46711
584.81        70.16802
585.24        70.37156
585.68        70.62049
586.11        71.30491
586.54        70.50645
586.98        70.36655
587.41        71.23222
587.85        71.15964
588.28        71.07304
588.71        71.76523
589.15        70.64379
589.58        70.70448
590.01        70.42561
590.45        70.62488
590.88        71.08871
591.31        71.27702
591.75        71.46886
592.18        71.51775
592.61        71.80949
593.05        70.15603
593.48        70.99825
593.91        71.65417
594.35        70.39996
594.78        70.12513
595.21        70.57083
595.65        70.62624
596.08        70.40318
596.51        70.59998
596.94        70.87183
597.38        70.97673
597.81        70.75089
598.24        70.97124
598.68        70.54103
599.11        70.66994
599.54        71.34667
599.97        71.77544
600.41        69.87701
600.84        70.56613
601.27         70.3957
601.70        70.59346
602.14         70.9798
602.57         70.7299
603.00        70.20489
603.43        70.09958
603.87        70.25016
604.30        70.66787
604.73        70.42754
605.16        70.44467
605.60        70.47729
606.03         70.6757
606.46        70.83522
606.89        71.17348
607.32         70.6381
607.76        70.55894
608.19         70.6937
608.62        70.68832
609.05        70.58644
609.48        70.71444
609.92        71.00239
610.35        70.87797
610.78        71.22055
611.21        70.49541
611.64        70.58041
612.07        70.79675
612.50        70.55497
612.94        70.70409
613.37         70.9913
613.80         70.8532
614.23          71.366
614.66        71.36877
615.09        71.22741
615.52        71.12259
615.96        71.06828
616.39        71.00209
616.82        70.69743
617.25        70.67726
617.68        70.62168
618.11        70.68031
618.54        70.72969
618.97        70.75001
619.40        70.76549
619.84        70.59384
620.27        70.86633
620.70        70.91859
621.13        70.81201
621.56        70.94646
621.99        71.01557
622.42        70.23277
622.85        70.62484
623.28          70.704
623.71        71.30517
624.14        69.93988
624.57        71.01839
625.00        70.88773
625.43        70.81688
625.86        70.60563
626.29        70.53852
626.72        70.54996
627.15        70.55502
627.58        70.82413
628.01        71.17374
628.44         70.9764
628.87        70.39415
629.30        70.39764
629.73        70.91356
630.16        71.28331
630.59        70.86652
631.02        70.87427
631.45        70.85075
631.88        70.86076
632.31        70.81099
632.74        70.77645
633.17        70.74885
633.60        70.70572
634.03        70.65072
634.46        70.57202
634.89        70.50054
635.32        70.50279
635.75        70.58297
636.18        70.70461
636.61        70.82675
637.04        70.89702
637.47        70.90894
637.89        70.85255
638.32        70.70747
638.75        70.60303
639.18        70.57992
639.61         70.1282
640.04        70.18362
640.47        70.09962
640.90        70.15568
641.33        70.32359
641.76        70.54212
642.18        70.69071
642.61         70.7018
643.04        70.61487
643.47         70.5112
643.90        70.50362
644.33        70.60749
644.76         70.8707
645.18        71.16765
645.61        71.09916
646.04        70.57721
646.47        70.48625
646.90        70.73923
647.33        70.72066
647.75        70.40418
648.18        70.16451
648.61        70.08596
649.04        70.09841
649.47        70.21819
649.89        70.57381
650.32        70.98486
650.75        71.05022
651.18        70.82956
651.61        70.64657
652.03        70.64405
652.46        71.01773
652.89        71.46389
653.32        71.37348
653.74        70.93634
654.17        70.16342
654.60         69.6853
655.03        71.71004
655.46        69.68145
655.88        70.77316
656.31        71.90024
656.74        72.12352
657.16        71.65372
657.59        70.08281
658.02        69.82663
658.45        71.32687
658.87        71.23295
659.30        70.99125
659.73        71.54377
660.15        71.85405
660.58        71.38009
661.01        71.21402
661.44        71.11578
661.86        70.68156
662.29        70.06902
662.72         70.2271
663.14        70.98115
663.57        70.85619
664.00        70.00637
664.42        69.79005
664.85        70.26888
665.27         70.6568
665.70        70.83426
666.13         71.0068
666.55          71.146
666.98        71.18021
667.41        71.13168
667.83        71.03826
668.26        70.91108
668.69         70.7603
669.11        70.61933
669.54        70.52552
669.96        70.48521
670.39        70.53583
670.82        70.63309
671.24        70.59418
671.67        70.44492
672.09        70.46326
672.52        70.63268
672.94        70.76989
673.37        70.32014
673.80        70.67638
674.22        70.31802
674.65         70.4509
675.07        70.67933
675.50        71.00798
675.92        71.33023
676.35        71.47755
676.77        71.43268
677.20        71.18871
677.62        70.87756
678.05         70.7935
678.47        70.94235
678.90        71.08758
679.32        71.14697
679.75        71.15839
680.17        71.09076
680.60        70.90536
681.02         70.6752
681.45        70.55671
681.87        70.58321
682.30        70.70751
682.72        70.89555
683.15        70.98049
683.57        70.98438
684.00        71.09456
684.42        71.26783
684.85        71.31203
685.27        71.22224
685.70         71.0389
686.12        70.86646
686.54        71.04226
686.97        71.49425
687.39         71.8214
687.82        71.97247
688.24        72.03273
688.66         71.9905
689.09        71.71204
689.51        71.29417
689.94        70.98298
690.36        70.82951
690.78        70.77307
691.21        70.79457
691.63        70.86488
692.06        70.96181
692.48        71.10932
692.90        71.26778
693.33        71.35918
693.75        71.36903
694.17         71.2984
694.60        71.20492
695.02        71.17962
695.44        71.23438
695.87        71.42867
696.29        71.68254
696.71        71.60625
697.14        71.30478
697.56        71.26308
697.98        71.48721
698.41        71.56809
698.83          71.488
699.25         71.5023
699.68        71.57382
700.10        71.57599
700.52        71.48359
700.94        71.35054
701.37        71.20258
701.79        71.09702
702.21        71.04404
702.64        71.03844
703.06        71.07398
703.48         71.1545
703.90        71.27343
704.33        71.43443
704.75        71.58597
705.17        71.71533
705.59        71.78813
706.01         71.8152
706.44        71.80288
706.86        71.76968
707.28        71.72466
707.70        71.66862
708.12         71.6388
708.55        71.67321
708.97        71.77826
709.39        71.94136
709.81        72.12299
710.23        72.27042
710.66        72.35289
711.08        72.39156
711.50        72.40055
711.92        72.44181
712.34        72.52938
712.76        72.64636
713.19        72.73723
713.61        72.75984
714.03        72.68604
714.45        72.54536
714.87        72.40981
715.29        72.38396
715.71        72.48559
716.13        72.67958
716.56        72.87438
716.98        73.00447
717.40        73.00594
717.82        72.91133
718.24        72.76883
718.66        72.65657
719.08        72.60117
719.50        72.57944
719.92        72.57554
720.34        72.56474
720.76        72.53785
721.19        72.49845
721.61        72.46507
722.03         72.4356
722.45        72.40952
722.87        72.38066
723.29        72.34467
723.71        72.29677
724.13         72.2389
724.55        72.18005
724.97        72.12579
725.39        72.08198
725.81        72.05621
726.23        72.05105
726.65        72.07761
727.07        72.15469
727.49        72.27782
727.91        72.42693
728.33        72.58256
728.75        72.71296
729.17        72.80247
729.59        72.86342
730.01        72.87244
730.43        72.79293
730.85        72.63804
731.27        72.43432
731.69         72.2631
732.10        72.25315
732.52        72.42503
732.94        72.73466
733.36        73.10091
733.78        73.36298
734.20        73.45177
734.62        73.43224
735.04        73.44103
735.46        73.25327
735.88        72.98906
736.30        73.26407
736.72        73.54696
737.13        73.60762
737.55        73.24683
737.97        72.77948
738.39        72.38438
738.81        72.24863
739.23        72.41508
739.65        72.77162
740.06        73.13517
740.48        73.34721
740.90        73.33972
741.32        73.14045
741.74        72.86453
742.16        72.76156
742.57        72.90643
742.99        73.12279
743.41        73.34304
743.83        73.64404
744.25         73.8992
744.67        73.70917
745.08        73.22267
745.50        73.05816
745.92        73.29204
746.34        73.59656
746.75         73.8458
747.17        73.97285
747.59        73.93647
748.01        73.77097
748.42        73.56116
748.84        73.42808
749.26        73.42508
749.68        73.47918
750.09        73.54746
750.51        73.67268
750.93        73.78854
751.35         73.7557
751.76        73.61535
752.18        73.56249
752.60        73.61622
753.01         73.6755
753.43        73.70609
753.85        73.73264
754.27         73.7643
754.68        73.83305
755.10         73.9223
755.52        74.00018
755.93        74.03903
756.35        74.01614
756.77        74.04568
757.18        74.20438
757.60        74.48219
758.02        75.16438
758.43        75.92082
758.85        75.47847
759.26         74.1363
759.68        73.76695
760.10        74.39306
760.51        74.54535
760.93        74.19186
761.34        74.25661
761.76        74.65671
762.18        74.80264
762.59          74.659
763.01        74.30936
763.42         73.9049
763.84        73.69514
764.26        73.75085
764.67        73.86107
765.09        74.02283
765.50        74.36599
765.92        74.79401
766.33        74.96762
766.75        74.81584
767.16        74.77266
767.58        74.82068
768.00        74.67229
768.41        74.38059
768.83        74.33437
769.24        74.45202
769.66        74.27986
770.07        73.89469
770.49        73.74172
770.90        73.89834
771.32        74.32483
771.73        74.86202
772.15        75.08165
772.56          74.938
772.97         74.6723
773.39        74.32249
773.80        74.27465
774.22        74.52399
774.63        75.03016
775.05         75.5752
775.46        75.90112
775.88        75.89181
776.29        75.67043
776.70        75.32867
777.12        75.04039
777.53        74.87395
777.95        74.75815
778.36        74.71074
778.77        74.72388
779.19        74.78767
779.60        75.02924
780.02        75.32522
780.43        75.40337
780.84        75.31237
781.26        75.25488
781.67        75.34264
782.09        75.87654
782.50        76.63508
782.91        76.68591
783.33         76.0519
783.74        75.68011
784.15        75.62707
784.57        75.33132
784.98        74.88219
785.39        74.71624
785.81        74.87995
786.22        75.24184
786.63        75.71874
787.04        76.17475
787.46        76.54893
787.87        76.84805
788.28        77.06786
788.70        77.19364
789.11        77.22471
789.52        77.18625
789.93        77.08218
790.35        76.92135
790.76        76.73357
791.17        76.52367
791.58        76.38623
792.00        76.39697
792.41        76.57687
792.82        77.02356
793.23        77.56763
793.65        77.57183
794.06        77.15281
794.47        77.16694
794.88        77.55241
795.29        77.57758
795.71        77.20629
796.12        76.90057
796.53        76.78843
796.94        76.88741
797.35        77.22518
797.76        77.79131
798.18        78.38622
798.59        78.73256
799.00        78.73394
799.41        78.46572
799.82        78.06178
800.23        77.76647
800.64        77.66293
801.06        77.65617
801.47        77.74596
801.88        77.84259
802.29        77.90933
802.70        77.97691
803.11        78.03049
803.52         78.0321
803.93        77.98442
804.34        77.89331
804.75        77.78455
805.17        77.73946
805.58        77.81204
805.99        77.86241
806.40        77.90314
806.81         78.2086
807.22        78.64899
807.63        78.63026
808.04        78.23794
808.45        78.15218
808.86        78.43314
809.27        78.71104
809.68        78.86678
810.09        78.87813
810.50        78.71491
810.91        78.39193
811.32         78.0592
811.73        77.95535
812.14        78.13021
812.55        78.51569
812.96        78.96359
813.37        79.19143
813.78         79.1198
814.19        78.86155
814.60         78.5244
815.01        78.25696
815.42        78.10672
815.83        78.00819
816.24        78.00295
816.65        78.17303
817.05        78.50481
817.46        78.92923
817.87        79.30312
818.28          79.348
818.69        79.02696
819.10        78.42806
819.51        77.74213
819.92        77.33858
820.33        77.34166
820.74        77.62453
821.14        78.08775
821.55         78.5806
821.96        79.02166
822.37        79.47291
822.78        79.80476
823.19        79.78413
823.60        79.37504
824.00        78.62292
824.41        77.80553
824.82        77.40515
825.23        77.52398
825.64         78.0625
826.04        78.73821
826.45         78.9418
826.86        78.55285
827.27        77.76728
827.68        76.92066
828.08        76.56571
828.49        76.80039
828.90        77.48208
829.31        78.39649
829.72        79.17535
830.12        79.70358
830.53        79.99737
830.94        80.16434
831.35        80.34007
831.75        80.58471
832.16        80.74317
832.57        80.78876
832.97        80.65968
833.38        80.36287
833.79        80.01451
834.20        79.63917
834.60         79.2244
835.01        78.83392
835.42        78.44984
835.82        78.26449
836.23        78.52084
836.64         79.2603
837.04        80.41899
837.45        81.56319
837.86         82.1276
838.26         81.9503
838.67        81.20204
839.08        80.21078
839.48        79.47842
839.89        79.20277
840.29        79.23441
840.70        79.46644
841.11        79.74154
841.51        80.00685
841.92        80.27862
842.33        80.54878
842.73        80.76492
843.14        80.85751
843.54        80.86303
843.95        80.77951
844.35        80.69251
844.76        80.60233
845.17        80.46936
845.57        80.36134
845.98        80.34616
846.38        80.45103
846.79         80.6722
847.19        80.83224
847.60        80.57088
848.00        79.87328
848.41        78.87227
848.81        77.95583
849.22        77.70764
849.62          78.273
850.03        79.42855
850.43        80.84367
850.84        81.68854
851.24        81.76549
851.65        81.19429
852.05        80.31582
852.46        79.65531
852.86        79.37434
853.27        79.37634
853.67        79.41837
854.07        79.38549
854.48        79.18249
854.88        78.91261
855.29         78.5911
855.69        78.47134
856.10        78.51279
856.50        78.74281
856.90        78.96526
857.31        78.94606
857.71        78.69214
858.12        78.24454
858.52        77.81628
858.92        77.69308
859.33        77.92805
859.73        78.47604
860.13        79.14793
860.54         79.6515
860.94        79.93377
861.34        79.96596
861.75        79.78995
862.15        79.55373
862.55        79.27805
862.96        78.98454
863.36         78.5399
863.76        77.75926
864.17         76.6936
864.57         75.4645
864.97        74.42225
865.38        74.03439
865.78        74.41284
866.18        75.40623
866.58        76.68351
866.99        77.53097
867.39        77.73558
867.79        77.45937
868.19        76.89826
868.60        76.35994
869.00        75.97001
869.40        75.60532
869.80        75.44682
870.21        75.80437
870.61        76.72237
871.01        78.06966
871.41        79.36022
871.81         79.8062
872.22        79.24356
872.62        77.90414
873.02        76.28864
873.42        75.25954
873.82        75.08452
874.22        75.54572
874.63        76.29035
875.03        76.75629
875.43        76.78996
875.83        76.56652
876.23        76.34304
876.63        76.52908
877.03        77.19418
877.44         78.1041
877.84        79.00155
878.24        79.39136
878.64         79.1693
879.04        78.55603
879.44        77.77997
879.84        77.16293
880.24        76.80703
880.64        76.59079
881.04         76.5761
881.44        76.85875
881.84        77.41791
882.24        78.26605
882.65        79.04984
883.05        79.28666
883.45        78.82635
883.85        77.85882
884.25        76.87616
884.65        76.63942
885.05        77.28339
885.45        78.51688
885.85        79.96439
886.25        80.97564
886.65        81.29685
887.05        81.14233
887.45        80.51743
887.85         79.4604
888.25        78.15857
888.65        76.69881
889.04        75.44009
889.44          74.936
889.84        75.19128
890.24        76.09843
890.64        77.34638
891.04         78.2288
891.44        78.46487
891.84        78.25103
892.24        77.83353
892.64        77.58158
893.04        77.59225
893.44        77.71712
893.83        77.97649
894.23        78.33316
894.63        78.77447
895.03        79.33527
895.43        79.85336
895.83        80.06557
896.23        79.92943
896.63        79.47413
897.02        78.94767
897.42        78.83517
897.82        79.21035
898.22        79.96539
898.62        80.70681
899.01        80.78709
899.41        80.07013
899.81         78.7941
900.21        77.46174
900.61         76.8377
901.00        77.08545
901.40        77.96469
901.80        79.02196
902.20        79.50724
902.59        79.21744
902.99        78.40459
903.39        77.43593
903.79         76.8521
904.18        76.79755
904.58        77.11855
904.98         77.5903
905.38        77.89521
905.77        77.91103
906.17        77.72862
906.57        77.50642
906.96         77.5136
907.36         77.7696
907.76        78.21921
908.15        78.60529
908.55          78.384
908.95        77.55879
909.34        76.33591
909.74        75.27192
910.14        75.07288
910.53        75.90553
910.93        77.46461
911.33          79.385
911.72        81.09456
912.12        82.26653
912.52         83.0439
912.91        83.43006
913.31        83.43275
913.70        83.11974
914.10        82.44568
914.49        81.55186
914.89        80.66415
915.29        79.89069
915.68        79.25587
916.08        78.81474
916.47        78.47313
916.87        78.25985
917.26        78.16091
917.66        78.22108
918.05        78.53366
918.45         79.0279
918.84        79.69694
919.24        80.27586
919.64        80.48911
920.03        80.28064
920.42        79.72011
920.82        79.07554
921.21         78.6608
921.61        78.58138
922.00        78.76691
922.40        79.10365
922.79        79.48109
923.19        79.79675
923.58        80.10224
923.98        80.36384
924.37        80.53772
924.77        80.61102
925.16        80.58235
925.55        80.47851
925.95        80.36293
926.34        80.28397
926.74         80.2263
927.13        80.18293
927.52         80.0973
927.92        79.96998
928.31        79.80339
928.70         79.6564
929.10        79.60526
929.49        79.65685
929.89        79.73927
930.28        79.79179
930.67        79.62847
931.07        79.22527
931.46         78.6955
931.85         78.1231
932.24        77.62333
932.64        77.26924
933.03        77.06735
933.42        77.09507
933.82        77.45731
934.21        78.15631
934.60        79.04934
934.99        80.04121
935.39        80.95583
935.78        81.75337
936.17        82.44172
936.56        82.69611
936.96        82.06809
937.35        80.60584
937.74        78.56044
938.13        76.69171
938.53        75.96644
938.92        76.48787
939.31        78.06295
939.70         80.0286
940.09         81.0685
940.49         80.7487
940.88        79.46088
941.27        77.91937
941.66        77.19462
942.05        77.53815
942.44        78.66779
942.84        79.99546
943.23         80.5619
943.62        80.03238
944.01        78.74693
944.40        77.43968
944.79        77.16589
945.18        78.12875
945.57        79.99862
945.97        81.96415
946.36        82.88081
946.75        82.30499
947.14        80.63754
947.53        78.69965
947.92        77.71714
948.31         78.0111
948.70        79.26465
949.09        80.82611
949.48        81.52792
949.87        81.01998
950.26        79.67657
950.65        78.23419
951.04        77.70075
951.43        78.28194
951.82        79.70544
952.21        81.25742
952.60         81.6636
952.99        80.60957
953.38        78.55559
953.77        76.48552
954.16        75.68995
954.55        76.41394
954.94        78.38545
955.33        80.75666
955.72        81.69154
956.11        80.58022
956.50        78.07438
956.89        75.45201
957.28        74.37141
957.66        75.19582
958.05        77.36436
958.44         80.0398
958.83        81.51064
959.22        81.17175
959.61        79.64452
960.00        77.77786
960.39        76.63148
960.78        76.42513
961.16        76.83936
961.55        77.49139
961.94        77.78584
962.33        77.50485
962.72        76.97524
963.11         76.4063
963.49        76.02342
963.88         75.9091
964.27        75.94031
964.66        76.19157
965.04        76.87419
965.43         77.8735
965.82        79.13692
966.21        80.34861
966.60         80.9228
966.98        80.73295
967.37        80.03384
967.76        79.09353
968.15        78.27226
968.53        77.67065
968.92        77.10974
969.31         76.8188
969.69         77.2451
970.08        78.36665
970.47        80.20588
970.86        81.94999
971.24        82.18652
971.63        80.64034
972.02        77.83585
972.40        75.01592
972.79        74.12453
973.17        75.50169
973.56        78.42825
973.95         81.9189
974.33        84.09344
974.72        84.20946
975.11         82.8824
975.49        80.86875
975.88        79.62366
976.26        79.53429
976.65        80.07826
977.04        80.88398
977.42        81.31226
977.81        80.99284
978.19        80.33407
978.58        79.55379
978.96        78.82373
979.35        78.30618
979.74        77.93649
980.12        77.87724
980.51        78.37178
980.89        79.48041
981.28        80.92138
981.66         82.5978
982.05        84.03565
982.43        85.16209
982.82         86.0054
983.20        86.27116
983.59        85.38854
983.97        83.44826
984.35        80.70924
984.74        78.28748
985.12        77.68408
985.51        79.06539
985.89        82.10802
986.28         85.5101
986.66        87.42471
987.04        87.12976
987.43        85.15159
987.81        82.45556
988.20        81.04208
988.58        81.43993
988.96        83.10028
989.35        84.83015
989.73        84.94353
990.12        82.98245
990.50        79.69927
990.88        76.11797
991.27        73.85426
991.65        73.33347
992.03         74.0731
992.42        75.56165
992.80        77.32973
993.18        79.01241
993.56        80.78453
993.95        82.29655
994.33        83.04474
994.71        82.81934
995.10        81.81912
995.48        80.51665
995.86        79.75241
996.24        79.76341
996.63        80.23287
997.01        81.24493
997.39        82.64194
997.77        84.18807
998.15        85.89703
998.54        87.20024
998.92        87.23869
999.30         85.8856
999.68        83.36061
1000.06        80.47696
1000.45        78.81647
1000.83          79.003
1001.21        80.60344
1001.59        83.00169
1001.97        85.09039
1002.35        86.42057
1002.73        87.29082
1003.12        87.61759
1003.50        87.19794
1003.88        86.16008
1004.26        84.54064
1004.64        82.85508
1005.02        82.07413
1005.40        82.40117
1005.78        83.50047
1006.16        84.91614
1006.54        85.97894
1006.92        86.50121
1007.30        86.70332
1007.69        86.46003
1008.07        85.73118
1008.45        84.55302
1008.83         82.9868
1009.21        81.56406
1009.59        81.18843
1009.97        82.02814
1010.35        83.75077
1010.73        85.87183
1011.11        87.54237
1011.49        88.41331
1011.86        88.77653
1012.24        88.34952
1012.62        86.91048
1013.00        84.50263
1013.38        81.08896
1013.76        77.43375
1014.14        75.26602
1014.52        75.24886
1014.90        77.07058
1015.28        79.59852
1015.66        80.89548
1016.04        80.43723
1016.41        78.82233
1016.79        76.61894
1017.17        75.17212
1017.55        75.00382
1017.93         75.5178
1018.31        76.46443
1018.69         77.8216
1019.06        79.74824
1019.44        82.42023
1019.82        85.82359
1020.20        88.49754
1020.58         89.0633
1020.95        87.58953
1021.33         85.1525
1021.71        82.77393
1022.09        80.46882
1022.46        77.69958
1022.84        74.68726
1023.22        72.07132
1023.60        70.80438
1023.97        71.07459
1024.35        72.32951
1024.73        73.85964
