SpectraSmart Spectrum 2.9.0.0
--------- Device Information -----------
Spectrum Name :  反射率_0
Saving Time :  2024/04/30 00:38:22
Spectro-Module Model Name : SE2030-DUVN
Spectro-Module Serial Number : OS361AC55029948
Wavelength Start : 200
Wavelength End : 1025
Wavelength Unit : Wavelength(nm)
Spectrum Unit : Reflectance(%)
-----------Spectrum Setting ------------
Integration Time : 20ms
Average : 10
Boxcar : 0
Background removal :  enabled
linearity correction :  enabled
SC :  disabled
Intensity correction :  disabled
DWT denoise :  enabled
savitzky-golay :  disabled
FFT :  disabled
Running average :  disabled
Kalman :  disabled
High pass :  disabled
---------------BEGIN--------------------
Wavelength(nm)             Reflectance(%)
200.29               0
200.75        111.3851
201.21         92.5384
201.67        71.91106
202.13         54.2711
202.58        42.31398
203.04         35.6007
203.50        35.29144
203.96        42.56676
204.42        56.47667
204.88        75.45327
205.34        92.94231
205.80        99.65083
206.26        95.80465
206.72        86.78485
207.18        76.72023
207.64         67.6395
208.10        59.17258
208.55         50.2048
209.01        41.66547
209.47        37.70335
209.93        39.40813
210.39        44.87635
210.85        50.71976
211.31        54.22693
211.77        55.41057
212.23        54.62321
212.69        53.06315
213.14        55.06613
213.60        60.57174
214.06        66.78718
214.52        70.62325
214.98        70.29324
215.44        66.53243
215.90        60.30256
216.36        53.60245
216.81        50.44101
217.27        52.95159
217.73        61.01991
218.19        74.18967
218.65        85.75858
219.11        89.54647
219.57        87.04519
220.02        81.92427
220.48        77.51991
220.94        73.38804
221.40        67.94592
221.86        60.90747
222.32        54.96714
222.77        52.58332
223.23        53.54028
223.69        55.12953
224.15        55.41993
224.61        54.40736
225.06        52.34089
225.52        50.55264
225.98        51.45951
226.44         54.8188
226.90        58.73139
227.36         61.4598
227.81        61.86469
228.27        60.27285
228.73         57.1023
229.19         53.3129
229.65        51.16709
230.10        51.34552
230.56        52.88741
231.02         54.5322
231.48        55.22856
231.93        54.85769
232.39        53.84386
232.85        52.66714
233.31        52.24644
233.77         52.8638
234.22         54.3914
234.68        55.94049
235.14         55.9989
235.60        54.33266
236.05        51.53249
236.51        49.13296
236.97        49.10548
237.43        51.99767
237.88        57.99583
238.34        66.14529
238.80        72.80759
239.26        75.04444
239.71        73.30175
240.17        69.65018
240.63        67.65804
241.08         68.6131
241.54        72.34568
242.00        79.63448
242.46        88.21591
242.91        93.69864
243.37        94.59322
243.83        93.39587
244.28        94.47163
244.74        98.80683
245.20        105.0145
245.66        112.1479
246.11        117.7224
246.57        119.8965
247.03        120.7778
247.48        118.5005
247.94        110.0259
248.40        99.43602
248.85        89.75237
249.31        85.03524
249.77        86.83176
250.22        95.28592
250.68        112.3197
251.14        138.2916
251.59        154.1441
252.05        145.0098
252.51        125.5331
252.96         109.135
253.42        100.4115
253.88        96.24632
254.33        93.93798
254.79        92.52915
255.25        90.55612
255.70        87.97732
256.16        86.18643
256.62        85.14235
257.07        84.59064
257.53        84.71181
257.99        84.98568
258.44        84.63714
258.90        83.56007
259.35        81.53848
259.81        79.50977
260.27        77.72128
260.72        76.38415
261.18        75.63461
261.63        74.90491
262.09        74.14626
262.55         72.8868
263.00        71.11192
263.46        69.33762
263.91        67.52212
264.37        65.99245
264.83        64.64894
265.28        63.33719
265.74        62.25753
266.19        61.45293
266.65        60.99013
267.11        60.75541
267.56        60.50667
268.02        59.92398
268.47        58.89528
268.93        57.51505
269.38         55.9398
269.84        54.58447
270.30        53.57189
270.75        52.80216
271.21        52.12364
271.66        51.23424
272.12        50.08569
272.57        48.75669
273.03        47.42901
273.48        46.28638
273.94        45.45397
274.39        44.79504
274.85         44.2669
275.31        43.71053
275.76        43.04806
276.22        42.35376
276.67        41.60659
277.13        40.90261
277.58         40.1989
278.04        39.53397
278.49        38.80869
278.95        38.00591
279.40        37.08803
279.86        36.17043
280.31        35.30476
280.77          34.702
281.22        34.33804
281.68        34.17494
282.13        34.09842
282.59        34.01762
283.04        33.86348
283.50         33.6713
283.95         33.4023
284.41        33.03046
284.86        32.55859
285.32        32.05261
285.77        31.54843
286.22        31.18319
286.68        30.99086
287.13        30.89135
287.59        30.88374
288.04        30.89412
288.50        30.91004
288.95        30.90931
289.41        30.87074
289.86        30.71046
290.32        30.45916
290.77        30.15144
291.22        29.86267
291.68        29.70698
292.13        29.71795
292.59        29.90167
293.04        30.28786
293.50        30.95185
293.95        31.87828
294.40        33.04718
294.86        34.32533
295.31        35.51319
295.77        36.55369
296.22        37.48005
296.68        38.40696
297.13        39.49901
297.58        40.79939
298.04        42.21615
298.49        43.65931
298.95        44.99947
299.40         46.1982
299.85        47.32536
300.31         48.4299
300.76        49.50556
301.21        50.61276
301.67        51.77187
302.12         53.0192
302.58        54.55787
303.03        56.36403
303.48        58.29858
303.94        60.25103
304.39        62.40984
304.84        64.06335
305.30        65.80915
305.75        67.44895
306.20        69.06594
306.66        70.69323
307.11        72.25227
307.57        73.81821
308.02        75.39148
308.47        77.01363
308.93        78.69144
309.38        80.34256
309.83        81.90512
310.29        83.36082
310.74        84.71097
311.19        85.96923
311.65        87.15131
312.10        88.25201
312.55          89.277
313.00        90.29839
313.46        91.43462
313.91        92.67774
314.36        93.99125
314.82        95.24979
315.27        96.27644
315.72        97.00525
316.18        97.49927
316.63        97.82346
317.08        98.10064
317.53        98.39747
317.99        98.71507
318.44        99.06226
318.89        99.46458
319.35        99.92151
319.80        100.4288
320.25        101.0064
320.70        101.6773
321.16        102.3958
321.61        103.1851
322.06        103.8896
322.51        104.2839
322.97        104.3192
323.42        104.0696
323.87        103.7302
324.32        103.6382
324.78        103.8631
325.23        104.3895
325.68        105.0224
326.13        105.4239
326.59        105.4868
327.04        105.3483
327.49        105.2118
327.94        105.4589
328.39        106.1648
328.85        107.1466
329.30          108.21
329.75        108.8173
330.20        108.8209
330.66        108.3799
331.11        107.7787
331.56        107.3987
332.01        107.3993
332.46        107.6914
332.92        108.1797
333.37        108.8496
333.82        109.5898
334.27        110.4138
334.72        111.2855
335.17        112.1338
335.63        112.8893
336.08        113.5969
336.53         114.139
336.98        114.4159
337.43        114.4332
337.88        114.2333
338.34        114.0168
338.79        114.1229
339.24         114.623
339.69        115.4531
340.14         116.392
340.59        117.0444
341.05        117.3181
341.50        117.3418
341.95        117.3133
342.40         117.571
342.85        118.1848
343.30        118.9934
343.75        119.8648
344.20         120.596
344.66        121.1263
345.11         121.555
345.56        121.8197
346.01        121.8066
346.46        121.5589
346.91        121.1169
347.36        120.8057
347.81        121.1264
348.26        122.1314
348.72        123.6331
349.17        125.2254
349.62        126.1355
350.07        126.1589
350.52        125.5583
350.97        124.6893
351.42        124.1032
351.87         123.976
352.32        124.1333
352.77        124.5155
353.22        125.0337
353.67        125.5929
354.13        126.1952
354.58        126.6875
355.03         126.803
355.48        126.4765
355.93        125.7646
356.38        124.7907
356.83        123.7657
357.28        122.7811
357.73        121.8224
358.18        120.9084
358.63        120.0537
359.08        119.2633
359.53         118.552
359.98        117.9243
360.43        117.3663
360.88         116.864
361.33        116.4136
361.78         115.952
362.23        115.3885
362.68         114.707
363.13        113.9215
363.58        113.1301
364.03        112.4949
364.48        112.0408
364.93         111.714
365.38        111.3868
365.83        110.8565
366.28        110.0836
366.73        109.1418
367.18        108.1543
367.63        107.3098
368.08        106.6542
368.53         106.127
368.98        105.6558
369.43        105.1184
369.88        104.4906
370.33        103.8411
370.78        103.1964
371.23         102.598
371.68        102.0608
372.13        101.5321
372.58        101.0742
373.03        100.7956
373.48        100.6748
373.93        100.6629
374.38        100.5372
374.83         99.9419
375.28        98.84596
375.72        97.38289
376.17        95.92189
376.62        94.83062
377.07        94.19492
377.52        93.88699
377.97        93.78339
378.42        93.68325
378.87        93.49612
379.32        93.26766
379.77        92.98005
380.22        92.59856
380.67         92.1174
381.11        91.53352
381.56        90.86623
382.01        90.18765
382.46        89.55025
382.91         88.9707
383.36        88.47624
383.81        88.09211
384.26        87.80539
384.71         87.5875
385.15        87.39822
385.60        87.23208
386.05        87.04472
386.50        86.84299
386.95        86.56153
387.40        86.11365
387.85        85.52155
388.29        84.78484
388.74        84.15407
389.19         83.7523
389.64        83.59308
390.09        83.59977
390.54        83.66144
390.98        83.59497
391.43        83.38678
391.88         83.0323
392.33        82.55967
392.78        82.18317
393.23        81.89368
393.67        81.28232
394.12        80.49446
394.57         80.4488
395.02        79.98935
395.47        79.89396
395.91        79.80811
396.36        79.75116
396.81        79.70921
397.26        79.68846
397.71        79.61633
398.15        79.32812
398.60        78.91492
399.05         78.3668
399.50        77.81351
399.95        77.56516
400.39        77.35853
400.84        77.60664
401.29         78.0172
401.74        78.07441
402.18        77.68873
402.63        77.05521
403.08        76.44505
403.53        76.18671
403.97        76.34156
404.42        76.79053
404.87        77.27383
405.32        77.36533
405.76         76.9675
406.21          76.312
406.66        75.60218
407.11        75.08463
407.55        74.93503
408.00        75.15659
408.45         75.6226
408.90        76.16169
409.34        76.51454
409.79        76.18704
410.24        75.43449
410.68        75.18373
411.13        75.52052
411.58        75.94173
412.03         76.2589
412.47        76.37644
412.92        76.19484
413.37        75.79496
413.81        75.28722
414.26        74.91022
414.71        74.68783
415.15        74.57697
415.60        74.52348
416.05        74.48621
416.49        74.45488
416.94        74.45719
417.39        74.47672
417.83        74.46243
418.28        74.41227
418.73        74.32089
419.17        74.25912
419.62        74.36404
420.07        74.63541
420.51        75.00339
420.96        75.35545
421.41        75.47259
421.85        75.29535
422.30        74.97618
422.74         74.5755
423.19        74.29192
423.64        74.14407
424.08        74.10714
424.53        74.14117
424.98        74.24622
425.42        74.39783
425.87        74.63013
426.31         74.8513
426.76        74.78732
427.21        74.31217
427.65        74.26107
428.10         74.4997
428.54        74.15553
428.99        73.43082
429.44        73.27132
429.88        73.64549
430.33        73.85554
430.77        73.81137
431.22        74.16626
431.66        74.76159
432.11        74.60783
432.56        73.86591
433.00        73.66022
433.45        74.14993
433.89        74.62148
434.34        75.05525
434.78        75.78413
435.23        74.65295
435.67        74.08952
436.12        73.76651
436.57        73.80138
437.01         73.9922
437.46        75.02572
437.90        74.44906
438.35        74.66807
438.79        74.97427
439.24        75.27716
439.68        75.49503
440.13        75.48395
440.57        75.33203
441.02        75.37245
441.46        75.59585
441.91        75.79154
442.35        75.82011
442.80        75.97649
443.24        76.11693
443.69        75.78377
444.13        75.12093
444.58        74.77109
445.02        74.71564
445.47        74.76696
445.91        74.87331
446.36         74.8649
446.80        74.65092
447.24        75.15068
447.69        74.84243
448.13         74.9362
448.58         75.0061
449.02        75.10178
449.47        75.21819
449.91          75.307
450.36        75.38961
450.80        75.45452
451.25        75.52358
451.69        75.58324
452.13        75.63575
452.58        75.70684
453.02        75.76402
453.47        75.75228
453.91        75.64403
454.36        75.62653
454.80        75.42714
455.24        75.42076
455.69        75.43079
456.13        75.51184
456.58        75.77423
457.02        74.71354
457.46        75.31337
457.91        75.06236
458.35        74.84083
458.79        74.71744
459.24        74.75056
459.68        74.90115
460.13        75.06723
460.57        74.92488
461.01         75.0187
461.46        74.51875
461.90        73.80369
462.34        74.40456
462.79        74.98415
463.23        74.90638
463.68        73.94614
464.12        73.51602
464.56        73.64857
465.01        73.68704
465.45        73.57197
465.89        73.40051
466.34        73.21454
466.78        73.71926
467.22         74.0448
467.67        74.02911
468.11        73.70799
468.55        73.25919
468.99        72.89041
469.44         72.5728
469.88        72.36882
470.32        72.33873
470.77        72.40933
471.21        72.45141
471.65        72.40919
472.10        72.32785
472.54        72.26112
472.98        72.28184
473.42        72.38289
473.87        72.68272
474.31        73.01072
474.75        72.77046
475.20        72.13957
475.64        72.03684
476.08        72.42974
476.52        72.41117
476.97        71.94759
477.41        71.68476
477.85        71.80779
478.29         71.2203
478.74        72.08163
479.18         72.0058
479.62        71.67776
480.06        71.61228
480.50         71.8346
480.95        71.58998
481.39        72.03687
481.83        71.62218
482.27        71.99961
482.72        72.44147
483.16        72.37498
483.60        72.42297
484.04        72.59627
484.48        72.66297
484.93        72.65492
485.37         72.4671
485.81         71.5034
486.25        71.32064
486.69        72.84235
487.14        72.21363
487.58        71.05626
488.02        71.90974
488.46        72.17966
488.90        71.76618
489.34        71.18924
489.79        72.07969
490.23        71.09792
490.67        71.38272
491.11        71.69254
491.55        71.43221
491.99        70.71777
492.43        70.47436
492.88        70.78671
493.32        71.15539
493.76        71.44172
494.20        71.65887
494.64        71.75201
495.08        71.71276
495.52        71.59287
495.96        71.44833
496.41        71.32406
496.85        71.28671
497.29        71.29531
497.73        71.09692
498.17        71.01815
498.61        70.68996
499.05        70.34254
499.49        70.35356
499.93        70.64775
500.37        70.77586
500.82        70.71922
501.26        70.71303
501.70        70.71577
502.14        71.05894
502.58        70.80514
503.02        70.90443
503.46        71.08165
503.90        71.31229
504.34        71.52099
504.78        71.59735
505.22        71.50282
505.66        71.31603
506.10        71.13734
506.54        70.97486
506.98        70.82836
507.42        71.43178
507.86        71.03091
508.30        71.45631
508.74        70.89674
509.18        70.51347
509.62        70.08279
510.06        69.92385
510.50        70.09754
510.94        70.50768
511.38         70.9847
511.82        71.21064
512.26        71.10699
512.70        70.77084
513.14        70.33933
513.58        70.08362
514.02        70.08159
514.46        70.14102
514.90        70.15564
515.34        70.56977
515.78        70.37189
516.22        70.38083
516.66        70.34515
517.10        70.33817
517.54        70.36544
517.98        70.41245
518.42        70.45104
518.86        70.41826
519.30        70.30914
519.74        70.14994
520.18        69.99384
520.62         69.9166
521.06        69.93925
521.50        70.04839
521.93        70.20526
522.37        70.30444
522.81        70.32451
523.25        70.31022
523.69         70.3221
524.13        70.29364
524.57        70.49524
525.01        70.68711
525.45        70.85823
525.89        70.86253
526.32        70.66943
526.76        70.35127
527.20        70.01356
527.64        69.83044
528.08        69.83953
528.52        69.98131
528.96         70.1739
529.40        70.29491
529.83        70.29547
530.27        70.20565
530.71         70.0657
531.15        69.96349
531.59        69.92239
532.03        69.90524
532.46        69.88911
532.90        69.87696
533.34        69.85661
533.78        69.83741
534.22        69.82392
534.66        69.81788
535.09        69.81377
535.53        69.82444
535.97        69.83511
536.41        69.83968
536.85        69.83551
537.28        69.81817
537.72        69.79876
538.16        69.78919
538.60          69.788
539.04        69.79073
539.47        69.76535
539.91        69.72052
540.35        69.64035
540.79        69.54638
541.22        69.45097
541.66        69.38578
542.10        69.35789
542.54        69.36388
542.97        69.40464
543.41        69.50149
543.85        69.63805
544.29        69.81506
544.72        69.96277
545.16        70.01099
545.60        69.94359
546.04        69.75517
546.47        69.53204
546.91        69.52479
547.35        69.71819
547.79        69.83854
548.22        69.82336
548.66        69.94911
549.10        70.21135
549.53        70.24546
549.97        69.93758
550.41        70.55962
550.84        70.00209
551.28        69.84459
551.72        69.50451
552.15        69.71568
552.59        69.59788
553.03        69.69089
553.46        69.72344
553.90        69.78001
554.34        69.82727
554.77        69.86512
555.21        69.89515
555.65         69.7917
556.08        69.61078
556.52        69.66321
556.96        69.89141
557.39        69.98228
557.83        69.94569
558.27        69.95282
558.70        70.03419
559.14        70.16921
559.57        70.29755
560.01        70.38239
560.45        70.40467
560.88        70.19502
561.32        70.13676
561.75        70.02717
562.19        69.98363
562.63        69.85017
563.06        69.66855
563.50        69.70383
563.93        69.87717
564.37        69.93691
564.80         69.8425
565.24        69.74585
565.68         69.6707
566.11        69.65341
566.55        69.70598
566.98        69.70084
567.42        69.72263
567.85        69.78263
568.29        69.85695
568.72         70.1379
569.16        70.74427
569.60        70.12014
570.03        70.37639
570.47        70.76077
570.90         70.9516
571.34        70.09518
571.77        70.76632
572.21        70.76321
572.64        70.83966
573.08         70.7765
573.51        70.40677
573.95        70.66687
574.38        71.26534
574.82        71.27719
575.25        71.13563
575.69        70.76385
576.12        70.32542
576.56        70.35432
576.99        70.29445
577.42        70.29996
577.86        70.37272
578.29        70.50512
578.73          70.923
579.16        70.64471
579.60        70.32662
580.03        70.31552
580.47        70.70882
580.90        71.31362
581.33        70.43846
581.77        70.53371
582.20        70.62298
582.64        71.46647
583.07        70.74658
583.51        70.36572
583.94        70.01279
584.37        69.71091
584.81        69.72462
585.24        70.28085
585.68        70.63808
586.11        71.28115
586.54        70.56803
586.98        69.93756
587.41        70.51242
587.85        71.01555
588.28        70.95011
588.71        71.29793
589.15        70.37437
589.58        70.65812
590.01        70.19204
590.45        70.29166
590.88        70.52689
591.31        70.66109
591.75          70.464
592.18        70.62433
592.61        71.21021
593.05        69.64929
593.48        70.43403
593.91        71.39279
594.35        70.25351
594.78        69.98513
595.21        69.48624
595.65         70.4221
596.08        69.70756
596.51        69.99307
596.94        70.27508
597.38        70.40439
597.81        70.24071
598.24        70.45078
598.68         70.2625
599.11         69.8074
599.54        71.14466
599.97         71.2026
600.41        69.84769
600.84        70.24883
601.27        70.03402
601.70        70.37227
602.14        70.44082
602.57        70.21513
603.00         69.7641
603.43         69.7562
603.87        70.01164
604.30        70.27152
604.73        70.16711
605.16        70.17723
605.60        70.20033
606.03        70.25906
606.46        70.26833
606.89        70.48013
607.32        70.37342
607.76        70.39861
608.19        70.48381
608.62        70.39155
609.05        70.09999
609.48         70.4497
609.92        70.49081
610.35        69.77303
610.78         70.6699
611.21        70.02874
611.64        70.12222
612.07         70.4213
612.50        70.66418
612.94        70.78792
613.37        70.92708
613.80        70.75093
614.23        70.78672
614.66        70.67268
615.09        70.56522
615.52        70.49656
615.96        70.40919
616.39        70.48723
616.82        69.84467
617.25         70.1491
617.68        69.81605
618.11        70.10162
618.54        70.28561
618.97        70.17106
619.40        69.79734
619.84        69.66595
620.27        69.85326
620.70        70.18069
621.13        70.53242
621.56        70.23004
621.99        70.00626
622.42        69.69669
622.85         70.2564
623.28         69.7952
623.71        70.46415
624.14        69.59701
624.57        70.22758
625.00        70.10131
625.43        70.09513
625.86         69.9546
626.29        69.73447
626.72        69.93531
627.15        69.74157
627.58        69.90411
628.01        70.10448
628.44        69.98914
628.87        69.64658
629.30        69.69941
629.73        70.11587
630.16        70.28336
630.59        70.12802
631.02        70.18964
631.45        70.15726
631.88        70.15114
632.31         70.0787
632.74         69.9895
633.17        69.89494
633.60        69.79416
634.03        69.69154
634.46        69.62582
634.89        69.62178
635.32        69.44745
635.75        69.55011
636.18        69.55352
636.61        69.57167
637.04        69.57565
637.47        69.57793
637.89        69.53784
638.32        69.42287
638.75        69.40535
639.18        69.52649
639.61        69.06326
640.04         69.2887
640.47        69.24136
640.90        69.29948
641.33        69.43071
641.76        69.58777
642.18        69.67265
642.61        69.63094
643.04        69.49032
643.47        69.33061
643.90        69.30888
644.33        69.45423
644.76        69.61697
645.18        70.01957
645.61        69.97871
646.04        69.50608
646.47        69.45734
646.90        69.75816
647.33        69.81208
647.75        69.58678
648.18        69.45332
648.61        69.45609
649.04        69.46347
649.47        69.48073
649.89         69.6583
650.32        69.88575
650.75        69.84131
651.18        69.61622
651.61        69.60727
652.03        69.85155
652.46        70.19409
652.89        70.38928
653.32        70.16064
653.74        69.78558
654.17        69.07562
654.60        69.08589
655.03        70.68675
655.46        69.34296
655.88        70.65817
656.31        73.35439
656.74        74.53893
657.16        73.75554
657.59         71.4492
658.02        69.74138
658.45        70.68275
658.87        70.43358
659.30         69.8354
659.73        70.42966
660.15        70.47504
660.58        70.73998
661.01        70.67208
661.44        70.35059
661.86        69.76984
662.29        69.13424
662.72        69.20206
663.14        69.83812
663.57        69.83174
664.00        69.25793
664.42         69.1439
664.85        69.51608
665.27        69.84369
665.70        69.84916
666.13        69.97263
666.55        70.14473
666.98        70.27099
667.41        70.33371
667.83        70.31722
668.26        70.21378
668.69        70.04716
669.11        69.87099
669.54        69.74416
669.96        69.68264
670.39         69.7441
670.82        69.87134
671.24        69.80051
671.67        69.58329
672.09        69.63948
672.52        69.93806
672.94         70.1496
673.37        69.71415
673.80        70.09867
674.22        69.77488
674.65        69.86633
675.07        69.97833
675.50        70.13995
675.92         70.3052
676.35        70.39058
676.77        70.39572
677.20        70.31946
677.62        70.22425
678.05        70.21333
678.47        70.30081
678.90        70.45676
679.32        70.60352
679.75        70.63082
680.17        70.51092
680.60        70.29604
681.02        70.05746
681.45        69.90952
681.87        69.88657
682.30        69.94566
682.72        70.06642
683.15        70.13535
683.57        70.17043
684.00        70.27977
684.42        70.42405
684.85        70.51641
685.27        70.55464
685.70        70.43032
686.12        70.25788
686.54        70.62168
686.97        71.34969
687.39        71.57626
687.82        71.23797
688.24          71.118
688.66        71.11722
689.09         70.8885
689.51         70.4771
689.94        70.23823
690.36        70.20889
690.78        70.29837
691.21         70.4504
691.63        70.57143
692.06        70.62631
692.48        70.65881
692.90        70.67409
693.33        70.66766
693.75        70.65001
694.17        70.60824
694.60        70.57159
695.02         70.5901
695.44        70.66383
695.87        70.84016
696.29        71.06445
696.71         71.0576
697.14        70.87789
697.56        70.88857
697.98        71.08488
698.41        71.16539
698.83         71.1127
699.25        71.11539
699.68        71.14618
700.10        71.12769
700.52        71.04099
700.94        70.92858
701.37        70.79751
701.79        70.67484
702.21        70.56565
702.64        70.47575
703.06        70.42817
703.48        70.47008
703.90        70.60463
704.33        70.82533
704.75        71.04778
705.17          71.203
705.59        71.24442
706.01        71.19952
706.44        71.11573
706.86        71.08342
707.28        71.12624
707.70        71.20011
708.12        71.29903
708.55        71.44743
708.97        71.61226
709.39        71.68458
709.81        71.68616
710.23        71.77097
710.66        71.94108
711.08        72.12719
711.50        72.26948
711.92        72.34679
712.34        72.34946
712.76         72.2829
713.19        72.17756
713.61        72.13461
714.03        72.15646
714.45         72.2255
714.87         72.3064
715.29        72.34048
715.71        72.31226
716.13        72.23898
716.56        72.12988
716.98        72.09344
717.40        72.11943
717.82        72.18621
718.24        72.25918
718.66        72.28477
719.08        72.24934
719.50        72.17079
719.92        72.07784
720.34        72.01475
720.76        71.99413
721.19        71.99426
721.61        72.00988
722.03        72.00477
722.45        71.97137
722.87        71.92339
723.29        71.87637
723.71        71.85356
724.13        71.86152
724.55        71.89007
724.97        71.93446
725.39        71.98554
725.81        72.04045
726.23         72.1071
726.65        72.17239
727.07        72.21857
727.49        72.23931
727.91        72.22242
728.33        72.20539
728.75        72.25272
729.17        72.37223
729.59        72.55503
730.01        72.70467
730.43        72.66348
730.85        72.41769
731.27         72.0302
731.69         71.6663
732.10        71.58383
732.52        71.83549
732.94        72.34239
733.36         72.9421
733.78        73.36219
734.20        73.50615
734.62        73.38782
735.04        73.14086
735.46        73.10762
735.88        73.28396
736.30        73.30943
736.72        73.15203
737.13         73.0671
737.55        73.00768
737.97         72.8279
738.39        72.60856
738.81        72.47846
739.23        72.52216
739.65        72.95177
740.06        73.54438
740.48        73.77468
740.90        73.56556
741.32        73.17017
741.74        72.75128
742.16        72.51445
742.57         72.5506
742.99        72.73398
743.41        72.98855
743.83        73.27854
744.25         73.5061
744.67        73.48229
745.08        73.26428
745.50        73.13715
745.92        73.14922
746.34        73.13301
746.75        73.09032
747.17         73.1003
747.59        73.15981
748.01          73.252
748.42        73.35767
748.84         73.4101
749.26        73.40572
749.68        73.36169
750.09        73.28209
750.51        73.21182
750.93        73.15066
751.35         73.0912
751.76        73.05212
752.18        73.05417
752.60        73.09896
753.01        73.19419
753.43        73.29115
753.85        73.33443
754.27        73.33044
754.68        73.33472
755.10        73.36221
755.52        73.43748
755.93        73.53307
756.35        73.59049
756.77        73.71206
757.18         73.9196
757.60        74.19131
758.02        74.95188
758.43        75.80528
758.85        75.14875
759.26        73.41163
759.68        72.95596
760.10        73.82246
760.51        74.31079
760.93        74.23717
761.34        74.26425
761.76        74.34053
762.18        74.24522
762.59        74.00178
763.01        73.53435
763.42        73.02792
763.84        72.79337
764.26        72.90146
764.67        73.23381
765.09        73.67813
765.50        74.00171
765.92        74.15029
766.33        74.21381
766.75        74.15097
767.16        74.06767
767.58        73.95084
768.00         73.7942
768.41        73.63329
768.83        73.58531
769.24        73.63591
769.66        73.63061
770.07        73.58052
770.49        73.71693
770.90        73.99127
771.32        74.14663
771.73        74.16299
772.15        74.09885
772.56        73.96421
772.97        73.94359
773.39        73.60134
773.80        73.64941
774.22        73.92928
774.63        74.41739
775.05        74.90379
775.46        75.14922
775.88        75.05762
776.29        74.74493
776.70        74.33672
777.12        74.06213
777.53        73.99757
777.95        74.05655
778.36        74.21453
778.77        74.38773
779.19        74.53761
779.60        74.81364
780.02        75.10843
780.43        75.14078
780.84         74.9817
781.26        74.92934
781.67        75.06724
782.09        75.50573
782.50        76.06287
782.91        76.06917
783.33        75.54501
783.74        75.21944
784.15        75.13869
784.57        74.86794
784.98        74.48287
785.39        74.33806
785.81        74.47691
786.22        74.79341
786.63        75.22996
787.04        75.69205
787.46        76.12256
787.87        76.50626
788.28        76.82143
788.70        77.00515
789.11        77.03837
789.52        77.02665
789.93         76.9548
790.35        76.63203
790.76        76.16948
791.17        75.96638
791.58        76.06477
792.00        76.10057
792.41        76.06462
792.82        76.34686
793.23        76.83902
793.65        76.75688
794.06        76.29413
794.47        76.59806
794.88        77.44747
795.29        77.62834
795.71        77.06006
796.12        76.42704
796.53         75.9577
796.94        75.78091
797.35        75.99908
797.76         76.5746
798.18        77.26683
798.59        77.72493
799.00        77.81921
799.41        77.64671
799.82        77.32751
800.23        77.07905
800.64        76.98077
801.06        76.93458
801.47        76.95924
801.88        77.01277
802.29        77.06931
802.70        77.14052
803.11        77.21471
803.52        77.25542
803.93        77.26989
804.34        77.28063
804.75        77.26222
805.17        77.25372
805.58        77.30924
805.99        77.16148
806.40        76.95323
806.81        77.49239
807.22        78.52724
807.63        78.66782
808.04        77.98067
808.45        77.79401
808.86        78.19149
809.27        78.39203
809.68        78.29983
810.09        78.16394
810.50        77.98547
810.91        77.69968
811.32        77.43394
811.73        77.38754
812.14        77.59313
812.55        78.01199
812.96        78.47353
813.37        78.64832
813.78         78.4576
814.19        78.02483
814.60        77.53118
815.01        77.23336
815.42        77.19421
815.83        77.32621
816.24          77.577
816.65        77.83939
817.05        78.04804
817.46        78.20088
817.87        78.27741
818.28        78.18353
818.69        77.92531
819.10        77.52858
819.51        77.12372
819.92        76.96329
820.33        77.11774
820.74        77.50145
821.14        78.00088
821.55         78.4445
821.96        78.75883
822.37        78.99123
822.78        79.09957
823.19        79.02063
823.60         78.7552
824.00        78.30735
824.41        77.80354
824.82        77.48043
825.23        77.39011
825.64        77.50672
826.04        77.69862
826.45        77.63138
826.86        77.26981
827.27        76.72118
827.68        76.20707
828.08        76.09698
828.49        76.42756
828.90        77.11716
829.31        77.97421
829.72        78.66743
830.12        79.10535
830.53        79.27842
830.94        79.33789
831.35        79.50243
831.75        79.85059
832.16        80.22559
832.57         80.5175
832.97        80.51057
833.38        80.17562
833.79        79.66687
834.20        79.11842
834.60        78.68865
835.01        78.46539
835.42         78.3665
835.82        78.46818
836.23        78.81984
836.64        79.41206
837.04        80.25101
837.45        80.99535
837.86        81.24169
838.26        80.89812
838.67        80.09589
839.08         79.1526
839.48        78.54851
839.89        78.45712
840.29        78.73535
840.70        79.22524
841.11        79.68024
841.51        80.02414
841.92        80.28308
842.33        80.49249
842.73        80.68901
843.14        80.82599
843.54        80.90878
843.95        80.90598
844.35         80.8529
844.76        80.73918
845.17        80.55838
845.57        80.37904
845.98        80.26665
846.38        80.25555
846.79        80.33008
847.19        80.37192
847.60        80.12254
848.00        79.57522
848.41         78.8335
848.81        78.16072
849.22        77.94405
849.62          78.298
850.03        79.06212
850.43        80.05412
850.84        80.72079
851.24        80.95066
851.65        80.77215
852.05        80.40988
852.46         80.1823
852.86        80.16289
853.27        80.31446
853.67         80.3952
854.07        80.29732
854.48        79.94228
854.88        79.41053
855.29        78.79701
855.69        78.53658
856.10        78.64902
856.50        79.13509
856.90         79.6466
857.31        79.70081
857.71        79.24998
858.12        78.39401
858.52        77.50918
858.92        77.16528
859.33        77.48787
859.73        78.34421
860.13        79.35783
860.54         79.9273
860.94        79.91924
861.34        79.40333
861.75        78.60673
862.15        77.99477
862.55          77.689
862.96        77.61115
863.36          77.497
863.76        76.95342
864.17        75.97128
864.57        74.75213
864.97        73.69566
865.38        73.33992
865.78        73.82594
866.18        74.96294
866.58        76.43462
866.99        77.55939
867.39        78.09264
867.79        78.15646
868.19        77.86299
868.60        77.40302
869.00        76.88963
869.40        76.25536
869.80        75.72775
870.21        75.70248
870.61        76.28777
871.01        77.34879
871.41        78.47993
871.81        79.01281
872.22        78.77387
872.62        77.93246
873.02        76.83946
873.42        76.10077
873.82         75.9171
874.22        76.16325
874.63        76.54723
875.03        76.61285
875.43        76.26545
875.83        75.64059
876.23        75.13021
876.63        75.36425
877.03        76.43786
877.44        78.07174
877.84        79.72179
878.24        80.40739
878.64         79.9299
879.04         78.6614
879.44        77.16547
879.84        76.26914
880.24        76.17186
880.64        76.58362
881.04        77.30239
881.44        77.99235
881.84        78.49877
882.24           78.96
882.65        79.19508
883.05        79.02779
883.45        78.42082
883.85        77.47011
884.25        76.55392
884.65        76.26986
885.05        76.70801
885.45        77.63825
885.85        78.77714
886.25        79.61288
886.65        79.93635
887.05        79.92664
887.45        79.48318
887.85        78.47572
888.25        77.05882
888.65        75.37463
889.04        73.92641
889.44         73.4582
889.84         74.0079
890.24        75.42648
890.64        77.23955
891.04        78.40424
891.44        78.53148
891.84        77.92235
892.24        77.06689
892.64        76.66479
893.04        76.86595
893.44        77.41998
893.83        78.14562
894.23        78.65822
894.63        78.84991
895.03         78.8729
895.43         78.7748
895.83        78.60212
896.23        78.39124
896.63        78.08913
897.02        77.78099
897.42        77.68496
897.82        77.81683
898.22        78.16891
898.62        78.53163
899.01        78.54866
899.41        78.14614
899.81        77.44266
900.21        76.75901
900.61        76.59519
901.00        77.03793
901.40        77.91808
901.80        78.86262
902.20        79.26289
902.59        78.95563
902.99        78.12856
903.39        77.12057
903.79        76.43334
904.18        76.20852
904.58        76.34811
904.98        76.61221
905.38        76.64503
905.77        76.34088
906.17        75.80151
906.57         75.3092
906.96        75.32657
907.36        75.90058
907.76        76.92035
908.15        77.92008
908.55        78.00394
908.95        77.07121
909.34         75.4016
909.74        73.78244
910.14        73.28627
910.53        74.17081
910.93        76.05165
911.33        78.31992
911.72        80.00558
912.12        80.70392
912.52        80.67987
912.91        80.28965
913.31        80.13553
913.70          80.411
914.10        80.85919
914.49        81.17023
914.89         80.8878
915.29        79.97416
915.68        78.68025
916.08        77.41773
916.47        76.65105
916.87        76.56022
917.26         76.9496
917.66        77.64778
918.05        78.39857
918.45        79.01408
918.84        79.60464
919.24        80.01098
919.64        80.12213
920.03        79.94064
920.42        79.46536
920.82        78.90562
921.21        78.50677
921.61        78.35255
922.00        78.39925
922.40        78.57918
922.79        78.84856
923.19        79.12282
923.58        79.43752
923.98        79.69426
924.37        79.74716
924.77        79.57394
925.16          79.218
925.55        78.80373
925.95         78.5529
926.34        78.54784
926.74        78.71205
927.13         78.9554
927.52        79.08788
927.92        79.06166
928.31        78.91685
928.70        78.72092
929.10        78.56677
929.49        78.48132
929.89        78.38785
930.28        78.27818
930.67        78.06223
931.07        77.73907
931.46        77.40093
931.85        77.06606
932.24        76.74845
932.64        76.48975
933.03        76.30821
933.42        76.32207
933.82        76.70683
934.21        77.48618
934.60        78.51116
934.99         79.6131
935.39        80.49921
935.78        81.11263
936.17        81.48952
936.56        81.46559
936.96        80.85855
937.35        79.74474
937.74        78.25864
938.13        76.92204
938.53        76.38203
938.92        76.69578
939.31        77.77565
939.70         79.1268
940.09         79.7737
940.49        79.40619
940.88        78.29382
941.27        77.04957
941.66         76.5976
942.05        77.13815
942.44        78.45955
942.84        79.89996
943.23         80.3608
943.62        79.49642
944.01        77.66758
944.40        75.82871
944.79        75.36991
945.18        76.54862
945.57        78.96451
945.97        81.53002
946.36        82.60004
946.75        81.61121
947.14        79.12376
947.53        76.30614
947.92        74.90981
948.31        75.37298
948.70        77.22392
949.09        79.52666
949.48        80.59296
949.87         79.9181
950.26        78.06979
950.65        76.03443
951.04        75.16352
951.43         75.7515
951.82        77.40627
952.21        79.32811
952.60        80.08435
952.99        79.27068
953.38         77.3912
953.77        75.43091
954.16        74.68008
954.55        75.39626
954.94        77.29366
955.33        79.53542
955.72        80.33932
956.11        79.12702
956.50        76.55013
956.89        73.89844
957.28        72.82987
957.66          73.703
958.05        75.97344
958.44        78.76068
958.83        80.26221
959.22         79.8543
959.61        78.18012
960.00        76.17881
960.39        75.04118
960.78        74.99474
961.16        75.66686
961.55        76.57462
961.94         76.9115
962.33        76.39839
962.72        75.46678
963.11        74.40932
963.49        73.54599
963.88         73.0003
964.27        72.62815
964.66          72.597
965.04        73.27703
965.43        74.58769
965.82        76.43703
966.21        78.33157
966.60        79.35088
966.98          79.258
967.37        78.38312
967.76        77.15937
968.15        76.18895
968.53        75.63541
968.92        75.26934
969.31        75.23266
969.69        75.80453
970.08        76.91595
970.47        78.64329
970.86        80.30003
971.24        80.68461
971.63        79.53313
972.02        77.23048
972.40        74.84894
972.79         74.1088
973.17        75.31149
973.56        77.84921
973.95        80.76828
974.33        82.25562
974.72        81.66578
975.11         79.6252
975.49        77.10628
975.88        75.88937
976.26         76.4207
976.65        78.13609
977.04        80.32902
977.42         81.7187
977.81         81.6944
978.19        80.74833
978.58        79.45664
978.96        78.60662
979.35        78.51556
979.74        78.97222
980.12        79.72641
980.51        80.31392
980.89        80.63616
981.28        80.63348
981.66        80.80386
982.05         81.6665
982.43        83.40372
982.82        85.75613
983.20        87.77069
983.59        87.69201
983.97        85.28171
984.35        81.24149
984.74        77.22456
985.12        75.49443
985.51        76.42675
985.89        79.41315
986.28         83.0787
986.66        85.47879
987.04        85.79125
987.43        84.62016
987.81        82.66037
988.20        81.40101
988.58        81.25757
988.96        81.77414
989.35        82.20885
989.73        81.66889
990.12        79.92289
990.50        77.54053
990.88        75.14413
991.27        73.65617
991.65        73.31242
992.03         73.8391
992.42        75.05704
992.80        77.01833
993.18        79.48778
993.56        82.45697
993.95        85.25515
994.33        86.79558
994.71        86.62726
995.10        85.09965
995.48        82.98955
995.86        81.57503
996.24        81.22689
996.63        81.56067
997.01        82.46043
997.39        83.41455
997.77        84.15224
998.15        84.85209
998.54         85.3409
998.92        85.34757
999.30        84.82565
999.68        83.77115
1000.06        82.52369
1000.45         81.7449
1000.83        81.74128
1001.21        82.39664
1001.59        83.37286
1001.97        84.04982
1002.35        84.24288
1002.73        84.10804
1003.12        83.91293
1003.50        84.00333
1003.88        84.47958
1004.26        85.18915
1004.64        85.84216
1005.02        85.98028
1005.40        85.52462
1005.78        84.68236
1006.16        83.77887
1006.54        83.23817
1006.92        83.13672
1007.30         83.3415
1007.69         83.6582
1008.07        83.82985
1008.45        83.70361
1008.83         83.4947
1009.21        83.24721
1009.59        83.03062
1009.97        82.89102
1010.35          82.643
1010.73        82.67892
1011.11        83.66311
1011.49        85.55489
1011.86        88.17388
1012.24        90.31928
1012.62        90.32896
1013.00        87.87017
1013.38        83.28642
1013.76        77.89862
1014.14        74.64381
1014.52        74.66454
1014.90        77.20227
1015.28        80.71218
1015.66        82.62437
1016.04        82.22114
1016.41         80.4882
1016.79        77.83536
1017.17        75.36963
1017.55        73.88813
1017.93        72.97122
1018.31        73.02918
1018.69        74.74357
1019.06        78.35988
1019.44        84.27385
1019.82        91.99793
1020.20        97.33305
1020.58        97.01274
1020.95        91.90845
1021.33         85.5603
1021.71        81.47289
1022.09        79.95467
1022.46        80.14848
1022.84         81.3857
1023.22         81.1152
1023.60        78.70106
1023.97        75.69398
1024.35         73.7364
1024.73        74.22449
