SpectraSmart Spectrum 2.9.0.0
--------- Device Information -----------
Spectrum Name :  反射率_0
Saving Time :  2024/04/30 00:30:54
Spectro-Module Model Name : SE2030-DUVN
Spectro-Module Serial Number : OS361AC55029948
Wavelength Start : 200
Wavelength End : 1025
Wavelength Unit : Wavelength(nm)
Spectrum Unit : Reflectance(%)
-----------Spectrum Setting ------------
Integration Time : 20ms
Average : 10
Boxcar : 0
Background removal :  enabled
linearity correction :  enabled
SC :  disabled
Intensity correction :  disabled
DWT denoise :  enabled
savitzky-golay :  disabled
FFT :  disabled
Running average :  disabled
Kalman :  disabled
High pass :  disabled
---------------BEGIN--------------------
Wavelength(nm)             Reflectance(%)
200.29               0
200.75        61.65125
201.21        60.15477
201.67        59.40897
202.13        57.12338
202.58        52.56568
203.04        45.32146
203.50        39.38282
203.96        43.94813
204.42        61.21073
204.88        87.40939
205.34        109.2906
205.80          109.04
206.26        90.60451
206.72        66.83282
207.18        47.24197
207.64        37.11471
208.10        34.81317
208.55        37.07648
209.01         42.3247
209.47        47.56403
209.93        50.79105
210.39        53.08418
210.85        54.22068
211.31        54.03746
211.77        52.58298
212.23        48.85176
212.69        43.66901
213.14        42.39157
213.60        46.51314
214.06        53.51452
214.52        58.88966
214.98        59.43133
215.44        55.89512
215.90        49.58847
216.36        43.02301
216.81        41.24555
217.27         46.9488
217.73        60.16016
218.19        80.09563
218.65        96.85612
219.11        101.6108
219.57        96.76842
220.02        88.48677
220.48        81.92366
220.94        76.43239
221.40        69.65514
221.86        60.92629
222.32        52.96365
222.77        48.81985
223.23        48.70642
223.69        49.36827
224.15        48.03012
224.61        44.52808
225.06        39.20296
225.52        34.02734
225.98        33.34815
226.44        37.46389
226.90        43.30165
227.36        48.08098
227.81        50.11828
228.27        49.76965
228.73        47.69308
229.19        44.84529
229.65        43.28891
230.10        43.59938
230.56        44.89145
231.02        46.01616
231.48        45.95413
231.93        44.64703
232.39        42.57327
232.85        40.37374
233.31        39.30083
233.77        39.74486
234.22         41.3914
234.68        43.39402
235.14        44.22192
235.60         43.4788
236.05        41.72963
236.51        39.93195
236.97        39.25425
237.43        40.02017
237.88        42.16197
238.34         45.3869
238.80        48.79903
239.26        51.35217
239.71        53.14687
240.17        54.11269
240.63        54.87339
241.08        55.90639
241.54        56.91566
242.00        58.81214
242.46        63.76362
242.91        72.36637
243.37        82.33822
243.83        89.73209
244.28        92.44302
244.74        90.78896
245.20        84.16816
245.66        75.27634
246.11        71.25391
246.57         75.6529
247.03        88.22352
247.48        102.3109
247.94        102.4334
248.40        89.54564
248.85        73.48814
249.31        62.42902
249.77        59.64511
250.22        64.54366
250.68        77.06098
251.14        98.12569
251.59        114.3693
252.05        112.1576
252.51        100.9387
252.96         89.7731
253.42        82.06284
253.88        75.98114
254.33        69.53595
254.79         63.5724
255.25        60.44061
255.70        60.32267
256.16        62.05706
256.62        63.73765
257.07        63.98063
257.53        63.25092
257.99        61.83268
258.44        59.92531
258.90        58.59399
259.35        57.61698
259.81        56.96963
260.27        56.31586
260.72        55.40206
261.18        54.37288
261.63        53.10225
262.09        51.74617
262.55        50.20538
263.00        48.54022
263.46        47.00975
263.91        45.54198
264.37        44.29514
264.83        43.17725
265.28        42.08202
265.74         41.1748
266.19        40.50496
266.65        40.11838
267.11        39.93476
267.56        39.73055
268.02        39.17564
268.47        38.19653
268.93        36.89577
269.38        35.50009
269.84        34.52723
270.30        34.09251
270.75        34.04017
271.21        34.08765
271.66         33.8016
272.12        33.08412
272.57        32.04626
273.03        30.91714
273.48        29.97824
273.94        29.36753
274.39        28.95931
274.85        28.63587
275.31        28.17339
275.76        27.52095
276.22        26.78113
276.67        26.07485
277.13         25.6454
277.58        25.46979
278.04        25.47813
278.49        25.44433
278.95        25.13139
279.40        24.47824
279.86        23.65917
280.31        22.81557
280.77        22.26002
281.22         22.0206
281.68        22.00868
282.13        22.11759
282.59        22.23759
283.04        22.30266
283.50        22.33603
283.95         22.2937
284.41        22.10895
284.86          21.784
285.32         21.3873
285.77        20.95814
286.22        20.61823
286.68        20.41262
287.13        20.28197
287.59         20.2691
288.04        20.38313
288.50        20.60912
288.95        20.89679
289.41        21.16087
289.86         21.2431
290.32        21.14752
290.77        20.93874
291.22        20.70281
291.68        20.57339
292.13        20.60292
292.59        20.78719
293.04        21.18927
293.50        21.92064
293.95        22.97854
294.40        24.33411
294.86        25.82014
295.31        27.17877
295.77        28.33656
296.22        29.34254
296.68        30.34937
297.13        31.58294
297.58        33.10468
298.04        34.81365
298.49        36.57529
298.95        38.18703
299.40        39.60034
299.85         40.8961
300.31        42.20028
300.76        43.63054
301.21        45.25082
301.67        47.02986
302.12        48.87571
302.58        50.79547
303.03        52.74641
303.48        54.66176
303.94        56.56767
304.39        58.90395
304.84        60.93599
305.30         63.2205
305.75        65.45132
306.20        67.57089
306.66        69.55385
307.11        71.36124
307.57        73.05902
308.02        74.63733
308.47        76.15488
308.93        77.62263
309.38         79.0219
309.83        80.39899
310.29        81.75715
310.74        83.07083
311.19        84.30275
311.65        85.37715
312.10        86.27512
312.55        87.05373
313.00        87.80741
313.46         88.6845
313.91         89.7011
314.36         90.8075
314.82        91.93577
315.27         93.0042
315.72        93.94366
316.18        94.77058
316.63         95.4295
317.08        95.84998
317.53        96.05612
317.99         96.1155
318.44        96.12258
318.89        96.24424
319.35        96.53592
319.80        96.95581
320.25        97.53304
320.70         98.3042
321.16        99.20609
321.61        100.2514
322.06        101.2179
322.51        101.7562
322.97        101.7865
323.42        101.4224
323.87        100.8984
324.32        100.6228
324.78        100.7001
325.23        101.0902
325.68        101.6541
326.13        102.1471
326.59        102.4629
327.04        102.7061
327.49        102.9447
327.94        103.3345
328.39        103.8951
328.85        104.5007
329.30        105.0831
329.75        105.3452
330.20        105.2323
330.66        104.8551
331.11        104.4218
331.56        104.1844
332.01        104.2572
332.46        104.5845
332.92        105.1239
333.37        105.9382
333.82         106.928
334.27         108.067
334.72        109.2154
335.17        110.1447
335.63        110.7531
336.08        111.1334
336.53        111.3071
336.98        111.4082
337.43        111.5071
337.88        111.5806
338.34         111.704
338.79        112.0129
339.24        112.5209
339.69        113.2253
340.14        113.9842
340.59        114.5329
341.05        114.8209
341.50        114.9336
341.95        115.0197
342.40        115.3465
342.85        115.9666
343.30        116.7498
343.75        117.6022
344.20        118.3765
344.66        119.0203
345.11        119.6011
345.56        120.0201
346.01        120.1104
346.46        119.8978
346.91        119.4418
347.36        119.0757
347.81        119.3113
348.26        120.2141
348.72        121.5995
349.17        123.0906
349.62        123.9627
350.07        124.0241
350.52        123.5268
350.97        122.7954
351.42        122.3306
351.87        122.2921
352.32        122.5115
352.77        122.9421
353.22        123.5201
353.67        124.1518
354.13        124.8231
354.58          125.36
355.03        125.4649
355.48        125.0722
355.93        124.2631
356.38        123.1832
356.83        122.0731
357.28        121.0395
357.73         120.063
358.18         119.176
358.63         118.412
359.08        117.7707
359.53        117.2536
359.98        116.8223
360.43        116.3997
360.88        115.9466
361.33        115.4589
361.78        114.9071
362.23        114.2577
362.68        113.5153
363.13        112.7006
363.58        111.8608
364.03        111.0737
364.48        110.3666
364.93        109.7223
365.38        109.1504
365.83        108.6612
366.28        108.2441
366.73        107.8937
367.18        107.5435
367.63        107.0856
368.08        106.4934
368.53         105.788
368.98        105.0453
369.43        104.3931
369.88        103.8754
370.33        103.4746
370.78        103.1162
371.23          102.68
371.68        102.1292
372.13        101.4714
372.58        100.8185
373.03        100.3492
373.48        100.0752
373.93        99.93205
374.38        99.69721
374.83        99.01846
375.28        97.87137
375.72        96.40258
376.17        94.98668
376.62        93.99567
377.07        93.50615
377.52        93.37071
377.97        93.44952
378.42        93.51347
378.87         93.4583
379.32         93.3411
379.77        93.11855
380.22        92.72508
380.67        92.15777
381.11        91.41225
381.56        90.59466
382.01        89.91882
382.46        89.45716
382.91        89.18919
383.36         88.9904
383.81        88.65117
384.26        88.12719
384.71        87.47276
385.15        86.83525
385.60        86.50348
386.05        86.49199
386.50        86.70072
386.95        86.89527
387.40        86.72219
387.85        86.13609
388.29        85.23285
388.74        84.36436
389.19        83.78975
389.64        83.55761
390.09        83.53946
390.54        83.60699
390.98        83.54578
391.43         83.3269
391.88        83.00411
392.33        82.58759
392.78        82.17625
393.23         81.7716
393.67        81.23022
394.12        80.40704
394.57        80.45081
395.02        80.12103
395.47        80.23978
395.91        80.38171
396.36         80.4323
396.81        80.34608
397.26        80.14703
397.71        79.88172
398.15        79.54237
398.60        79.21964
399.05        78.93137
399.50        78.66874
399.95        78.28662
400.39        77.65475
400.84        77.90594
401.29        78.71931
401.74        78.98608
402.18         78.5938
402.63        77.64087
403.08        77.23479
403.53         76.8968
403.97        76.92831
404.42        77.19651
404.87        77.51768
405.32        77.55386
405.76        77.21697
406.21        76.81892
406.66        76.40267
407.11        75.78759
407.55         75.2308
408.00        75.17244
408.45        75.60446
408.90        76.41944
409.34        77.21326
409.79        76.94595
410.24        75.89855
410.68        75.57359
411.13        76.06784
411.58        76.48384
412.03        76.65314
412.47        76.73557
412.92        76.65105
413.37        76.40248
413.81        76.03496
414.26         75.6988
414.71        75.40281
415.15        75.13666
415.60         74.9234
416.05        74.84778
416.49        74.92661
416.94        75.14514
417.39        75.39658
417.83        75.47981
418.28        75.36318
418.73        75.10553
419.17        74.84152
419.62         74.8047
420.07        75.01262
420.51        75.35817
420.96        75.76433
421.41        75.91198
421.85        75.70436
422.30        75.67461
422.74        75.77837
423.19         74.8579
423.64        74.30533
424.08        74.28684
424.53        75.05929
424.98        75.46453
425.42        75.40575
425.87          75.663
426.31        76.11474
426.76        75.91573
427.21        75.06103
427.65        74.88925
428.10        75.27828
428.54        75.23059
428.99          74.783
429.44        74.41383
429.88        74.24457
430.33        74.39194
430.77        74.72645
431.22        75.22517
431.66        75.73335
432.11        75.67865
432.56        75.14799
433.00        75.05783
433.45        75.58521
433.89        75.77329
434.34        75.66855
434.78        77.09538
435.23        75.24103
435.67        74.71367
436.12        74.35292
436.57        74.51978
437.01        75.06616
437.46        75.57178
437.90        75.62308
438.35        75.91253
438.79        76.48402
439.24        76.64764
439.68        76.49487
440.13        76.44975
440.57        76.62078
441.02        76.69247
441.46        76.60039
441.91        76.91755
442.35        77.53613
442.80        76.65417
443.24        77.32849
443.69        76.85232
444.13         76.2901
444.58        75.97216
445.02        75.90061
445.47        75.94262
445.91        76.03036
446.36        76.09641
446.80        76.06541
447.24        76.46243
447.69        76.38608
448.13        76.44787
448.58        76.40488
449.02        76.27576
449.47        76.15751
449.91        76.18267
450.36        76.39671
450.80        76.72865
451.25        77.09215
451.69        77.31087
452.13        77.34722
452.58        77.27612
453.02        77.16032
453.47        77.09345
453.91        77.08195
454.36        77.26199
454.80        77.22552
455.24        77.29034
455.69        77.29569
456.13         77.1316
456.58        76.85801
457.02        76.50468
457.46        76.19753
457.91        76.18316
458.35        76.34921
458.79        76.40303
459.24        76.35581
459.68        76.31835
460.13        76.30344
460.57        76.44106
461.01        76.38316
461.46        76.28342
461.90         76.0854
462.34        76.23759
462.79        76.56772
463.23        76.34956
463.68        75.66803
464.12        75.29785
464.56        75.30392
465.01        75.18515
465.45         74.9133
465.89        74.99081
466.34         75.3328
466.78        75.31356
467.22        75.18374
467.67        75.00603
468.11        74.91799
468.55        74.74234
468.99        74.51593
469.44        74.31213
469.88        74.14724
470.32        74.05658
470.77        74.00109
471.21        73.91827
471.65        73.78143
472.10         73.6256
472.54        73.51262
472.98         73.5359
473.42        73.68801
473.87        74.05398
474.31        74.45271
474.75        74.33402
475.20        73.82198
475.64        73.70461
476.08        73.99117
476.52        73.90139
476.97        73.39675
477.41        73.36337
477.85        73.32825
478.29        72.83764
478.74        73.81942
479.18        73.78933
479.62         73.4212
480.06        73.28655
480.50        73.41687
480.95        73.03014
481.39        73.44324
481.83        72.72864
482.27        73.79151
482.72        74.10405
483.16        73.77684
483.60        73.41644
484.04        73.91326
484.48        74.06533
484.93        74.02396
485.37        73.68333
485.81        72.80156
486.25        72.10871
486.69        73.83188
487.14        73.35504
487.58        72.89429
488.02        73.01012
488.46        73.57328
488.90        73.72655
489.34        72.86349
489.79        73.61619
490.23        72.95586
490.67        73.04797
491.11        72.99306
491.55        72.75192
491.99        72.39321
492.43        72.24416
492.88        72.34902
493.32        72.53133
493.76        72.73411
494.20        72.94139
494.64        73.11029
495.08        73.30105
495.52        73.47659
495.96        73.39185
496.41        73.08599
496.85        73.16872
497.29        73.04642
497.73         73.0359
498.17        72.81719
498.61        72.69495
499.05        72.47253
499.49        72.39317
499.93        72.38303
500.37         72.4687
500.82        72.63729
501.26        72.41832
501.70        72.62497
502.14        72.54303
502.58        72.45023
503.02        72.50538
503.46        72.74969
503.90        72.70347
504.34        73.06475
504.78        73.10161
505.22         72.9854
505.66        72.81187
506.10         72.6834
506.54        72.50368
506.98        72.25022
507.42          73.057
507.86        72.43826
508.30        72.93892
508.74        72.52813
509.18        71.97105
509.62        71.75166
510.06        71.58488
510.50         71.7517
510.94         72.1396
511.38        72.59303
511.82        72.79889
512.26        72.67673
512.70        72.33502
513.14        71.93062
513.58        71.70486
514.02        71.72366
514.46        71.90833
514.90         72.1661
515.34        72.34986
515.78        72.40761
516.22        72.38442
516.66        72.32568
517.10        72.29583
517.54        72.31285
517.98        72.34985
518.42        72.36704
518.86        72.31042
519.30        72.17276
519.74        71.97971
520.18        71.79298
520.62        71.69798
521.06        71.71907
521.50        71.84544
521.93        72.01462
522.37        72.09882
522.81        72.07758
523.25        71.97024
523.69        71.87528
524.13        71.95123
524.57        72.21138
525.01        72.58887
525.45        72.93134
525.89        72.99483
526.32        72.73034
526.76        72.26239
527.20        71.73611
527.64        71.40883
528.08        71.35093
528.52        71.38764
528.96        71.48802
529.40        71.82008
529.83        72.22937
530.27        72.25097
530.71        71.92831
531.15        71.76649
531.59        71.79853
532.03        71.72527
532.46        71.55867
532.90         71.4875
533.34        71.51555
533.78         71.6018
534.22        71.70106
534.66        71.73769
535.09        71.68941
535.53        71.59677
535.97        71.48946
536.41        71.44249
536.85        71.47203
537.28        71.52374
537.72        71.55819
538.16        71.62878
538.60         71.5266
539.04        71.43472
539.47        71.29939
539.91        71.18692
540.35        71.09518
540.79        71.02663
541.22        70.98799
541.66        70.99938
542.10        71.05409
542.54        71.14577
542.97        71.25275
543.41        71.36033
543.85        71.45042
544.29        71.54366
544.72        71.58849
545.16        71.54783
545.60        71.42143
546.04        71.18448
546.47        70.93344
546.91        71.00802
547.35        71.40277
547.79        71.67605
548.22        71.65627
548.66        72.16798
549.10        72.12876
549.53        71.90523
549.97        71.41133
550.41        71.91251
550.84        71.36287
551.28        71.34105
551.72        71.19044
552.15        71.50032
552.59         71.3504
553.03        71.41195
553.46        71.40239
553.90        71.41514
554.34         71.4277
554.77        71.41786
555.21        71.40271
555.65        71.35574
556.08        71.27728
556.52        71.26882
556.96        71.35275
557.39         71.2951
557.83        71.59407
558.27        71.66016
558.70        71.68028
559.14        71.73937
559.57        71.95562
560.01        72.09527
560.45        72.16764
560.88        71.89997
561.32        71.72153
561.75        71.65417
562.19        71.76822
562.63        71.58933
563.06        71.18976
563.50        71.13837
563.93        71.37254
564.37        71.47018
564.80        71.38976
565.24         71.3686
565.68        71.40439
566.11        71.45986
566.55        71.53561
566.98        71.48141
567.42        71.47796
567.85        71.44601
568.29        71.41889
568.72        71.62524
569.16         72.1746
569.60        71.54239
570.03         71.9018
570.47        72.17438
570.90        72.29661
571.34        71.79111
571.77        72.18812
572.21        72.20221
572.64        72.28414
573.08         72.1499
573.51        71.63113
573.95        72.03031
574.38        72.22118
574.82        72.11893
575.25         72.0135
575.69        72.24576
576.12         71.7397
576.56        71.36805
576.99        71.53741
577.42        71.57696
577.86        71.52732
578.29        71.66636
578.73        72.30429
579.16        71.56072
579.60        71.87074
580.03         71.4987
580.47         72.1063
580.90        71.94377
581.33        71.47661
581.77        71.58837
582.20        71.71351
582.64        72.03606
583.07        71.78621
583.51        71.49335
583.94        71.23877
584.37        70.90097
584.81        70.80029
585.24        71.29861
585.68        71.60461
586.11        72.70245
586.54         71.4346
586.98        71.16851
587.41        71.91516
587.85        72.19003
588.28        72.23482
588.71        72.43302
589.15        71.56947
589.58        71.96512
590.01         71.3193
590.45        71.53493
590.88        72.02576
591.31        72.18813
591.75         71.7071
592.18        72.28322
592.61        72.23338
593.05        70.82098
593.48        71.62447
593.91        72.49944
594.35        71.29366
594.78         71.1551
595.21        71.03924
595.65        71.70023
596.08        70.87487
596.51        71.18276
596.94        72.07932
597.38        72.34338
597.81        71.88927
598.24        71.81973
598.68        71.33668
599.11        71.25764
599.54        71.92529
599.97        72.60381
600.41        71.00913
600.84        71.16272
601.27        71.30166
601.70         71.7027
602.14        71.86199
602.57        71.57957
603.00        71.06583
603.43        71.15898
603.87         71.3306
604.30        71.67936
604.73        71.45477
605.16        71.40695
605.60        71.38165
606.03        71.45775
606.46        71.51026
606.89        71.84982
607.32        71.59924
607.76        71.61536
608.19        71.67722
608.62        71.61582
609.05        71.48676
609.48        71.57088
609.92         71.4695
610.35        71.59094
610.78        71.83138
611.21        71.11533
611.64        71.09161
612.07        71.37603
612.50        71.46525
612.94        71.45245
613.37        71.87901
613.80        71.59927
614.23        72.03892
614.66        71.99404
615.09        71.86814
615.52        71.81813
615.96        71.78999
616.39        71.80474
616.82         71.1424
617.25        71.24826
617.68        71.31688
618.11        71.48642
618.54         71.5164
618.97        71.46602
619.40        71.37502
619.84         71.3693
620.27        71.51154
620.70         71.6804
621.13        71.68817
621.56         71.7765
621.99        71.25893
622.42         70.8276
622.85        71.63841
623.28        71.36503
623.71         71.9314
624.14        70.71996
624.57        71.59016
625.00        71.20594
625.43        71.50271
625.86        71.27308
626.29        70.94875
626.72        71.29004
627.15        71.11811
627.58        71.21658
628.01        71.22327
628.44        71.47102
628.87         71.0051
629.30          71.033
629.73        71.37197
630.16        71.53003
630.59        71.35104
631.02        71.42173
631.45        71.41178
631.88        71.35548
632.31        71.37759
632.74        71.34587
633.17         71.2988
633.60        71.19274
634.03         71.0344
634.46        70.82565
634.89        70.63546
635.32        70.59206
635.75        70.71188
636.18        70.94022
636.61        71.19427
637.04        71.35425
637.47         71.3989
637.89        71.32166
638.32        71.11784
638.75        71.00089
639.18        71.03513
639.61        70.47115
640.04         70.6267
640.47        70.54945
640.90        70.62964
641.33        70.83557
641.76        71.08819
642.18        71.22686
642.61        71.17519
643.04        70.98636
643.47        70.78273
643.90         70.7433
644.33          70.897
644.76        71.27438
645.18        71.69833
645.61        71.68276
646.04        71.11706
646.47        70.91416
646.90        71.03934
647.33        70.96354
647.75        70.68552
648.18        70.55672
648.61        70.59959
649.04        70.65601
649.47        70.72385
649.89         70.9297
650.32        71.16368
650.75        71.20927
651.18        71.10867
651.61        71.00457
652.03        70.99679
652.46        71.32265
652.89         71.7582
653.32        71.75074
653.74        71.40694
654.17        71.06612
654.60        70.23994
655.03        72.01212
655.46        70.38647
655.88        71.31022
656.31        73.59955
656.74        74.19098
657.16         73.6823
657.59        71.67448
658.02        70.58973
658.45        71.95392
658.87        71.90352
659.30        71.33923
659.73        71.63713
660.15        72.23648
660.58        71.57579
661.01        71.45786
661.44        71.29536
661.86        70.91727
662.29        70.44528
662.72        70.69299
663.14        71.48035
663.57        71.37343
664.00        70.52904
664.42        70.30045
664.85        70.75189
665.27        71.08709
665.70        71.20168
666.13        71.33863
666.55        71.47659
666.98        71.53127
667.41        71.51434
667.83        71.44735
668.26         71.3373
668.69        71.19997
669.11        71.06911
669.54        70.99825
669.96        70.99968
670.39        71.05885
670.82        71.14159
671.24        71.19934
671.67        71.20085
672.09        71.15678
672.52        71.10677
672.94        71.17555
673.37        70.82339
673.80        71.29292
674.22        70.99426
674.65        71.11775
675.07        71.24783
675.50        71.40459
675.92        71.54848
676.35        71.60605
676.77        71.58141
677.20        71.46857
677.62        71.34082
678.05        71.31757
678.47        71.41475
678.90        71.60257
679.32        71.77888
679.75        71.79048
680.17        71.60355
680.60        71.28796
681.02         70.9532
681.45        70.76135
681.87        70.75854
682.30        70.92081
682.72        71.19288
683.15        71.31608
683.57        71.32622
684.00        71.53402
684.42        71.87211
684.85        72.02853
685.27        71.98873
685.70        71.79666
686.12        71.58279
686.54        71.83311
686.97        72.41505
687.39        72.64426
687.82        72.44516
688.24        72.36122
688.66        72.39106
689.09        72.19189
689.51        71.83511
689.94        71.61932
690.36        71.57853
690.78         71.6294
691.21        71.73237
691.63        71.82822
692.06        71.88799
692.48        71.94496
692.90        71.98096
693.33         71.9539
693.75        71.86845
694.17        71.72659
694.60        71.58392
695.02        71.53712
695.44        71.59909
695.87        71.78887
696.29        72.03718
696.71        72.07388
697.14        71.92942
697.56        71.90235
697.98         72.0156
698.41        72.05613
698.83         72.0294
699.25        72.12331
699.68        72.27841
700.10        72.33644
700.52        72.26087
700.94        72.13261
701.37        71.98473
701.79        71.86988
702.21        71.80223
702.64        71.78054
703.06        71.79785
703.48        71.85624
703.90         71.9496
704.33        72.08287
704.75        72.21133
705.17        72.33332
705.59        72.41897
706.01        72.47762
706.44        72.50124
706.86         72.5002
707.28        72.48137
707.70        72.40251
708.12        72.32578
708.55        72.43119
708.97        72.68233
709.39        72.82116
709.81        72.82773
710.23        72.90318
710.66          73.036
711.08        73.10305
711.50        73.10569
711.92        73.15237
712.34        73.25328
712.76        73.37935
713.19        73.47538
713.61        73.49915
714.03        73.42389
714.45        73.28367
714.87        73.15044
715.29        73.12859
715.71        73.23512
716.13        73.42969
716.56        73.63068
716.98        73.78912
717.40        73.84109
717.82         73.8178
718.24        73.73048
718.66         73.5991
719.08        73.44437
719.50        73.26159
719.92         73.1006
720.34         73.0422
720.76        73.09837
721.19        73.24102
721.61        73.41527
722.03        73.49585
722.45        73.45155
722.87        73.31592
723.29        73.14578
723.71        73.03786
724.13        73.02104
724.55        73.06423
724.97        73.14055
725.39        73.20395
725.81        73.24208
726.23        73.28161
726.65        73.32184
727.07        73.36082
727.49        73.39726
727.91        73.40882
728.33        73.43179
728.75        73.53131
729.17        73.70905
729.59        73.95287
730.01        74.15071
730.43        74.11738
730.85        73.83815
731.27        73.39269
731.69        72.95962
732.10        72.81456
732.52        73.01123
732.94        73.46249
733.36        74.02747
733.78        74.42115
734.20        74.53726
734.62        74.53333
735.04        74.47127
735.46        74.24377
735.88        73.98816
736.30        74.14384
736.72        74.58122
737.13        74.68266
737.55        74.33279
737.97        73.86091
738.39        73.44754
738.81        73.16476
739.23        73.13507
739.65        73.60288
740.06         74.2951
740.48        74.59785
740.90        74.40771
741.32        73.99068
741.74        73.55147
742.16         73.3445
742.57        73.46752
742.99        73.83835
743.41        74.29265
743.83        74.51379
744.25        74.45408
744.67         74.3037
745.08         74.1714
745.50        74.11134
745.92        74.17222
746.34        74.34374
746.75        74.55142
747.17        74.65576
747.59        74.62609
748.01        74.54018
748.42        74.43218
748.84        74.28889
749.26        74.17294
749.68        74.13491
750.09        74.16326
750.51        74.28477
750.93        74.42529
751.35        74.41592
751.76        74.28097
752.18        74.22241
752.60        74.25405
753.01        74.25683
753.43        74.21137
753.85        74.18828
754.27        74.20493
754.68          74.271
755.10        74.37158
755.52        74.48074
755.93        74.56655
756.35         74.6077
756.77        74.68626
757.18        74.83789
757.60        75.05826
758.02        75.61878
758.43        76.24489
758.85        75.86324
759.26         74.7485
759.68        74.46471
760.10        75.05087
760.51        75.39169
760.93        75.37048
761.34        75.45309
761.76         75.5648
762.18        75.47052
762.59        75.18742
763.01        74.68111
763.42        74.14651
763.84        73.91838
764.26         74.0732
764.67        74.37809
765.09         74.7524
765.50        75.23669
765.92        75.68282
766.33        75.67212
766.75        75.19399
767.16        74.93999
767.58        74.95704
768.00        74.79698
768.41        74.51932
768.83        74.67033
769.24        75.10335
769.66        75.09742
770.07        74.71384
770.49        74.63063
770.90         74.8898
771.32         75.1966
771.73        75.47711
772.15        75.58743
772.56        75.50478
772.97        75.56981
773.39         75.3138
773.80        75.33696
774.22         75.4734
774.63        75.74334
775.05        76.00128
775.46        76.11536
775.88        76.02015
776.29        75.80084
776.70        75.53401
777.12        75.36705
777.53        75.34588
777.95        75.40098
778.36        75.51851
778.77         75.6452
779.19        75.75838
779.60        75.96827
780.02        76.16926
780.43        76.19088
780.84        76.08434
781.26        75.89641
781.67        75.76618
782.09        76.25702
782.50         77.0963
782.91        76.98376
783.33         76.0157
783.74        75.56376
784.15        75.71064
784.57        75.66785
784.98        75.43839
785.39        75.40719
785.81        75.58943
786.22        75.87762
786.63        76.23186
787.04         76.5874
787.46        76.90833
787.87        77.17666
788.28        77.40329
788.70        77.58319
789.11         77.7013
789.52        77.82241
789.93        77.88663
790.35        77.67823
790.76        77.26988
791.17        76.97128
791.58        76.86947
792.00        76.82175
792.41        76.85893
792.82        77.14329
793.23        77.58162
793.65        77.76931
794.06        77.73412
794.47        77.90059
794.88        78.18387
795.29        78.14977
795.71        77.76045
796.12        77.28531
796.53        76.88216
796.94        76.75366
797.35        76.97872
797.76        77.50426
798.18          78.141
798.59        78.62131
799.00        78.83116
799.41        78.83694
799.82        78.71413
800.23        78.60403
800.64        78.56075
801.06        78.51493
801.47        78.49384
801.88        78.46321
802.29        78.41646
802.70        78.37214
803.11        78.35351
803.52          78.382
803.93        78.46542
804.34          78.598
804.75        78.72811
805.17        78.79867
805.58        78.82762
805.99        78.71352
806.40        78.54217
806.81        78.69736
807.22        79.08772
807.63        79.11241
808.04         78.8035
808.45        78.72118
808.86        78.90068
809.27        79.03082
809.68        79.03032
810.09        78.93036
810.50         78.7205
810.91        78.38472
811.32        78.07774
811.73        78.04668
812.14        78.33533
812.55         78.8903
812.96        79.48606
813.37        79.70107
813.78        79.43908
814.19        78.85492
814.60        78.22054
815.01        77.92706
815.42        78.06174
815.83        78.49777
816.24        79.09773
816.65        79.58048
817.05        79.81349
817.46        79.84502
817.87        79.72653
818.28        79.47243
818.69        79.12482
819.10         78.6771
819.51        78.25249
819.92        78.09396
820.33        78.26232
820.74        78.68204
821.14        79.22445
821.55        79.68565
821.96        79.98649
822.37        80.18292
822.78          80.243
823.19        80.12718
823.60        79.85114
824.00        79.41537
824.41        78.95876
824.82        78.73943
825.23        78.80512
825.64        79.11276
826.04        79.50134
826.45        79.57875
826.86        79.28623
827.27        78.74532
827.68        78.16798
828.08        77.91537
828.49        78.03245
828.90        78.43652
829.31        79.00421
829.72        79.52187
830.12        79.92764
830.53        80.19498
830.94         80.3743
831.35        80.49897
831.75        80.60887
832.16        80.60941
832.57        80.52081
832.97        80.35201
833.38        80.12747
833.79        79.90506
834.20        79.71964
834.60         79.5897
835.01         79.5532
835.42        79.57339
835.82        79.70596
836.23        79.96223
836.64        80.34579
837.04        80.87235
837.45        81.30135
837.86        81.41492
838.26        81.16595
838.67        80.63074
839.08        80.02165
839.48         79.6468
839.89        79.62478
840.29        79.85801
840.70        80.21608
841.11        80.49922
841.51        80.66338
841.92        80.72955
842.33        80.75961
842.73        80.84119
843.14        80.94331
843.54        81.06071
843.95        81.16534
844.35        81.28541
844.76        81.39168
845.17        81.47279
845.57        81.51984
845.98        81.47916
846.38        81.36401
846.79        81.18307
847.19        80.93353
847.60        80.55834
848.00        80.10186
848.41        79.61263
848.81         79.2251
849.22         79.1271
849.62        79.37933
850.03        79.86231
850.43        80.50745
850.84        80.96712
851.24         81.1974
851.65        81.17878
852.05        80.99125
852.46        80.71561
852.86        80.39684
853.27        80.10812
853.67        79.79137
854.07        79.56915
854.48        79.39703
854.88        79.28462
855.29        79.19083
855.69         79.2655
856.10        79.40402
856.50        79.67587
856.90        79.86448
857.31        79.69601
857.71        79.18681
858.12        78.38554
858.52        77.58784
858.92        77.23116
859.33        77.41167
859.73        78.05062
860.13         78.8847
860.54        79.48492
860.94        79.75703
861.34        79.71541
861.75        79.43613
862.15        79.13229
862.55        78.84408
862.96        78.54906
863.36        78.12904
863.76        77.42683
864.17        76.49021
864.57        75.45473
864.97        74.58255
865.38        74.19962
865.78        74.40221
866.18        75.06364
866.58        76.03166
866.99        76.94131
867.39        77.66076
867.79        78.22382
868.19        78.53273
868.60        78.47309
869.00        78.07697
869.40        77.33895
869.80        76.63931
870.21        76.63571
870.61        77.49197
871.01        78.98105
871.41        80.49104
871.81        81.03751
872.22        80.39522
872.62        78.85915
873.02        77.02741
873.42        75.90337
873.82        75.79196
874.22         76.4362
874.63         77.3473
875.03        77.76545
875.43        77.49983
875.83        76.76792
876.23        76.04054
876.63        76.08005
877.03        77.03149
877.44        78.56956
877.84        80.11514
878.24        80.64441
878.64         79.9594
879.04        78.47139
879.44        76.79941
879.84        75.83607
880.24        75.78622
880.64        76.33229
881.04        77.21273
881.44        77.99365
881.84        78.49787
882.24        78.89974
882.65        79.06266
883.05        78.89202
883.45        78.37475
883.85        77.56403
884.25        76.83933
884.65        76.80639
885.05         77.5471
885.45        78.83959
885.85        80.31232
886.25        81.30273
886.65        81.56508
887.05        81.29846
887.45        80.55199
887.85        79.45456
888.25        78.20461
888.65        76.85692
889.04        75.71239
889.44        75.24126
889.84         75.4362
890.24        76.22552
890.64        77.32405
891.04        78.08377
891.44        78.26079
891.84        78.03248
892.24         77.6673
892.64        77.56905
893.04        77.82578
893.44         78.2741
893.83        78.85307
894.23        79.37774
894.63        79.79022
895.03        80.15897
895.43        80.40678
895.83        80.40696
896.23        80.15536
896.63        79.65357
897.02         79.0955
897.42        78.87056
897.82        79.04152
898.22        79.55244
898.62        80.08293
899.01         80.0988
899.41        79.48296
899.81         78.4094
900.21        77.32717
900.61         76.9259
901.00        77.33318
901.40        78.33197
901.80        79.41778
902.20        79.76096
902.59        79.16908
902.99         77.9319
903.39        76.55714
903.79        75.79977
904.18        75.84352
904.58        76.47116
904.98        77.32739
905.38        77.87658
905.77         77.9352
906.17        77.65706
906.57        77.27806
906.96        77.19448
907.36        77.46369
907.76         77.9809
908.15        78.45289
908.55        78.28381
908.95        77.45332
909.34        76.18794
909.74        75.05234
910.14        74.75695
910.53        75.47649
910.93        76.91114
911.33        78.69659
911.72        80.26234
912.12        81.29259
912.52         81.9395
912.91        82.24233
913.31        82.26637
913.70        82.08355
914.10        81.61886
914.49        80.96078
914.89        80.25554
915.29        79.58777
915.68        79.00449
916.08        78.57115
916.47        78.21304
916.87        77.97618
917.26         77.8437
917.66        77.89125
918.05        78.26618
918.45        78.90112
918.84        79.76311
919.24        80.54411
919.64        80.88931
920.03        80.71346
920.42        80.11399
920.82        79.35286
921.21        78.73557
921.61         78.3853
922.00         78.2379
922.40        78.26536
922.79        78.50564
923.19          78.882
923.58        79.39539
923.98        79.89899
924.37        80.16479
924.77        80.13638
925.16        79.87772
925.55        79.47562
925.95        79.09741
926.34         78.8381
926.74        78.64709
927.13        78.54922
927.52        78.54179
927.92        78.61476
928.31        78.75101
928.70        78.90836
929.10        78.99287
929.49        78.97418
929.89        78.83147
930.28        78.59346
930.67         78.2401
931.07        77.80981
931.46        77.36881
931.85        76.97183
932.24        76.69386
932.64        76.57478
933.03        76.61677
933.42        76.86476
933.82         77.3572
934.21         78.0794
934.60        78.91774
934.99        79.75944
935.39         80.4159
935.78         80.8624
936.17        81.09447
936.56        80.95432
936.96        80.26661
937.35        79.10818
937.74        77.64347
938.13        76.31756
938.53        75.65797
938.92        75.71271
939.31        76.40996
939.70        77.42529
940.09         78.1022
940.49        78.20043
940.88        77.88079
941.27        77.46313
941.66        77.47377
942.05        78.02723
942.44        78.97599
942.84        79.91448
943.23        80.22827
943.62        79.69821
944.01        78.54356
944.40        77.33337
944.79        76.88433
945.18        77.36101
945.57        78.55038
945.97        79.81786
946.36        80.30998
946.75        79.68044
947.14        78.22926
947.53        76.64913
947.92        75.97334
948.31        76.45409
948.70        77.82999
949.09         79.4445
949.48        80.12241
949.87        79.53031
950.26        78.03571
950.65        76.44799
951.04        75.89119
951.43        76.59358
951.82        78.26497
952.21        80.12273
952.60        80.74558
952.99        79.75993
953.38        77.65382
953.77        75.48355
954.16         74.6435
954.55        75.40431
954.94        77.47816
955.33        79.93923
955.72        80.80064
956.11        79.42579
956.50        76.53549
956.89        73.57661
957.28        72.41745
957.66        73.44779
958.05        76.05757
958.44        79.24342
958.83        80.95465
959.22        80.47632
959.61        78.53966
960.00        76.20401
960.39        74.80265
960.78        74.60452
961.16        75.21542
961.55         76.1273
961.94        76.48348
962.33        75.99857
962.72        75.12412
963.11        74.22527
963.49        73.73263
963.88        73.76721
964.27        74.11617
964.66         74.7944
965.04        75.91286
965.43        77.28619
965.82        78.87655
966.21        80.26791
966.60        80.71368
966.98        80.08859
967.37        78.72549
967.76        77.08307
968.15        75.76524
968.53        74.91929
968.92        74.32653
969.31           74.13
969.69        74.59586
970.08        75.66036
970.47        77.41497
970.86        79.14697
971.24         79.6068
971.63        78.53157
972.02        76.31615
972.40        74.10369
972.79        73.73837
973.17         75.5237
973.56        78.77833
973.95        82.45432
974.33        84.55246
974.72        84.34242
975.11        82.50821
975.49        79.98445
975.88         78.5129
976.26        78.55016
976.65        79.48708
977.04        80.85969
977.42        81.82739
977.81        81.90618
978.19        81.55941
978.58         80.8952
978.96        79.92329
979.35        78.82321
979.74        77.57757
980.12        76.64211
980.51        76.78589
980.89        78.20349
981.28        80.47664
981.66        83.19994
982.05         85.3447
982.43        86.64336
982.82        87.25503
983.20        87.01496
983.59        85.61653
983.97        83.27844
984.35        80.17365
984.74         77.4426
985.12        76.63052
985.51        77.88347
985.89        80.88439
986.28        84.24964
986.66        85.96522
987.04        85.27943
987.43        82.78075
987.81        79.49792
988.20        77.57299
988.58        77.59054
988.96        78.94797
989.35        80.52957
989.73        80.75505
990.12        79.16074
990.50        76.49707
990.88        73.51822
991.27        71.38814
991.65        70.47726
992.03        70.45107
992.42        71.23226
992.80        73.04049
993.18        75.67798
993.56        79.14899
993.95        82.67778
994.33        84.90444
994.71        85.23696
995.10        84.00294
995.48        82.06036
995.86        80.86342
996.24        80.81201
996.63        81.46854
997.01        82.52848
997.39        83.15758
997.77        83.06713
998.15        82.62621
998.54        82.01122
998.92        81.44906
999.30        81.02579
999.68        80.61237
1000.06        80.36829
1000.45        80.57211
1000.83        81.29603
1001.21        82.44495
1001.59        83.64153
1001.97        84.23898
1002.35        84.09682
1002.73        83.42651
1003.12        82.55154
1003.50        81.91573
1003.88        81.72185
1004.26        81.84378
1004.64        82.26183
1005.02        82.93241
1005.40        83.72285
1005.78        84.55202
1006.16         85.2783
1006.54        85.70659
1006.92        85.79844
1007.30        85.62112
1007.69        85.03354
1008.07        84.01582
1008.45        82.60806
1008.83        80.91654
1009.21        79.48768
1009.59          79.163
1009.97        80.08233
1010.35        81.95701
1010.73        84.12326
1011.11        85.46285
1011.49        85.62679
1011.86        84.98041
1012.24        83.66273
1012.62        82.12262
1013.00        80.53312
1013.38        78.71878
1013.76        76.90898
1014.14        75.68364
1014.52        75.24775
1014.90        75.54982
1015.28        76.13757
1015.66        76.15337
1016.04        75.38373
1016.41        74.15481
1016.79        72.71812
1017.17        71.73759
1017.55        71.56314
1017.93        71.95364
1018.31        72.85511
1018.69        74.44579
1019.06        76.97501
1019.44        80.60521
1019.82        85.52709
1020.20        90.29684
1020.58        92.97282
1020.95        93.15456
1021.33        91.64367
1021.71        89.50573
1022.09        86.86696
1022.46        83.10928
1022.84        78.36008
1023.22        73.68214
1023.60        70.71234
1023.97        69.89655
1024.35        70.61143
1024.73        71.84893
