SpectraSmart Spectrum 2.9.0.0
--------- Device Information -----------
Spectrum Name :  反射率_0
Saving Time :  2024/04/30 00:04:28
Spectro-Module Model Name : SE2030-DUVN
Spectro-Module Serial Number : OS361AC55029948
Wavelength Start : 200
Wavelength End : 1025
Wavelength Unit : Wavelength(nm)
Spectrum Unit : Reflectance(%)
-----------Spectrum Setting ------------
Integration Time : 20ms
Average : 10
Boxcar : 0
Background removal :  enabled
linearity correction :  enabled
SC :  disabled
Intensity correction :  disabled
DWT denoise :  enabled
savitzky-golay :  disabled
FFT :  disabled
Running average :  disabled
Kalman :  disabled
High pass :  disabled
---------------BEGIN--------------------
Wavelength(nm)             Reflectance(%)
200.29               0
200.75        65.23724
201.21        51.83233
201.67        37.15593
202.13        24.74194
202.58        16.45215
203.04        11.26529
203.50        11.45509
203.96        21.23769
204.42        40.16459
204.88        65.68549
205.34        86.06106
205.80        85.57377
206.26        68.49921
206.72        46.68963
207.18        28.40013
207.64         18.2269
208.10        14.68318
208.55         14.3936
209.01        17.65095
209.47        24.97314
209.93        33.93348
210.39        43.29504
210.85        49.47575
211.31        49.38317
211.77        42.82209
212.23        28.44499
212.69        8.399712
213.14       -1.341223
213.60        7.806959
214.06        26.92128
214.52        44.47263
214.98        53.35641
215.44        54.91014
215.90        51.93254
216.36        47.54346
216.81        47.38709
217.27        54.32579
217.73        68.29503
218.19        86.71082
218.65        96.72215
219.11          91.134
219.57        76.45188
220.02        62.65382
220.48        55.85312
220.94        54.79881
221.40        57.50303
221.86        61.59171
222.32        60.57987
222.77         53.5724
223.23        46.17177
223.69        40.77843
224.15        37.92802
224.61        36.90525
225.06        36.73277
225.52        37.77075
225.98        40.15234
226.44        43.01562
226.90        45.73685
227.36        47.52333
227.81        47.93525
228.27        47.19761
228.73        45.34331
229.19        43.04305
229.65        41.87265
230.10        42.20327
230.56        43.42626
231.02        44.40565
231.48        44.06341
231.93        42.36167
232.39        39.74845
232.85        37.02938
233.31         35.7967
233.77        36.54864
234.22        38.92828
234.68        41.86934
235.14        43.36502
235.60         42.8852
236.05        41.13413
236.51        39.36955
236.97        39.25188
237.43        41.29327
237.88        45.43856
238.34        51.31911
238.80        57.23065
239.26         61.2457
239.71        63.33906
240.17        63.77642
240.63        63.83146
241.08          64.228
241.54        64.54279
242.00        65.27985
242.46        67.82524
242.91        72.95598
243.37        79.26634
243.83         85.4435
244.28        91.53007
244.74        97.99674
245.20        104.6113
245.66        110.3222
246.11        112.4932
246.57         109.552
247.03        102.9826
247.48        92.82058
247.94        81.19818
248.40        72.65955
248.85        67.67284
249.31        66.66936
249.77        69.10389
250.22         75.1269
250.68        86.42228
251.14        103.9581
251.59        116.8491
252.05        114.4874
252.51        104.4075
252.96        94.94453
253.42        89.75404
253.88        87.15172
254.33        85.48817
254.79        84.48043
255.25        83.47668
255.70        82.23647
256.16        81.48066
256.62        81.06736
257.07        80.77302
257.53          80.842
257.99        80.89566
258.44        80.12697
258.90        78.39714
259.35        75.67905
259.81        73.00017
260.27        70.76875
260.72        69.30795
261.18        68.66661
261.63        68.24168
262.09        67.83064
262.55        66.81236
263.00        65.16386
263.46        63.42115
263.91        61.67429
264.37        60.37119
264.83        59.41363
265.28        58.58487
265.74        57.93272
266.19        57.28857
266.65        56.68567
267.11        56.10262
267.56        55.46078
268.02        54.65483
268.47        53.62167
268.93        52.39721
269.38        51.02861
269.84        49.73946
270.30        48.61306
270.75        47.63453
271.21        46.76301
271.66        45.85867
272.12         44.8912
272.57        43.86214
273.03          42.871
273.48        41.98586
273.94         41.2791
274.39        40.65499
274.85        40.07104
275.31        39.37464
275.76        38.52367
276.22        37.61576
276.67        36.68715
277.13        35.90147
277.58         35.2385
278.04        34.70055
278.49        34.19082
278.95          33.679
279.40        33.10424
279.86         32.5596
280.31        32.02607
280.77        31.60046
281.22         31.2538
281.68        30.99209
282.13        30.78152
282.59         30.6415
283.04        30.52998
283.50        30.43379
283.95        30.30052
284.41        30.07223
284.86        29.73521
285.32        29.37119
285.77        28.96938
286.22        28.59082
286.68        28.27335
287.13        27.96537
287.59        27.77063
288.04        27.78162
288.50        28.00899
288.95        28.37883
289.41        28.74401
289.86        28.83975
290.32        28.65922
290.77         28.2898
291.22         27.9103
291.68         27.8025
292.13        28.02795
292.59        28.51858
293.04        29.20161
293.50        30.00367
293.95        30.88564
294.40         31.8952
294.86        32.96725
295.31        34.00578
295.77        34.99257
296.22        35.92618
296.68        36.92424
297.13        38.15672
297.58        39.64889
298.04        41.30262
298.49        42.96396
298.95         44.4016
299.40        45.55976
299.85        46.53619
300.31        47.44772
300.76          48.399
301.21        49.47756
301.67        50.67184
302.12         51.9769
302.58        53.52919
303.03        55.29241
303.48        57.15491
303.94        59.02644
304.39        61.13967
304.84        62.76436
305.30        64.48914
305.75        66.10976
306.20        67.71371
306.66        69.32632
307.11        70.87525
307.57        72.39175
308.02        73.81009
308.47         75.1734
308.93        76.51633
309.38        77.84044
309.83        79.21814
310.29         80.6498
310.74        82.08145
311.19        83.44807
311.65        84.63924
312.10        85.62254
312.55        86.46429
313.00        87.25499
313.46        88.13857
313.91         89.1392
314.36        90.21207
314.82        91.32046
315.27         92.4338
315.72         93.4901
316.18         94.4863
316.63        95.33276
317.08        95.90127
317.53        96.19941
317.99        96.31503
318.44        96.34605
318.89         96.4689
319.35        96.74599
319.80        97.12254
320.25        97.66508
320.70        98.47186
321.16        99.48821
321.61        100.7211
322.06        101.8649
322.51         102.425
322.97         102.298
323.42        101.6454
323.87        100.8316
324.32        100.4721
324.78        100.7126
325.23         101.443
325.68        102.4004
326.13        103.1235
326.59        103.4365
327.04        103.5123
327.49        103.4911
327.94        103.6475
328.39        104.0511
328.85        104.5422
329.30        105.0639
329.75        105.3391
330.20        105.3091
330.66        105.0861
331.11        104.8338
331.56        104.7244
332.01        104.8462
332.46        105.1486
332.92        105.6111
333.37        106.3484
333.82        107.2773
334.27        108.3569
334.72        109.4316
335.17        110.2443
335.63        110.6955
336.08        110.9095
336.53        110.9377
336.98        110.9541
337.43        111.0475
337.88        111.1827
338.34        111.4386
338.79        111.9567
339.24        112.7334
339.69        113.7436
340.14          114.79
340.59        115.5226
341.05         115.858
341.50        115.8898
341.95        115.7944
342.40        115.8917
342.85        116.2575
343.30          116.76
343.75        117.3082
344.20        117.7541
344.66        118.0599
345.11        118.3191
345.56        118.4625
346.01        118.3595
346.46        118.0452
346.91        117.5671
347.36        117.2347
347.81        117.5246
348.26        118.4836
348.72        119.9227
349.17        121.4579
349.62          122.36
350.07        122.4309
350.52        121.9167
350.97        121.1354
351.42        120.5812
351.87        120.4187
352.32         120.489
352.77        120.7655
353.22        121.2151
353.67        121.7535
354.13        122.3601
354.58        122.8557
355.03        122.9298
355.48        122.5128
355.93        121.6952
356.38         120.606
356.83        119.4623
357.28        118.3646
357.73        117.2854
358.18        116.2977
358.63        115.5017
359.08        114.9009
359.53        114.4781
359.98        114.1119
360.43          113.59
360.88        112.8645
361.33        111.9973
361.78         111.075
362.23        110.2456
362.68        109.5532
363.13         108.943
363.58        108.3979
364.03        107.8924
364.48        107.4009
364.93        106.9308
365.38        106.4319
365.83        105.8237
366.28        105.0972
366.73        104.2733
367.18        103.4211
367.63        102.6512
368.08        101.9886
368.53        101.4084
368.98        100.8625
369.43        100.2612
369.88        99.59911
370.33        98.93406
370.78        98.30566
371.23        97.78024
371.68        97.36642
372.13        96.99198
372.58        96.68526
373.03        96.50099
373.48        96.39893
373.93        96.34727
374.38        96.12173
374.83        95.36678
375.28        94.08001
375.72        92.42355
376.17        90.81543
376.62        89.69887
377.07        89.16509
377.52        89.04527
377.97        89.19437
378.42        89.36493
378.87        89.43121
379.32        89.45117
379.77        89.32517
380.22        88.90551
380.67        88.18453
381.11        87.18333
381.56        86.09886
382.01        85.29845
382.46        84.89314
382.91         84.8186
383.36        84.86416
383.81        84.68616
384.26        84.20462
384.71        83.50911
385.15         82.8035
385.60        82.46442
386.05         82.5242
386.50        82.84636
386.95        83.14314
387.40          82.981
387.85        82.30761
388.29        81.26919
388.74        80.26211
389.19        79.61058
389.64        79.37611
390.09        79.40253
390.54        79.55856
390.98        79.61579
391.43         79.5282
391.88          79.364
392.33        79.07642
392.78        78.66612
393.23        78.17429
393.67        77.44084
394.12        76.66998
394.57        76.67092
395.02        76.35998
395.47        76.56634
395.91        76.83184
396.36          76.907
396.81        76.72459
397.26        76.37565
397.71        75.97098
398.15        75.56396
398.60         75.2703
399.05        75.14391
399.50        75.11277
399.95        74.85585
400.39        74.23237
400.84        74.50988
401.29        75.38551
401.74        75.57191
402.18        74.95095
402.63        74.19362
403.08        73.59361
403.53        73.29743
403.97        73.36228
404.42         73.7043
404.87        74.11599
405.32        74.21342
405.76        73.90056
406.21        73.50018
406.66        73.05977
407.11        72.36921
407.55        71.69659
408.00        71.58102
408.45        72.01625
408.90        72.73163
409.34        73.38553
409.79         73.2509
410.24        72.53683
410.68        72.36993
411.13        72.81647
411.58        73.17213
412.03         73.2948
412.47        73.30923
412.92        73.15702
413.37        72.85186
413.81        72.45721
414.26        72.14806
414.71        71.93346
415.15        71.78967
415.60         71.7114
416.05        71.73166
416.49        71.84659
416.94        72.05101
417.39        72.24722
417.83        72.25388
418.28        72.05383
418.73        71.70628
419.17        71.35683
419.62        71.26492
420.07        71.45637
420.51        71.78609
420.96        72.16239
421.41        72.37841
421.85        72.31308
422.30        72.22412
422.74        72.05351
423.19        71.41891
423.64        70.56753
424.08        70.59457
424.53        71.41135
424.98        71.84052
425.42        71.77083
425.87        72.08074
426.31        72.65582
426.76        72.48515
427.21        71.62151
427.65        71.66149
428.10        72.40723
428.54        72.49097
428.99        71.90655
429.44         71.3595
429.88        71.04261
430.33        70.95929
430.77        71.07447
431.22        71.72871
431.66        72.62856
432.11        72.47044
432.56        71.39344
433.00        71.15479
433.45        72.05054
433.89         72.5575
434.34        72.52544
434.78        74.52671
435.23        72.24223
435.67         71.4772
436.12        70.78941
436.57        70.90777
437.01         71.6087
437.46        72.26294
437.90        71.98261
438.35        72.22595
438.79        72.79103
439.24        72.98705
439.68        72.85748
440.13        72.84463
440.57        73.00929
441.02        73.12537
441.46        73.15391
441.91        73.43121
442.35        73.60199
442.80        73.58875
443.24        73.34248
443.69        73.19045
444.13        73.14098
444.58        73.03544
445.02        72.85027
445.47        72.74062
445.91        72.72012
446.36        72.74335
446.80        72.78284
447.24        72.93433
447.69        73.10387
448.13        73.13881
448.58        73.07429
449.02        73.13161
449.47        73.31077
449.91        73.39006
450.36         73.3757
450.80        73.36458
451.25        73.39146
451.69        73.41867
452.13        73.45679
452.58        73.55262
453.02        73.64132
453.47        73.62228
453.91         73.4631
454.36        73.31803
454.80         72.9757
455.24        73.03718
455.69        73.33385
456.13        73.60638
456.58        73.79582
457.02        73.29177
457.46        73.12466
457.91        72.90633
458.35        72.89719
458.79        72.82101
459.24        72.71028
459.68        72.76926
460.13        73.00161
460.57        72.92254
461.01        73.01962
461.46        72.94921
461.90        72.86091
462.34        72.67471
462.79        72.41566
463.23        72.34524
463.68        72.37672
464.12        72.23031
464.56        71.94063
465.01        71.49792
465.45        71.04395
465.89        71.27467
466.34        72.01891
466.78        72.20684
467.22        72.01237
467.67        71.75208
468.11        71.58595
468.55        71.26511
468.99        70.87363
469.44        70.56013
469.88        70.36603
470.32        70.34261
470.77        70.43149
471.21         70.4952
471.65        70.48297
472.10        70.45406
472.54        70.43417
472.98        70.46867
473.42        70.54874
473.87        70.73226
474.31        70.91222
474.75        70.73637
475.20         70.2859
475.64        70.18513
476.08        70.43718
476.52        70.25008
476.97        69.53516
477.41         69.9328
477.85        69.32262
478.29        69.16119
478.74         69.8678
479.18        70.12225
479.62        69.45243
480.06         69.3524
480.50        69.62614
480.95        69.43006
481.39        69.93038
481.83        69.20789
482.27        70.49013
482.72        70.09017
483.16          69.971
483.60        69.85089
484.04        70.06726
484.48        70.41602
484.93        70.61674
485.37        70.14748
485.81        69.52238
486.25        68.48923
486.69        70.23648
487.14        70.14175
487.58         69.3839
488.02        68.66782
488.46        70.18513
488.90        70.09152
489.34        68.87784
489.79        70.00581
490.23        69.06853
490.67        69.27594
491.11        69.24503
491.55        69.06802
491.99        68.77474
492.43        68.65269
492.88        68.75507
493.32        68.90208
493.76        69.05897
494.20        69.23433
494.64        69.39443
495.08        69.59483
495.52        69.76299
495.96        69.62547
496.41        69.28589
496.85        69.18004
497.29        69.22317
497.73        69.34579
498.17        68.76058
498.61        68.50589
499.05        68.44777
499.49        68.48569
499.93        68.50578
500.37        68.57884
500.82        68.80368
501.26        68.20724
501.70        68.55112
502.14        69.08208
502.58        68.78296
503.02        68.91245
503.46        69.02238
503.90        69.10982
504.34        69.13095
504.78        69.10976
505.22          69.047
505.66        68.92385
506.10        68.78648
506.54        68.72062
506.98        68.69081
507.42        68.91794
507.86        68.38384
508.30        68.65914
508.74        68.21223
509.18        68.00577
509.62        67.76785
510.06        67.75263
510.50        67.98606
510.94        68.39728
511.38        68.84629
511.82        69.06564
512.26        68.99031
512.70        68.69887
513.14        68.32342
513.58        68.08803
514.02        68.05685
514.46        68.13267
514.90        68.22833
515.34        68.39246
515.78        68.28713
516.22         68.1946
516.66        68.08274
517.10        68.03879
517.54        68.07848
517.98        68.17493
518.42        68.26585
518.86        68.25053
519.30        68.11233
519.74        67.88701
520.18        67.66238
520.62        67.56859
521.06        67.63741
521.50        67.83867
521.93        68.08654
522.37        68.21582
522.81        68.19468
523.25        68.06113
523.69        67.92094
524.13        67.93938
524.57        68.14217
525.01        68.46758
525.45        68.78334
525.89        68.87779
526.32        68.69667
526.76        68.33983
527.20        67.93585
527.64        67.68449
528.08         67.6384
528.52        67.73547
528.96        67.90237
529.40        68.02235
529.83        68.05186
530.27        68.03727
530.71        67.99949
531.15        67.97498
531.59        67.97443
532.03        67.97578
532.46        67.96093
532.90        67.93687
533.34        67.89689
533.78        67.85186
534.22         67.8061
534.66        67.76131
535.09        67.71478
535.53        67.68084
535.97        67.65781
536.41        67.65841
536.85        67.68071
537.28        67.71265
537.72        67.74137
538.16        67.74139
538.60        67.70409
539.04        67.63832
539.47        67.53507
539.91        67.43661
540.35        67.33734
540.79        67.24837
541.22        67.17194
541.66        67.12366
542.10        67.10291
542.54        67.10835
542.97        67.14397
543.41        67.23348
543.85        67.36298
544.29        67.53567
544.72        67.67326
545.16        67.69246
545.60        67.57799
546.04        67.32829
546.47         67.0602
546.91        67.06738
547.35        67.34153
547.79        67.60113
548.22        67.72859
548.66         67.9089
549.10        68.12068
549.53        68.02697
549.97         67.5819
550.41         68.1161
550.84        67.59556
551.28        67.55299
551.72        67.37754
552.15        67.53844
552.59        67.17014
553.03         67.4782
553.46        67.30354
553.90        67.39146
554.34        67.45271
554.77        67.53623
555.21        67.61839
555.65        67.61446
556.08        67.53833
556.52        67.47849
556.96        67.46347
557.39        67.55187
557.83        67.72758
558.27        67.84674
558.70        67.89884
559.14        67.95047
559.57         67.9668
560.01        68.00151
560.45        68.04392
560.88        67.77236
561.32        67.60697
561.75         67.6201
562.19        67.85243
562.63        67.80806
563.06        67.51189
563.50        67.42279
563.93        67.52081
564.37        67.55753
564.80        67.50954
565.24        67.52815
565.68         67.5849
566.11        67.62695
566.55        67.64767
566.98        67.54939
567.42        67.44795
567.85        67.42239
568.29        67.47968
568.72        67.72396
569.16        68.23465
569.60        67.67592
570.03        68.11267
570.47        68.13642
570.90        68.38816
571.34        67.78693
571.77        68.19772
572.21        68.22036
572.64        68.32834
573.08        68.13908
573.51        67.78291
573.95        67.94373
574.38        68.57443
574.82        68.48172
575.25         68.3196
575.69        67.92286
576.12        67.47578
576.56         67.4229
576.99        67.60873
577.42         67.7518
577.86        67.61182
578.29        67.63439
578.73        68.42766
579.16        68.17072
579.60        67.83353
580.03        67.95431
580.47        68.19604
580.90        68.36443
581.33        67.79982
581.77        67.86774
582.20        68.12116
582.64        68.50117
583.07        68.07082
583.51        67.73451
583.94        67.50432
584.37        67.24197
584.81        67.22206
585.24        67.47578
585.68        67.94935
586.11        68.71339
586.54        67.95707
586.98        67.72795
587.41        68.32784
587.85        68.02458
588.28        68.37494
588.71        68.68641
589.15        67.74408
589.58        67.94286
590.01        67.43474
590.45          67.587
590.88        67.93277
591.31        68.27799
591.75        68.33284
592.18        68.33194
592.61        68.17369
593.05         67.1848
593.48        67.80043
593.91        68.75466
594.35        67.52635
594.78        67.32034
595.21        67.22975
595.65        67.54265
596.08         67.1843
596.51        67.72894
596.94        67.76467
597.38        67.96286
597.81        67.90443
598.24         67.7701
598.68        67.46999
599.11        67.16666
599.54        68.26414
599.97        68.77494
600.41        67.09004
600.84        67.40831
601.27        67.48722
601.70        67.58678
602.14        67.78909
602.57        67.48521
603.00        67.00375
603.43        66.94601
603.87        67.14651
604.30         67.4688
604.73          67.353
605.16        67.40267
605.60        67.43768
606.03        67.55648
606.46        67.64544
606.89        67.61382
607.32        67.33562
607.76        67.24576
608.19        67.40802
608.62        67.36002
609.05        67.04359
609.48        67.71347
609.92        67.56071
610.35        67.12505
610.78         67.5834
611.21           66.87
611.64        67.06016
612.07        67.19389
612.50        67.27014
612.94        67.53156
613.37        67.92003
613.80        67.28072
614.23         67.8343
614.66        67.76756
615.09        67.73275
615.52        67.79826
615.96        67.92667
616.39        67.74287
616.82        67.25317
617.25        67.44424
617.68        67.09284
618.11        67.35622
618.54        67.71289
618.97        67.67149
619.40        67.29393
619.84        67.14931
620.27        67.32625
620.70        67.55012
621.13        67.67148
621.56        67.29739
621.99        67.19878
622.42        66.39664
622.85        67.07676
623.28        67.28586
623.71        67.72195
624.14        66.65279
624.57        67.49273
625.00        67.42146
625.43        67.45819
625.86        67.12778
626.29        66.76351
626.72        67.23358
627.15        66.73386
627.58        66.82898
628.01         66.9299
628.44        66.96052
628.87         66.9299
629.30         67.0745
629.73        67.37859
630.16        67.54079
630.59        67.52966
631.02        67.64113
631.45        67.57661
631.88        67.53995
632.31        67.44842
632.74        67.32452
633.17        67.18879
633.60        67.07604
634.03        66.99853
634.46        66.96434
634.89        66.96356
635.32         66.9272
635.75        66.87263
636.18        66.92245
636.61        67.04389
637.04        67.08185
637.47         67.0397
637.89        66.96184
638.32        66.83199
638.75          66.794
639.18        66.89204
639.61         66.4332
640.04        66.64684
640.47        66.61433
640.90        66.69814
641.33        66.86737
641.76        67.05369
642.18        67.12291
642.61        67.01465
643.04         66.7785
643.47        66.53561
643.90        66.47215
644.33        66.61977
644.76        66.96002
645.18        67.40469
645.61        67.43359
646.04        66.95972
646.47        66.83655
646.90        67.01319
647.33        66.96151
647.75        66.67368
648.18        66.48755
648.61        66.45235
649.04        66.47092
649.47        66.55648
649.89        66.80293
650.32        67.07877
650.75        67.18925
651.18        67.15678
651.61        66.97817
652.03        66.79916
652.46        67.18961
652.89        67.84718
653.32        67.71605
653.74        66.98933
654.17        66.47639
654.60        65.84484
655.03        67.78535
655.46        66.01842
655.88        67.12457
656.31        67.87014
656.74        69.99821
657.16        70.55539
657.59         68.4443
658.02        66.75073
658.45        67.79928
658.87        67.40041
659.30         67.0127
659.73        67.47089
660.15        67.92312
660.58        67.84283
661.01        67.60764
661.44        67.08358
661.86        66.69825
662.29        66.54272
662.72        66.75955
663.14        67.20261
663.57        67.09666
664.00        66.55019
664.42        66.40009
664.85        66.68934
665.27        66.86579
665.70        66.87799
666.13        66.95594
666.55        67.09751
666.98        67.21755
667.41        67.29204
667.83        67.28969
668.26        67.19559
668.69        67.02909
669.11        66.85684
669.54        66.76409
669.96        66.76772
670.39        66.91298
670.82        67.10645
671.24        67.03596
671.67        66.74212
672.09        66.64613
672.52        66.77663
672.94        66.90963
673.37        66.52986
673.80        67.00988
674.22        66.83982
674.65        67.00928
675.07        67.11417
675.50        67.20526
675.92        67.27441
676.35        67.29988
676.77        67.29768
677.20        67.24663
677.62        67.18081
678.05        67.16035
678.47        67.19076
678.90        67.26109
679.32         67.3216
679.75        67.30309
680.17        67.18949
680.60        67.01838
681.02        66.84003
681.45        66.74033
681.87        66.74478
682.30        66.80647
682.72        66.91542
683.15        67.01147
683.57        67.09859
684.00        67.19879
684.42        67.28711
684.85        67.35977
685.27        67.41849
685.70        67.34101
686.12        67.22174
686.54        67.55229
686.97        68.18838
687.39        68.44445
687.82        68.24948
688.24        68.15278
688.66        68.16535
689.09        67.93185
689.51        67.51782
689.94        67.29501
690.36         67.2823
690.78        67.18089
691.21        67.03011
691.63        67.22875
692.06        67.66145
692.48        67.75336
692.90        67.52184
693.33         67.4461
693.75        67.54386
694.17        67.54249
694.60        67.47325
695.02        67.37099
695.44        67.48754
695.87         67.6375
696.29        67.83949
696.71         67.7898
697.14        67.57616
697.56        67.54837
697.98        67.71456
698.41        67.74664
698.83        67.65134
699.25        67.70885
699.68        67.86967
700.10        67.92511
700.52        67.84107
700.94         67.7272
701.37         67.6029
701.79        67.48701
702.21        67.38988
702.64         67.3165
703.06        67.28708
703.48        67.34476
703.90        67.49123
704.33        67.72208
704.75        67.95206
705.17        68.10742
705.59        68.14203
706.01        68.08309
706.44         67.9826
706.86        67.93876
707.28        67.97455
707.70        68.04483
708.12        68.13766
708.55        68.25629
708.97        68.37279
709.39        68.41473
709.81        68.39458
710.23        68.42709
710.66        68.51506
711.08        68.60377
711.50        68.67767
711.92        68.77488
712.34        68.89204
712.76        69.01811
713.19        69.10355
713.61        69.11172
714.03         69.0185
714.45        68.85106
714.87        68.67491
715.29        68.58569
715.71        68.60415
716.13        68.70397
716.56        68.81855
716.98         68.9173
717.40        68.94792
717.82        68.93144
718.24        68.89174
718.66        68.86727
719.08        68.87006
719.50         68.8833
719.92        68.89816
720.34        68.90364
720.76        68.89503
721.19        68.87135
721.61        68.84763
722.03         68.8133
722.45        68.76607
722.87        68.71651
723.29         68.6755
723.71        68.58324
724.13        68.53646
724.55        68.49369
724.97        68.48607
725.39        68.34222
725.81        68.33497
726.23        68.26383
726.65        68.22573
727.07        68.24549
727.49        68.32561
727.91        68.43653
728.33        68.57124
728.75        68.72578
729.17        68.88345
729.59        69.04812
730.01        69.15325
730.43        69.09329
730.85        68.86909
731.27        68.52868
731.69        68.20921
732.10        68.12478
732.52        68.31795
732.94        68.72791
733.36        69.23017
733.78        69.59069
734.20        69.72363
734.62        69.70152
735.04        69.61021
735.46        69.54259
735.88        69.56329
736.30        69.73501
736.72        69.95599
737.13        70.00836
737.55         69.8047
737.97        69.40057
738.39        68.96173
738.81        68.74071
739.23          68.811
739.65         69.1759
740.06        69.61165
740.48        69.76118
740.90        69.54785
741.32        69.12078
741.74        68.65116
742.16        68.42345
742.57        68.53359
742.99        68.79713
743.41        69.11571
743.83        69.50276
744.25        69.81777
744.67        69.70388
745.08        69.27877
745.50        69.09605
745.92        69.22791
746.34        69.36156
746.75        69.45283
747.17         69.5601
747.59        69.66561
748.01        69.77027
748.42        69.83773
748.84        69.81038
749.26        69.70292
749.68        69.43196
750.09        69.09978
750.51        69.14537
750.93        69.46985
751.35        69.47755
751.76        69.19621
752.18        69.14586
752.60        69.33753
753.01        69.46048
753.43        69.47778
753.85        69.51466
754.27        69.57989
754.68        69.66589
755.10        69.74165
755.52        69.76333
755.93        69.70698
756.35        69.56205
756.77        69.46617
757.18        69.55962
757.60        69.87178
758.02        70.56844
758.43        71.29059
758.85        71.07693
759.26        70.15409
759.68        69.29507
760.10        69.65872
760.51        69.83232
760.93        70.00742
761.34        70.35042
761.76        70.68782
762.18        70.62553
762.59        70.20877
763.01        69.78377
763.42        69.51995
763.84        69.34263
764.26        69.31292
764.67        69.51997
765.09        69.89916
765.50        70.21853
765.92        70.42919
766.33        70.57801
766.75        70.56905
767.16        70.51259
767.58        70.38716
768.00        69.99799
768.41        69.51577
768.83        69.63765
769.24        70.19655
769.66         70.2371
770.07        69.78789
770.49        69.61605
770.90        69.78703
771.32        70.04803
771.73         70.3242
772.15        70.40314
772.56        70.26334
772.97        70.29182
773.39        70.06057
773.80        70.09714
774.22        70.24313
774.63        70.52302
775.05        70.79602
775.46        70.92592
775.88        70.84872
776.29        70.65605
776.70        70.40036
777.12        70.18601
777.53        70.05702
777.95        69.96473
778.36        69.96101
778.77        70.06831
779.19        70.26759
779.60        70.71922
780.02        71.24018
780.43         71.2643
780.84        70.88984
781.26        70.84097
781.67        71.17009
782.09        71.49337
782.50        71.70455
782.91        71.69747
783.33        71.46457
783.74        71.25893
784.15        71.09859
784.57        70.79892
784.98        70.44753
785.39        70.30831
785.81        70.42104
786.22        70.71073
786.63        71.08649
787.04        71.48425
787.46        71.84672
787.87        72.17026
788.28        72.42492
788.70        72.55796
789.11        72.56293
789.52        72.47711
789.93        72.33995
790.35        72.21551
790.76        72.13824
791.17        72.09154
791.58        72.12406
792.00        72.21822
792.41        72.36818
792.82        72.76505
793.23        73.26948
793.65         73.1181
794.06        72.53014
794.47        72.73739
794.88        73.54072
795.29        73.67896
795.71        73.07745
796.12        72.46361
796.53        72.04985
796.94         71.8996
797.35        72.10098
797.76        72.63877
798.18        73.28154
798.59         73.6917
799.00        73.74738
799.41        73.53496
799.82        73.18981
800.23        72.95692
800.64        72.91661
801.06        72.96672
801.47        73.08398
801.88        73.15578
802.29        73.14451
802.70        73.08741
803.11        73.02164
803.52        72.99334
803.93        73.02396
804.34        73.10236
804.75        73.17976
805.17         73.2061
805.58         73.2022
805.99        73.07411
806.40        72.91901
806.81        73.12341
807.22        73.59673
807.63         73.7541
808.04        73.58739
808.45        73.56456
808.86        73.70364
809.27         73.7315
809.68         73.6044
810.09        73.41227
810.50        73.17345
810.91        72.86042
811.32        72.62454
811.73        72.70771
812.14        73.13893
812.55        73.85229
812.96        74.59672
813.37        74.90257
813.78        74.65157
814.19        74.01248
814.60        73.24837
815.01        72.73417
815.42        72.56809
815.83        72.63622
816.24         72.8801
816.65        73.17648
817.05        73.44686
817.46        73.69763
817.87        73.88757
818.28        73.89265
818.69        73.70867
819.10        73.35625
819.51        72.96188
819.92        72.78197
820.33        72.89001
820.74        73.20184
821.14        73.61489
821.55        73.97136
821.96        74.20663
822.37        74.37795
822.78        74.44745
823.19          74.353
823.60          74.101
824.00        73.69724
824.41        73.28049
824.82        73.10759
825.23        73.22633
825.64        73.59184
826.04        74.03423
826.45        74.15888
826.86        73.90147
827.27        73.38196
827.68        72.83159
828.08        72.64063
828.49        72.86401
828.90        73.41904
829.31        74.14447
829.72        74.76015
830.12        75.18581
830.53        75.40625
830.94        75.53654
831.35        75.72994
831.75        76.03946
832.16        76.32448
832.57        76.49094
832.97         76.3564
833.38        75.91348
833.79         75.3184
834.20          74.703
834.60        74.22052
835.01        73.95766
835.42        73.83405
835.82        73.94909
836.23        74.39346
836.64         75.1524
837.04        76.20375
837.45         77.1441
837.86        77.46001
838.26        77.02882
838.67         76.0173
839.08        74.79291
839.48        73.91737
839.89        73.59573
840.29        73.66855
840.70        73.99355
841.11        74.34212
841.51        74.64017
841.92        74.92982
842.33        75.20598
842.73        75.42725
843.14        75.53566
843.54        75.54863
843.95        75.50417
844.35        75.55407
844.76        75.70059
845.17        75.87968
845.57        76.06411
845.98        76.17123
846.38        76.19048
846.79        76.15555
847.19         75.9895
847.60        75.51437
848.00        74.76891
848.41        73.84397
848.81        73.03392
849.22        72.76941
849.62        73.16325
850.03         74.0534
850.43        75.20377
850.84         75.9657
851.24        76.19023
851.65        75.93819
852.05         75.4586
852.46        75.12697
852.86        75.04469
853.27        75.14587
853.67        75.22123
854.07        75.19208
854.48        74.98508
854.88        74.68231
855.29        74.31467
855.69        74.15434
856.10        74.17685
856.50        74.40841
856.90        74.63414
857.31        74.57944
857.71        74.23607
858.12        73.64708
858.52        73.04647
858.92         72.7627
859.33        72.86641
859.73        73.31547
860.13        73.87667
860.54        74.18075
860.94         74.1675
861.34        73.84113
861.75        73.36702
862.15         73.0921
862.55        73.07179
862.96        73.23969
863.36         73.3026
863.76        72.82546
864.17        71.79578
864.57        70.42474
864.97        69.13831
865.38        68.52446
865.78        68.74066
866.18        69.58898
866.58        70.79022
866.99        71.73449
867.39        72.20107
867.79        72.32326
868.19        72.14671
868.60        71.74901
869.00        71.21948
869.40        70.50948
869.80        69.91592
870.21         69.9607
870.61        70.76429
871.01        72.13075
871.41        73.56028
871.81        74.24057
872.22        73.96996
872.62        72.98341
873.02        71.67808
873.42        70.73983
873.82        70.40762
874.22         70.5176
874.63        70.84616
875.03         71.0427
875.43        71.01192
875.83        70.87787
876.23        70.83591
876.63        71.18154
877.03        71.94253
877.44        72.92199
877.84        73.87049
878.24        74.30937
878.64        74.13253
879.04        73.52757
879.44        72.73311
879.84        72.09479
880.24        71.72163
880.64        71.51138
881.04        71.47964
881.44        71.63823
881.84         71.9669
882.24        72.50643
882.65        73.04472
883.05        73.33417
883.45        73.25691
883.85        72.88813
884.25        72.51779
884.65        72.61887
885.05        73.25558
885.45        74.22324
885.85        75.22976
886.25        75.77776
886.65        75.69588
887.05        75.16959
887.45        74.26134
887.85        73.10024
888.25        71.87791
888.65        70.65662
889.04        69.69145
889.44        69.37738
889.84        69.69289
890.24        70.55434
890.64        71.69633
891.04        72.51673
891.44        72.76801
891.84        72.60753
892.24        72.23539
892.64        71.95864
893.04        71.86855
893.44        71.85128
893.83         71.9613
894.23        72.22623
894.63        72.64735
895.03        73.22267
895.43        73.78264
895.83        74.05386
896.23        73.98087
896.63        73.60838
897.02        73.11791
897.42        72.88634
897.82        72.98438
898.22        73.34428
898.62        73.72569
899.01        73.73312
899.41        73.27978
899.81        72.51512
900.21        71.76637
900.61        71.52939
901.00        71.89141
901.40        72.67767
901.80        73.52657
902.20        73.85283
902.59        73.50154
902.99        72.66109
903.39        71.64639
903.79        70.92124
904.18         70.6212
904.58        70.65314
904.98        70.82936
905.38        70.87115
905.77        70.69186
906.17        70.38461
906.57        70.14283
906.96        70.29163
907.36        70.84593
907.76        71.70481
908.15        72.55373
908.55        72.75384
908.95        72.24863
909.34        71.25374
909.74         70.2743
910.14        69.95317
910.53        70.47803
910.93        71.58381
911.33        73.04708
911.72        74.52265
912.12        75.74781
912.52        76.81219
912.91        77.60862
913.31        77.94238
913.70        77.79633
914.10        77.16896
914.49        76.23943
914.89         75.2962
915.29        74.47703
915.68        73.78785
916.08        73.27531
916.47        72.84581
916.87         72.5331
917.26        72.33121
917.66        72.32755
918.05        72.66949
918.45        73.29562
918.84        74.17905
919.24        74.97136
919.64        75.24914
920.03        74.91806
920.42        74.08269
920.82         73.1185
921.21        72.51019
921.61        72.39922
922.00        72.67122
922.40        73.10619
922.79        73.40659
923.19          73.438
923.58        73.32778
923.98        73.17568
924.37        73.13988
924.77        73.24937
925.16         73.4278
925.55        73.59887
925.95        73.66129
926.34        73.60313
926.74        73.45695
927.13        73.25344
927.52        72.99586
927.92        72.72157
928.31           72.43
928.70        72.18765
929.10        72.08601
929.49        72.13905
929.89         72.2813
930.28         72.4842
930.67        72.61317
931.07        72.61956
931.46        72.56307
931.85        72.41325
932.24        72.13411
932.64        71.76389
933.03         71.3373
933.42        71.01008
933.82        71.03199
934.21        71.46654
934.60        72.17633
934.99        73.01682
935.39        73.71843
935.78        74.22616
936.17        74.58221
936.56         74.6129
936.96        74.10192
937.35        73.10226
937.74        71.73671
938.13        70.49926
938.53        70.01379
938.92        70.33989
939.31        71.38879
939.70        72.69051
940.09        73.31814
940.49        72.97968
940.88        71.94025
941.27          70.789
941.66        70.41554
942.05          71.008
942.44        72.34946
942.84        73.81704
943.23        74.35873
943.62        73.64236
944.01        72.02634
944.40        70.35782
944.79        69.87139
945.18        70.80757
945.57        72.79514
945.97        74.95368
946.36        75.98897
946.75        75.41266
947.14        73.67366
947.53        71.61691
947.92         70.5078
948.31        70.67432
948.70        71.75648
949.09        73.13913
949.48        73.72822
949.87        73.19611
950.26        71.93914
950.65        70.56913
951.04        69.89664
951.43        70.11178
951.82        70.98438
952.21        72.05758
952.60        72.53123
952.99        72.15734
953.38        71.17471
953.77        70.17523
954.16        69.94157
954.55         70.6299
954.94        72.11819
955.33        73.73346
955.72        74.06735
956.11        72.72491
956.50        70.21457
956.89        67.78275
957.28         67.0469
957.66        68.32053
958.05         71.1122
958.44        74.36253
958.83        75.89278
959.22        75.01014
959.61        72.50005
960.00        69.63056
960.39        68.01482
960.78        67.95256
961.16        68.97281
961.55        70.42159
961.94        71.08579
962.33        70.53873
962.72        69.33798
963.11        67.97165
963.49        67.04093
963.88         66.7142
964.27        66.72908
964.66        67.11186
965.04        67.99633
965.43        69.22872
965.82        70.81035
966.21        72.31422
966.60        72.93845
966.98        72.53693
967.37         71.4175
967.76        70.08127
968.15        69.22417
968.53        68.99661
968.92         69.1375
969.31        69.66365
969.69        70.59562
970.08        71.76858
970.47        73.30524
970.86        74.58559
971.24        74.55379
971.63        73.04681
972.02        70.44841
972.40        67.88137
972.79        67.11761
973.17        68.44981
973.56        71.23614
973.95        74.49541
974.33        76.34024
974.72        76.07301
975.11        74.32656
975.49         71.9432
975.88        70.52122
976.26        70.47441
976.65        71.26088
977.04        72.45509
977.42         73.2963
977.81        73.35458
978.19        73.04082
978.58         72.5204
978.96        71.90508
979.35        71.34632
979.74        70.75403
980.12        70.39452
980.51        70.70845
980.89        71.81614
981.28        73.46106
981.66        75.34619
982.05        76.66084
982.43        77.24968
982.82        77.20031
983.20        76.63412
983.59        75.72717
983.97        74.68183
984.35        73.48878
984.74        72.54004
985.12        72.31496
985.51        72.81593
985.89        74.04665
986.28        75.39891
986.66         76.1804
987.04        76.01881
987.43        75.16192
987.81        73.98103
988.20        73.43542
988.58        73.69363
988.96         74.4929
989.35        75.19082
989.73        74.99741
990.12        73.69777
990.50        71.74129
990.88        69.57328
991.27        67.90665
991.65        66.95502
992.03        66.53519
992.42        66.74739
992.80        68.05057
993.18         70.3047
993.56        73.43696
993.95        76.52497
994.33        77.95345
994.71        77.17868
995.10        74.77045
995.48        71.85076
995.86        70.19562
996.24        70.25082
996.63        71.39651
997.01        73.32951
997.39        75.20594
997.77         76.5638
998.15        77.71835
998.54        78.28551
998.92        77.65541
999.30        75.80872
999.68        72.80916
1000.06        69.67628
1000.45        68.40828
1000.83        69.63301
1001.21        72.81105
1001.59        76.71289
1001.97        79.21243
1002.35         79.6827
1002.73        78.78135
1003.12        77.11465
1003.50        75.58205
1003.88        74.62373
1004.26          73.937
1004.64        73.74326
1005.02         74.4624
1005.40        75.99297
1005.78         78.1124
1006.16        80.26098
1006.54        81.64248
1006.92        82.08389
1007.30        81.75436
1007.69        80.69466
1008.07        79.29067
1008.45        77.76254
1008.83        76.10945
1009.21        74.68392
1009.59        74.00375
1009.97        74.15519
1010.35        75.02335
1010.73        76.24943
1011.11        77.15644
1011.49        77.49626
1011.86        77.47303
1012.24        76.92258
1012.62        75.86182
1013.00        74.30688
1013.38        72.11804
1013.76        69.70972
1014.14        68.05135
1014.52        67.53819
1014.90        68.14311
1015.28        69.03135
1015.66         68.7208
1016.04        66.91867
1016.41        64.06527
1016.79        61.34429
1017.17        61.04352
1017.55        63.34787
1017.93         66.8595
1018.31        70.29147
1018.69         72.7723
1019.06        74.50996
1019.44        75.88193
1019.82         77.0507
1020.20        77.83758
1020.58        77.98703
1020.95        77.27024
1021.33        76.24844
1021.71        75.51204
1022.09        75.03059
1022.46        74.53136
1022.84        73.91946
1023.22        72.34953
1023.60        70.05576
1023.97        67.91404
1024.35        66.20645
1024.73        64.78925
