SpectraSmart Spectrum 2.9.0.0
--------- Device Information -----------
Spectrum Name :  反射率_0
Saving Time :  2024/04/29 23:57:05
Spectro-Module Model Name : SE2030-DUVN
Spectro-Module Serial Number : OS361AC55029948
Wavelength Start : 200
Wavelength End : 1025
Wavelength Unit : Wavelength(nm)
Spectrum Unit : Reflectance(%)
-----------Spectrum Setting ------------
Integration Time : 20ms
Average : 10
Boxcar : 0
Background removal :  enabled
linearity correction :  enabled
SC :  disabled
Intensity correction :  disabled
DWT denoise :  enabled
savitzky-golay :  disabled
FFT :  disabled
Running average :  disabled
Kalman :  disabled
High pass :  disabled
---------------BEGIN--------------------
Wavelength(nm)             Reflectance(%)
200.29               0
200.75        50.23905
201.21        39.17562
201.67        25.72862
202.13        14.84038
202.58        8.983626
203.04        7.524921
203.50         11.1862
203.96        20.91754
204.42        35.37243
204.88        52.71222
205.34         66.8933
205.80        69.79769
206.26        63.04469
206.72        52.72868
207.18         42.2751
207.64        33.03783
208.10        24.46525
208.55        15.02442
209.01        7.005124
209.47         6.65535
209.93        14.21223
210.39         26.1521
210.85        36.40267
211.31        40.02725
211.77        36.91992
212.23         26.7899
212.69        12.45165
213.14        8.656419
213.60        21.11527
214.06        40.41621
214.52        55.88123
214.98        61.16124
215.44        57.90733
215.90        49.03947
216.36        38.19397
216.81        32.32407
217.27        34.98268
217.73        45.34577
218.19        62.61036
218.65        77.62264
219.11        82.17914
219.57        78.96867
220.02         72.5216
220.48        66.50395
220.94        60.30949
221.40        51.41183
221.86        40.00533
222.32         31.8571
222.77        30.54994
223.23         34.1035
223.69        37.18298
224.15          35.887
224.61        30.44187
225.06        21.61266
225.52        12.81682
225.98         11.6491
226.44         18.7295
226.90         28.8876
227.36        37.36104
227.81        41.30707
228.27        41.34123
228.73         38.6927
229.19        34.99482
229.65        33.53297
230.10        35.03404
230.56        37.85614
231.02        40.20786
231.48        40.57563
231.93        38.93073
232.39        35.91006
232.85        32.51456
233.31        30.61988
233.77        30.82349
234.22         32.7159
234.68        34.91723
235.14        34.91233
235.60         32.2222
236.05        27.93002
236.51        23.90073
236.97        22.45214
237.43        24.13614
237.88        28.65729
238.34        35.43975
238.80        41.80775
239.26        45.24854
239.71        46.08502
240.17        44.74987
240.63        42.45066
241.08        39.46365
241.54        34.36429
242.00        27.26164
242.46        23.35809
242.91        28.75578
243.37        42.92844
243.83        58.55346
244.28        68.64096
244.74        72.91879
245.20         72.4347
245.66         68.1041
246.11        62.94625
246.57        59.06805
247.03        55.99649
247.48         53.9365
247.94        52.83632
248.40        52.97398
248.85        54.25937
249.31        56.56986
249.77        59.74786
250.22        64.41508
250.68        71.45514
251.14        81.53311
251.59        88.98255
252.05        87.67593
252.51        81.75414
252.96        75.29135
253.42        69.76324
253.88        64.10022
254.33         57.4403
254.79        51.05333
255.25        47.87093
255.70        48.15409
256.16        50.15964
256.62        52.05537
257.07        52.58732
257.53        52.18563
257.99        51.28459
258.44        49.84604
258.90        48.52276
259.35        47.26771
259.81        46.22498
260.27        45.49565
260.72        45.23479
261.18        45.38317
261.63        45.56627
262.09        45.51385
262.55        44.62841
263.00        42.97291
263.46        41.06867
263.91        39.13264
264.37        37.59431
264.83        36.41918
265.28        35.40284
265.74        34.63502
266.19        34.08435
266.65        33.76007
267.11        33.62577
267.56        33.48195
268.02        33.01027
268.47        32.14537
268.93        30.97333
269.38        29.69372
269.84        28.78641
270.30        28.35662
270.75        28.26437
271.21        28.26301
271.66        27.97928
272.12        27.32442
272.57        26.40306
273.03        25.40456
273.48        24.55353
273.94        23.97066
274.39        23.55326
274.85        23.22762
275.31        22.84358
275.76        22.36125
276.22        21.85318
276.67        21.37698
277.13        21.07252
277.58        20.91021
278.04        20.84228
278.49        20.73724
278.95        20.47932
279.40        20.02342
279.86        19.49186
280.31        18.91804
280.77        18.44289
281.22        18.08379
281.68        17.82419
282.13        17.68407
282.59        17.71656
283.04         17.8879
283.50        18.14955
283.95         18.3821
284.41        18.39648
284.86        18.15941
285.32        17.77237
285.77        17.30194
286.22        16.90066
286.68        16.62642
287.13        16.41098
287.59        16.30299
288.04        16.32982
288.50         16.4843
288.95        16.73231
289.41        16.98025
289.86        17.05846
290.32        16.96755
290.77        16.77304
291.22        16.58263
291.68        16.56553
292.13        16.76664
292.59        17.14953
293.04        17.72444
293.50        18.52341
293.95        19.53325
294.40        20.75373
294.86        22.05487
295.31        23.24135
295.77        24.26442
296.22        25.15823
296.68        26.08365
297.13        27.27784
297.58        28.79765
298.04        30.54362
298.49        32.34689
298.95        33.94248
299.40        35.27724
299.85        36.45358
300.31        37.64125
300.76        39.03267
301.21        40.70362
301.67        42.58969
302.12        44.57237
302.58        46.61663
303.03        48.66743
303.48        50.66225
303.94        52.61572
304.39        54.99689
304.84        57.00515
305.30        59.25449
305.75        61.45924
306.20          63.622
306.66        65.72688
307.11        67.72724
307.57        69.63667
308.02        71.37289
308.47         72.9815
308.93        74.49181
309.38        75.94693
309.83        77.48694
310.29        79.12318
310.74        80.78961
311.19        82.36221
311.65        83.63643
312.10          84.568
312.55        85.25613
313.00        85.87251
313.46        86.68758
313.91        87.75079
314.36        88.97712
314.82        90.24899
315.27        91.40151
315.72        92.34563
316.18         93.1348
316.63        93.74747
317.08        94.16267
317.53         94.4193
317.99        94.56009
318.44        94.67173
318.89        94.91412
319.35         95.3289
319.80        95.87035
320.25        96.54315
320.70        97.34151
321.16        98.20023
321.61        99.15582
322.06        100.0081
322.51        100.4496
322.97        100.4202
323.42        100.0164
323.87         99.5078
324.32        99.35559
324.78        99.66007
325.23        100.3675
325.68        101.2304
326.13        101.8151
326.59        101.9765
327.04        101.8754
327.49        101.7283
327.94        101.9374
328.39        102.5917
328.85        103.5014
329.30        104.4836
329.75        105.0327
330.20        105.0127
330.66         104.582
331.11        104.0152
331.56        103.6734
332.01        103.7051
332.46        104.0211
332.92        104.5231
333.37        105.1863
333.82        105.9007
334.27        106.6851
334.72        107.4991
335.17         108.269
335.63        108.9292
336.08        109.5195
336.53        109.9628
336.98        110.2216
337.43        110.3124
337.88        110.2692
338.34        110.2099
338.79         110.341
339.24        110.7102
339.69        111.2845
340.14        111.9644
340.59        112.5606
341.05        113.0192
341.50         113.397
341.95        113.7365
342.40        114.1327
342.85        114.6023
343.30        115.0689
343.75        115.5304
344.20        115.9936
344.66        116.4591
345.11        116.9552
345.56        117.3554
346.01        117.4447
346.46        117.2264
346.91        116.7778
347.36        116.4184
347.81        116.6346
348.26        117.4829
348.72        118.7694
349.17        120.1285
349.62        120.8691
350.07         120.809
350.52        120.1966
350.97         119.334
351.42        118.6826
351.87        118.4001
352.32        118.3387
352.77        118.4943
353.22        118.8675
353.67        119.3837
354.13         120.013
354.58        120.5486
355.03        120.6381
355.48        120.1988
355.93         119.324
356.38        118.1783
356.83        117.0332
357.28        115.9954
357.73         115.022
358.18        114.1211
358.63        113.2933
359.08         112.529
359.53        111.8439
359.98        111.2124
360.43        110.5731
360.88        109.9069
361.33        109.2256
361.78        108.5107
362.23        107.7429
362.68        106.9287
363.13        106.0705
363.58        105.2377
364.03         104.541
364.48        103.9934
364.93        103.5566
365.38        103.1329
365.83        102.5673
366.28         101.825
366.73        100.9553
367.18        100.0397
367.63        99.20553
368.08        98.48425
368.53        97.83654
368.98        97.21922
369.43        96.55819
369.88        95.84725
370.33        95.14202
370.78        94.46553
371.23        93.85202
371.68        93.31157
372.13        92.79814
372.58        92.36256
373.03        92.09122
373.48        91.96012
373.93        91.92576
374.38        91.78181
374.83        91.20349
375.28        90.16232
375.72        88.77495
376.17        87.39085
376.62        86.36323
377.07        85.77058
377.52        85.49396
377.97        85.39276
378.42        85.23698
378.87        84.94311
379.32        84.57523
379.77        84.16356
380.22        83.74462
380.67        83.32153
381.11        82.86069
381.56        82.34486
382.01        81.78067
382.46        81.19513
382.91        80.62689
383.36        80.09805
383.81        79.62582
384.26        79.21252
384.71        78.84038
385.15        78.52181
385.60        78.33173
386.05        78.23701
386.50        78.20808
386.95        78.13192
387.40        77.84196
387.85        77.33141
388.29           76.63
388.74        75.97174
389.19        75.47757
389.64        75.17229
390.09        74.98004
390.54        74.85128
390.98        74.71426
391.43        74.57166
391.88        74.37659
392.33        74.07561
392.78         73.7832
393.23        73.44904
393.67        72.67165
394.12        71.69377
394.57        71.51315
395.02        71.16354
395.47         71.3868
395.91        71.71684
396.36        71.80314
396.81        71.56812
397.26        71.18377
397.71        70.75874
398.15         70.3245
398.60        69.99832
399.05        69.79499
399.50        69.67317
399.95        69.46865
400.39        69.00697
400.84         69.2285
401.29        69.87116
401.74        69.98985
402.18        69.48745
402.63        68.83281
403.08        68.28042
403.53        67.99947
403.97        68.04588
404.42        68.35703
404.87        68.71468
405.32        68.72988
405.76        68.30897
406.21         67.7206
406.66        67.12905
407.11        66.53362
407.55        66.15173
408.00        66.47631
408.45        67.31236
408.90        67.73794
409.34        67.60922
409.79         67.3752
410.24        67.19208
410.68        67.12612
411.13        67.22287
411.58        67.43236
412.03        67.63594
412.47        67.65541
412.92        67.42519
413.37        67.04737
413.81        66.60638
414.26        66.29404
414.71        66.12545
415.15         66.0618
415.60        66.06274
416.05         66.1092
416.49        66.18569
416.94        66.29865
417.39        66.40804
417.83         66.4297
418.28         66.3578
418.73        66.21178
419.17        66.06191
419.62        66.03784
420.07        66.13941
420.51        66.30424
420.96        66.49007
421.41        66.49902
421.85        66.27709
422.30        66.21231
422.74        66.21816
423.19        65.70252
423.64        64.91148
424.08        65.12634
424.53        66.20921
424.98        66.71559
425.42        66.49281
425.87        66.60911
426.31        66.98385
426.76        66.44682
427.21        65.18552
427.65        65.18621
428.10        66.20403
428.54        66.43368
428.99        65.83788
429.44        65.33736
429.88        65.12136
430.33        65.17543
430.77        65.42827
431.22        65.99826
431.66        66.65034
432.11        66.54642
432.56        65.80773
433.00        65.50871
433.45        65.89283
433.89        66.32428
434.34        66.66648
434.78        67.80147
435.23        66.19104
435.67        65.54794
436.12        65.63746
436.57        65.59998
437.01        65.53119
437.46        66.07784
437.90        65.93489
438.35        66.36939
438.79        66.90053
439.24         67.1699
439.68        67.17821
440.13        67.29918
440.57         67.5468
441.02        67.63066
441.46        67.51693
441.91        67.45947
442.35        67.45251
442.80         67.2362
443.24        67.60557
443.69        67.45978
444.13        67.09505
444.58        66.90703
445.02        66.86254
445.47        66.81748
445.91        66.77678
446.36        66.72749
446.80         66.6191
447.24        67.09935
447.69        66.99196
448.13        67.15789
448.58          67.256
449.02         67.3075
449.47        67.34245
449.91        67.39522
450.36          67.495
450.80        67.60167
451.25        67.70191
451.69        67.74202
452.13        67.72176
452.58        67.68914
453.02        67.65903
453.47        67.65498
453.91        67.66762
454.36        67.80853
454.80        67.76704
455.24        67.94717
455.69         68.1776
456.13          68.201
456.58        68.04655
457.02        67.71423
457.46        67.51727
457.91        67.39159
458.35        67.35658
458.79        67.25788
459.24        67.13506
459.68        67.09715
460.13         67.1492
460.57        67.06214
461.01         67.3464
461.46        66.92744
461.90        66.93827
462.34        67.14801
462.79        67.64477
463.23        67.47337
463.68        66.72623
464.12        66.40341
464.56        66.51403
465.01        66.30283
465.45        66.10344
465.89        65.99683
466.34        66.04513
466.78        66.67922
467.22        66.79822
467.67        66.77071
468.11         66.6303
468.55        66.16653
468.99        65.63535
469.44        65.25929
469.88        65.11624
470.32        65.14404
470.77        65.26001
471.21        65.35548
471.65        65.37505
472.10        65.37257
472.54        65.36512
472.98        65.40372
473.42        65.48653
473.87        65.61587
474.31        65.73375
474.75        65.68844
475.20        65.51347
475.64        65.50652
476.08        65.66168
476.52         65.4882
476.97         64.9285
477.41         65.0668
477.85        64.58365
478.29        64.20281
478.74        65.03186
479.18        65.03228
479.62        64.69003
480.06        64.62409
480.50        64.87704
480.95        64.62864
481.39        64.93848
481.83        64.56332
482.27        65.16311
482.72        65.21062
483.16        65.09808
483.60        65.11242
484.04        65.28747
484.48        65.36126
484.93        65.11685
485.37        65.14594
485.81        64.59008
486.25        63.48841
486.69         64.4326
487.14        64.83099
487.58        64.26398
488.02        64.05944
488.46        64.57388
488.90        64.75503
489.34        64.59335
489.79        64.98148
490.23        64.47934
490.67        64.40901
491.11        64.34914
491.55        64.11146
491.99        63.77972
492.43        63.68377
492.88        63.85543
493.32        64.16888
493.76        64.51511
494.20        64.76987
494.64        64.88795
495.08        64.92099
495.52        64.87502
495.96        64.77192
496.41        64.68324
496.85        64.58805
497.29        64.46138
497.73        64.76167
498.17        64.67181
498.61        64.54856
499.05        64.24447
499.49        64.13371
499.93        64.21115
500.37        64.29245
500.82        64.36334
501.26        64.26351
501.70        64.34238
502.14        64.37495
502.58        64.30105
503.02        64.32285
503.46         64.3943
503.90        64.50192
504.34        64.60791
504.78        64.66712
505.22        64.66537
505.66        64.60212
506.10        64.50777
506.54        64.47915
506.98         64.5381
507.42        64.57581
507.86        64.50529
508.30        64.67324
508.74        64.27441
509.18        63.98928
509.62        63.69812
510.06        63.60099
510.50         63.7267
510.94         64.0253
511.38        64.37276
511.82        64.54071
512.26        64.47227
512.70        64.23751
513.14        63.94963
513.58        63.78337
514.02        63.78656
514.46        63.90401
514.90        64.06779
515.34        64.17023
515.78        64.17787
516.22        64.12812
516.66        64.06452
517.10        64.04968
517.54          64.097
517.98        64.17673
518.42        64.24995
518.86        64.26065
519.30        64.19581
519.74        64.07953
520.18        63.94646
520.62        63.84386
521.06        63.79253
521.50         63.7906
521.93        63.82695
522.37        63.86167
522.81        63.89165
523.25         63.9146
523.69        63.96288
524.13        64.08772
524.57        64.28594
525.01        64.53218
525.45        64.73941
525.89           64.77
526.32        64.59328
526.76        64.28021
527.20        63.93656
527.64        63.73067
528.08        63.70318
528.52        63.80254
528.96        63.96094
529.40        64.06702
529.83        64.08041
530.27        64.04543
530.71        63.97782
531.15        63.90779
531.59        63.84806
532.03        63.78149
532.46        63.70943
532.90         63.6653
533.34        63.64705
533.78        63.65719
534.22        63.67451
534.66        63.66156
535.09        63.60728
535.53        63.53515
535.97        63.46819
536.41        63.45917
536.85         63.5145
537.28        63.60817
537.72        63.70117
538.16        63.72805
538.60        63.67178
539.04        63.55659
539.47        63.39718
539.91        63.26785
540.35        63.17236
540.79        63.11066
541.22        63.07297
541.66        63.05363
542.10        63.04765
542.54        63.06446
542.97        63.11032
543.41        63.21036
543.85        63.34874
544.29        63.51788
544.72         63.6542
545.16        63.68358
545.60        63.58738
546.04        63.40582
546.47        63.20701
546.91        63.10099
547.35        63.12462
547.79          63.262
548.22        63.41222
548.66        63.56914
549.10        63.71373
549.53        63.64777
549.97        63.31017
550.41        63.85468
550.84        63.38091
551.28        63.33026
551.72        63.12126
552.15        63.29929
552.59        63.06968
553.03        63.03371
553.46         62.9828
553.90        62.97479
554.34        62.99539
554.77        63.08367
555.21        63.20652
555.65        63.14184
556.08         62.9105
556.52        62.88279
556.96        63.09949
557.39        63.06237
557.83        63.24099
558.27        63.64399
558.70         63.5436
559.14        63.69551
559.57         63.7778
560.01        63.73538
560.45        63.58357
560.88        63.21049
561.32        63.03345
561.75        63.01553
562.19        63.19757
562.63        63.17326
563.06        62.95138
563.50        62.90482
563.93        63.00532
564.37        63.04641
564.80        63.00294
565.24         62.9905
565.68        63.00232
566.11        63.03576
566.55        63.08941
566.98        63.05745
567.42        63.01418
567.85        63.00121
568.29        62.96246
568.72        63.10784
569.16        63.50985
569.60        62.93633
570.03        63.32249
570.47        63.41759
570.90        63.49184
571.34        63.22403
571.77        63.49014
572.21        63.49257
572.64        63.33591
573.08          63.586
573.51        63.19557
573.95        63.22272
574.38        63.46511
574.82        63.13986
575.25        63.35744
575.69        63.15276
576.12        62.98328
576.56        62.60719
576.99        62.58223
577.42        62.81391
577.86        62.66291
578.29        62.59969
578.73        63.28951
579.16        62.91482
579.60         63.3047
580.03        63.08506
580.47        63.61083
580.90        63.37926
581.33        62.88081
581.77        62.64197
582.20        62.51035
582.64         63.3155
583.07        62.70155
583.51        62.60308
583.94        62.55338
584.37        62.40506
584.81        62.35213
585.24        62.63657
585.68        62.98223
586.11        63.48814
586.54        62.85768
586.98        62.52782
587.41        63.35487
587.85        63.41008
588.28        63.14665
588.71        63.56667
589.15        63.01053
589.58        63.09368
590.01        62.74453
590.45        62.65349
590.88        62.73957
591.31        63.05579
591.75        63.34463
592.18        63.52732
592.61        63.60987
593.05        62.50857
593.48        62.70832
593.91        63.45253
594.35        62.45465
594.78        62.44804
595.21         62.5187
595.65        62.63514
596.08        62.21711
596.51        62.44237
596.94        63.02827
597.38        63.20743
597.81        62.83583
598.24        62.97079
598.68        62.73442
599.11        62.27647
599.54        63.08344
599.97        63.27153
600.41        62.30468
600.84        62.29014
601.27        62.39633
601.70        62.75572
602.14        63.01766
602.57        62.54767
603.00        62.08862
603.43        61.94549
603.87        62.11744
604.30        62.52391
604.73         62.2972
605.16        62.25272
605.60        62.34783
606.03        62.47433
606.46        62.58956
606.89        62.55558
607.32        62.38639
607.76        62.29401
608.19        62.32547
608.62        62.28059
609.05        62.21286
609.48        62.41917
609.92        62.32497
610.35        62.72754
610.78        62.74532
611.21        62.20341
611.64        62.28692
612.07        62.58562
612.50        62.62114
612.94        62.28235
613.37        62.96775
613.80        62.49061
614.23        62.94753
614.66        62.92381
615.09        62.91133
615.52        62.88445
615.96        62.81779
616.39        62.75561
616.82        62.28784
617.25         62.4335
617.68        61.94434
618.11        62.04199
618.54        62.27931
618.97        62.20296
619.40        61.88627
619.84        61.81852
620.27        62.06475
620.70        62.44218
621.13        62.80196
621.56        62.53099
621.99        62.41549
622.42        61.89166
622.85        62.46405
623.28        62.34975
623.71        62.73188
624.14        61.73797
624.57        62.45599
625.00        62.34275
625.43        62.22981
625.86         62.1121
626.29        62.03781
626.72        62.02613
627.15        62.03975
627.58        62.18679
628.01        62.38444
628.44        62.34181
628.87        62.14142
629.30        62.22065
629.73        62.51133
630.16        62.85238
630.59        62.53684
631.02        62.55132
631.45        62.45011
631.88        62.39908
632.31        62.32362
632.74        62.26356
633.17        62.21538
633.60         62.1604
634.03        62.10046
634.46        62.03039
634.89        61.96931
635.32         61.9571
635.75        61.99644
636.18        62.06389
636.61        62.13342
637.04        62.17826
637.47        62.20116
637.89        62.16964
638.32        62.06152
638.75        62.03053
639.18        62.11662
639.61        61.67723
640.04        61.84267
640.47        61.74294
640.90        61.71777
641.33        61.74469
641.76        61.80793
642.18        61.85973
642.61        61.85512
643.04        61.81808
643.47        61.78822
643.90        61.81091
644.33        61.88718
644.76         62.0779
645.18        62.29485
645.61         62.2255
646.04        61.79975
646.47        61.77002
646.90         62.0512
647.33        62.08965
647.75        61.85487
648.18        61.68593
648.61        61.63187
649.04        61.60084
649.47        61.60341
649.89        61.73054
650.32        61.89503
650.75        61.90628
651.18        61.81331
651.61        61.80496
652.03         61.9357
652.46         62.2165
652.89        62.40692
653.32        62.23407
653.74        61.96113
654.17        61.12851
654.60        61.25796
655.03        62.94727
655.46        61.27197
655.88        62.10101
656.31        62.36605
656.74        62.96589
657.16        63.10419
657.59        61.91569
658.02        61.05947
658.45          62.373
658.87        62.34895
659.30        62.14196
659.73        62.52743
660.15        62.48219
660.58          62.472
661.01        62.33024
661.44        62.13235
661.86        61.67049
662.29        61.12113
662.72        61.33666
663.14         62.1246
663.57        62.04388
664.00        61.22466
664.42        61.00039
664.85        61.42737
665.27        61.72979
665.70        61.80156
666.13        61.87101
666.55        61.92179
666.98        61.87731
667.41        61.78522
667.83        61.72528
668.26        61.70986
668.69        61.73017
669.11         61.7625
669.54        61.76085
669.96        61.71401
670.39        61.66061
670.82         61.6052
671.24         61.5116
671.67        61.40197
672.09        61.38505
672.52        61.46283
672.94         61.5935
673.37        61.29272
673.80        61.71218
674.22        61.48381
674.65        61.61722
675.07        61.75112
675.50        61.89921
675.92         62.0204
676.35        62.04319
676.77        61.97397
677.20        61.81887
677.62        61.64569
678.05        61.56296
678.47        61.59129
678.90        61.70272
679.32        61.83535
679.75        61.89904
680.17         61.8657
680.60         61.7765
681.02        61.66702
681.45        61.60017
681.87        61.59728
682.30        61.61351
682.72        61.66021
683.15         61.7216
683.57        61.81132
684.00        61.93628
684.42        62.03763
684.85        62.09966
685.27        62.12633
685.70        61.92661
686.12        61.60107
686.54        62.05388
686.97        62.52642
687.39        62.75204
687.82        62.50201
688.24        62.43243
688.66        62.54527
689.09        62.45344
689.51        62.19582
689.94        62.01851
690.36        61.94615
690.78        61.91641
691.21        61.91387
691.63        61.91882
692.06         61.9186
692.48        61.93172
692.90        61.95293
693.33        61.96358
693.75        61.96279
694.17        61.94434
694.60        61.92397
695.02        61.92258
695.44        61.93659
695.87         62.0288
696.29        62.16696
696.71        62.09216
697.14        61.88347
697.56        61.94865
697.98        62.24211
698.41        62.35044
698.83        62.24375
699.25        62.16163
699.68        62.10577
700.10        62.02267
700.52        61.91089
700.94        61.80161
701.37        61.69707
701.79        61.61663
702.21        61.55718
702.64        61.52279
703.06        61.52117
703.48        61.57184
703.90        61.67471
704.33        61.83306
704.75        61.98062
705.17         62.0737
705.59        62.07758
706.01        62.00903
706.44        61.92266
706.86         61.9058
707.28        61.97216
707.70        62.11613
708.12        62.29095
708.55        62.35935
708.97        62.32846
709.39        62.34081
709.81        62.40902
710.23        62.46124
710.66        62.49335
711.08        62.56396
711.50        62.66062
711.92        62.76375
712.34        62.86808
712.76        62.98427
713.19         63.0573
713.61        63.03621
714.03        62.90111
714.45         62.6792
714.87        62.46375
715.29        62.39572
715.71        62.49936
716.13        62.73207
716.56        62.98307
716.98        63.13678
717.40        63.12159
717.82        62.98368
718.24        62.78975
718.66        62.65271
719.08        62.61366
719.50        62.61427
719.92        62.62415
720.34        62.66622
720.76        62.74076
721.19        62.57516
721.61        62.66735
722.03        62.60569
722.45        62.53507
722.87        62.43826
723.29         62.3426
723.71        62.28514
724.13        62.27172
724.55        62.30703
724.97        62.35237
725.39        62.34052
725.81        62.26523
726.23         62.1513
726.65          62.064
727.07        62.10893
727.49        62.29909
727.91        62.58378
728.33        62.89001
728.75        63.09654
729.17        63.16189
729.59        63.12802
730.01        63.00648
730.43        62.82047
730.85        62.60334
731.27        62.35904
731.69        62.16833
732.10        62.15908
732.52        62.35205
732.94        62.71801
733.36         63.1473
733.78        63.45291
734.20        63.56821
734.62        63.48197
735.04        63.30501
735.46        63.32108
735.88        63.52389
736.30        63.63433
736.72        63.58575
737.13        63.50434
737.55        63.35781
737.97        63.06087
738.39        62.72745
738.81        62.60496
739.23        62.71784
739.65        62.96263
740.06        63.19784
740.48        63.29488
740.90        63.20378
741.32        62.96543
741.74         62.6781
742.16        62.54467
742.57        62.62821
742.99         62.7748
743.41        62.94754
743.83        63.24223
744.25        63.54916
744.67        63.51808
745.08        63.20882
745.50        63.04548
745.92        63.08076
746.34        63.07326
746.75        63.02184
747.17        63.03268
747.59        63.10318
748.01        63.20731
748.42        63.32781
748.84        63.40651
749.26        63.43633
749.68        63.42982
750.09        63.38471
750.51        63.33135
750.93         63.2686
751.35        63.19479
751.76        63.12932
752.18        63.09555
752.60        63.09971
753.01        63.14669
753.43        63.19889
753.85        63.22282
754.27        63.21479
754.68        63.19804
755.10        63.18766
755.52        63.20831
755.93         63.2555
756.35        63.30843
756.77        63.38961
757.18        63.50549
757.60        63.65232
758.02        63.92094
758.43        64.18746
758.85        64.05939
759.26        63.62738
759.68        63.38401
760.10        63.39347
760.51        63.46307
760.93        63.61423
761.34        63.56759
761.76         64.0462
762.18        64.01258
762.59        63.72027
763.01        63.18468
763.42          62.779
763.84        62.55357
764.26        62.62737
764.67          62.876
765.09        63.21558
765.50        63.59125
765.92        63.93855
766.33        63.91422
766.75        63.88485
767.16        63.77658
767.58        63.71712
768.00        63.45018
768.41        63.09911
768.83        63.21638
769.24        63.65352
769.66        63.68855
770.07        63.34284
770.49        63.14601
770.90        63.19344
771.32        63.48217
771.73        63.90963
772.15        64.04749
772.56        63.85664
772.97        63.80239
773.39        63.54197
773.80        63.57932
774.22        63.78501
774.63        64.17344
775.05        64.55687
775.46        64.71806
775.88        64.57445
776.29        64.22877
776.70        63.80582
777.12        63.52995
777.53        63.47646
777.95        63.56701
778.36         63.7513
778.77        63.93661
779.19        64.08209
779.60        64.24156
780.02        64.37156
780.43        64.48505
780.84        64.57043
781.26         64.4809
781.67        64.30589
782.09        64.47968
782.50        64.88919
782.91        64.83533
783.33        64.33911
783.74        64.05107
784.15        64.01088
784.57        63.86717
784.98        63.65538
785.39        63.60816
785.81        63.74422
786.22        63.98702
786.63        64.31259
787.04        64.68049
787.46        65.05861
787.87        65.42916
788.28        65.73678
788.70        65.89381
789.11        65.87788
789.52        65.72318
789.93        65.49866
790.35        65.31728
790.76        65.23356
791.17        65.23135
791.58        65.28421
792.00        65.32436
792.41        65.34971
792.82        65.36382
793.23        65.39583
793.65        65.50124
794.06        65.68656
794.47        65.90761
794.88        66.08049
795.29        66.08981
795.71        65.89153
796.12        65.55727
796.53        65.20348
796.94        65.05754
797.35        65.18538
797.76          65.521
798.18        65.92198
798.59        66.19387
799.00        66.25647
799.41        66.18033
799.82         66.0243
800.23        65.89132
800.64        65.82245
801.06        65.75142
801.47        65.73777
801.88        65.81055
802.29        65.96325
802.70         66.1918
803.11        66.40527
803.52        66.44141
803.93        66.27312
804.34         65.9502
804.75        65.59083
805.17        65.41712
805.58        65.51568
805.99        65.73325
806.40        65.99541
806.81        66.36264
807.22        66.70361
807.63        66.64136
808.04        66.27335
808.45        66.13686
808.86        66.29919
809.27        66.48332
809.68        66.58932
810.09        66.57827
810.50        66.42351
810.91        66.14787
811.32        65.88244
811.73        65.82912
812.14        66.02798
812.55        66.41955
812.96        66.85458
813.37        67.05679
813.78        66.94877
814.19        66.63031
814.60         66.2355
815.01        65.95199
815.42         65.8312
815.83        65.81134
816.24        65.87132
816.65        65.97211
817.05        66.08545
817.46         66.1965
817.87        66.28751
818.28         66.2746
818.69        66.15072
819.10        65.93403
819.51        65.69657
819.92        65.58282
820.33        65.63496
820.74        65.80217
821.14         66.0305
821.55         66.2419
821.96        66.39843
822.37        66.53245
822.78        66.60845
823.19        66.56778
823.60        66.40393
824.00        66.11771
824.41        65.80744
824.82        65.66315
825.23        65.71764
825.64        65.94041
826.04        66.18864
826.45        66.13775
826.86        65.74953
827.27        65.13432
827.68        64.52159
828.08        64.29291
828.49         64.4965
828.90        65.04787
829.31        65.77712
829.72        66.38383
830.12        66.77949
830.53        66.96886
830.94        67.04984
831.35        67.15572
831.75         67.3431
832.16        67.48473
832.57        67.55654
832.97        67.49804
833.38        67.31044
833.79        67.08953
834.20        66.84812
834.60        66.56897
835.01        66.29916
835.42         66.0146
835.82        65.88267
836.23        66.11688
836.64        66.75422
837.04        67.74884
837.45        68.70302
837.86        69.09263
838.26        68.78189
838.67        67.93784
839.08        66.91776
839.48         66.2653
839.89        66.16703
840.29        66.45419
840.70         66.9369
841.11        67.31911
841.51         67.5135
841.92        67.57812
842.33        67.58306
842.73        67.62076
843.14        67.67443
843.54        67.72961
843.95        67.74392
844.35        67.72429
844.76        67.64887
845.17        67.51601
845.57        67.38177
845.98        67.29581
846.38        67.28596
846.79        67.34399
847.19        67.36024
847.60        67.11031
848.00        66.59139
848.41        65.89359
848.81        65.27263
849.22        65.10393
849.62        65.48786
850.03        66.27241
850.43        67.24492
850.84        67.84057
851.24        67.92829
851.65        67.55481
852.05         66.9629
852.46        66.51873
852.86        66.32655
853.27        66.33707
853.67        66.31607
854.07        66.10206
854.48          65.623
854.88          64.965
855.29        64.26391
855.69        63.97194
856.10        64.14418
856.50        64.73135
856.90        65.39935
857.31        65.68073
857.71        65.51239
858.12        64.99493
858.52        64.38852
858.92        64.08525
859.33        64.18747
859.73        64.61404
860.13        65.18011
860.54        65.60249
860.94        65.82537
861.34        65.85009
861.75        65.72711
862.15        65.58566
862.55        65.43666
862.96        65.26848
863.36        64.95085
863.76        64.31046
864.17        63.38244
864.57        62.29356
864.97        61.31527
865.38        60.80207
865.78        60.85586
866.18        61.36302
866.58        62.14936
866.99        62.82158
867.39        63.24017
867.79         63.4692
868.19        63.52583
868.60        63.45312
869.00        63.29959
869.40        63.02192
869.80        62.79649
870.21        62.93459
870.61        63.51741
871.01        64.41638
871.41        65.30532
871.81        65.65496
872.22        65.34536
872.62        64.54245
873.02        63.53889
873.42        62.83445
873.82        62.60186
874.22        62.72565
874.63        63.02816
875.03        63.23374
875.43        63.25864
875.83        63.18336
876.23        63.15487
876.63        63.40316
877.03        63.94558
877.44        64.62766
877.84        65.25581
878.24        65.43776
878.64        65.11081
879.04        64.45882
879.44         63.7022
879.84         63.1557
880.24        62.90872
880.64         62.8437
881.04        62.98651
881.44        63.37118
881.84        63.95593
882.24        64.75091
882.65        65.44404
883.05        65.61636
883.45        65.14089
883.85        64.18642
884.25        63.18812
884.65        62.81496
885.05        63.19431
885.45         64.0862
885.85        65.18965
886.25        65.97657
886.65        66.23981
887.05        66.15684
887.45        65.71911
887.85        64.93233
888.25        63.93546
888.65        62.79306
889.04        61.80722
889.44         61.4379
889.84        61.69689
890.24        62.49242
890.64        63.55219
891.04        64.26381
891.44        64.39371
891.84        64.12391
892.24        63.69209
892.64        63.44214
893.04        63.46467
893.44        63.63207
893.83        63.94019
894.23        64.32284
894.63        64.74667
895.03        65.22857
895.43        65.66132
895.83        65.87159
896.23        65.82722
896.63        65.54728
897.02        65.14734
897.42        64.90137
897.82        64.85691
898.22        64.98062
898.62        65.11953
899.01        65.01767
899.41        64.62274
899.81        64.04321
900.21        63.50695
900.61        63.35736
901.00        63.64852
901.40        64.25311
901.80        64.91131
902.20        65.20294
902.59        65.01685
902.99        64.48914
903.39        63.82404
903.79        63.32237
904.18        63.07791
904.58        63.02697
904.98        63.08961
905.38        63.15918
905.77        63.17345
906.17        63.16393
906.57         63.1681
906.96        63.26205
907.36        63.42542
907.76        63.65856
908.15        63.83122
908.55        63.62867
908.95        63.08181
909.34        62.28592
909.74        61.63877
910.14        61.61411
910.53        62.32685
910.93         63.5784
911.33        65.06657
911.72        66.31087
912.12        67.06136
912.52        67.44175
912.91        67.58115
913.31        67.71566
913.70        67.91741
914.10         68.0463
914.49         68.0013
914.89        67.62738
915.29        66.93942
915.68         66.0635
916.08        65.18263
916.47        64.42742
916.87        63.91275
917.26        63.57373
917.66        63.45467
918.05        63.63398
918.45         64.0443
918.84        64.69405
919.24        65.32467
919.64        65.62773
920.03        65.51736
920.42        65.04202
920.82         64.4328
921.21        63.96976
921.61        63.75815
922.00        63.75451
922.40        63.85482
922.79        63.95861
923.19        63.99537
923.58        64.01378
923.98        64.08297
924.37          64.315
924.77        64.70232
925.16        65.19639
925.55         65.6171
925.95        65.68885
926.34        65.38154
926.74         64.7738
927.13        64.09449
927.52        63.68002
927.92        63.63206
928.31        63.84119
928.70         64.1581
929.10          64.319
929.49        64.23877
929.89        63.97277
930.28        63.62744
930.67        63.32205
931.07        63.11069
931.46        62.97984
931.85        62.87653
932.24        62.73005
932.64        62.55132
933.03        62.39351
933.42        62.35077
933.82        62.55514
934.21        63.02687
934.60        63.63804
934.99        64.31157
935.39        64.91659
935.78        65.42218
936.17        65.82845
936.56        65.89909
936.96        65.30005
937.35        64.08322
937.74        62.46365
938.13        60.96951
938.53        60.25879
938.92        60.40367
939.31        61.25678
939.70        62.45541
940.09        63.26542
940.49        63.39744
940.88        63.05645
941.27        62.51144
941.66        62.19411
942.05         62.2276
942.44        62.49589
942.84        62.79916
943.23        62.86548
943.62        62.59425
944.01        62.09803
944.40        61.69497
944.79        61.83056
945.18        62.56958
945.57        63.77484
945.97        64.94846
946.36        65.46336
946.75        65.03977
947.14        63.88202
947.53        62.53997
947.92        61.84528
948.31        62.00908
948.70        62.84667
949.09        63.85312
949.48        64.11848
949.87        63.41053
950.26        62.03695
950.65        60.65862
951.04        60.18446
951.43        60.78032
951.82        62.18637
952.21        63.75145
952.60        64.29397
952.99        63.49036
953.38         61.7508
953.77        59.88818
954.16        58.95964
954.55        59.18919
954.94        60.37231
955.33        61.89941
955.72        62.46835
956.11        61.66228
956.50        59.93421
956.89        58.27745
957.28        58.00095
957.66         59.3663
958.05        61.92142
958.44        64.78676
958.83        66.16824
959.22        65.48898
959.61        63.42401
960.00          60.995
960.39        59.48415
960.78        59.14779
961.16        59.60575
961.55         60.4666
961.94        61.00216
962.33         60.9178
962.72        60.55601
963.11        60.07861
963.49        59.65403
963.88        59.35631
964.27        59.07356
964.66        58.95329
965.04        59.34312
965.43        60.20798
965.82        61.47017
966.21        62.77982
966.60         63.4708
966.98        63.38402
967.37        62.76929
967.76        61.91606
968.15        61.21542
968.53        60.76559
968.92        60.37973
969.31        60.22653
969.69        60.63364
970.08         61.5889
970.47         63.1505
970.86        64.61981
971.24        64.77709
971.63        63.40258
972.02        60.93086
972.40        58.53234
972.79        58.03239
973.17        59.73234
973.56        62.94712
973.95        66.63064
974.33        68.78268
974.72        68.67579
975.11        66.98238
975.49        64.58633
975.88        63.16729
976.26        63.15633
976.65        63.96744
977.04        65.20418
977.42        66.16047
977.81        66.40079
978.19        66.32948
978.58         65.9369
978.96        65.04028
979.35        63.77035
979.74        62.14307
980.12         60.7125
980.51         60.4454
980.89        61.58926
981.28        63.72247
981.66        66.30686
982.05         68.1193
982.43        68.83989
982.82        68.72448
983.20        67.82994
983.59        66.27932
983.97        64.35129
984.35        62.04297
984.74        60.16152
985.12        59.81746
985.51        61.04959
985.89        63.68665
986.28         66.4929
986.66        67.70162
987.04        66.66292
987.43        63.89173
987.81         60.4359
988.20        58.51377
988.58        58.71295
988.96        60.52665
989.35        62.67169
989.73        63.24421
990.12        61.71847
990.50        58.83517
990.88        55.72033
991.27        54.16404
991.65        54.57884
992.03         56.3765
992.42         58.7911
992.80        60.99809
993.18        62.55273
993.56        63.70428
993.95        64.38887
994.33        64.61089
994.71        64.35173
995.10        63.65781
995.48        62.69339
995.86        61.80229
996.24        61.10904
996.63        60.49006
997.01        60.25663
997.39        60.71972
997.77        61.86035
998.15         63.5873
998.54        65.20023
998.92        65.63881
999.30        64.67958
999.68        62.55881
1000.06        60.15099
1000.45        59.12038
1000.83        60.03716
1001.21        62.44608
1001.59        65.43536
1001.97        67.47797
1002.35        68.08794
1002.73         67.6889
1003.12        66.79616
1003.50        66.13174
1003.88        66.01139
1004.26        66.25301
1004.64        66.62215
1005.02        66.78649
1005.40        66.64441
1005.78        66.26297
1006.16        66.04369
1006.54        66.53703
1006.92        67.79852
1007.30        69.73792
1007.69        71.49958
1008.07        71.43034
1008.45        68.96985
1008.83        64.60254
1009.21        59.85125
1009.59        57.25471
1009.97        57.51254
1010.35        59.91126
1010.73        63.24547
1011.11        65.46338
1011.49         65.8764
1011.86        65.14579
1012.24        63.58679
1012.62        61.89286
1013.00        60.31981
1013.38        58.55906
1013.76        56.72668
1014.14         55.2631
1014.52        54.37608
1014.90        54.16367
1015.28        54.41762
1015.66        54.59642
1016.04        54.56261
1016.41        54.52056
1016.79        54.56333
1017.17        54.84558
1017.55        55.41066
1017.93        56.09286
1018.31        56.99238
1018.69        58.47808
1019.06        60.79354
1019.44         64.0074
1019.82        68.17183
1020.20        71.81806
1020.58        73.23139
1020.95        72.37352
1021.33        70.02843
1021.71        66.92721
1022.09        63.08687
1022.46        57.93461
1022.84        51.98285
1023.22        47.21234
1023.60        45.46549
1023.97         46.2737
1024.35        48.71205
1024.73        51.91918
