SpectraSmart Spectrum 2.9.0.0
--------- Device Information -----------
Spectrum Name :  反射率_0
Saving Time :  2024/04/30 00:17:33
Spectro-Module Model Name : SE2030-DUVN
Spectro-Module Serial Number : OS361AC55029948
Wavelength Start : 200
Wavelength End : 1025
Wavelength Unit : Wavelength(nm)
Spectrum Unit : Reflectance(%)
-----------Spectrum Setting ------------
Integration Time : 20ms
Average : 10
Boxcar : 0
Background removal :  enabled
linearity correction :  enabled
SC :  disabled
Intensity correction :  disabled
DWT denoise :  enabled
savitzky-golay :  disabled
FFT :  disabled
Running average :  disabled
Kalman :  disabled
High pass :  disabled
---------------BEGIN--------------------
Wavelength(nm)             Reflectance(%)
200.29               0
200.75        64.15871
201.21        52.25203
201.67        40.14509
202.13        32.92402
202.58         32.9059
203.04        39.25671
203.50         50.8196
203.96        64.50739
204.42         77.0334
204.88        87.29896
205.34        91.44988
205.80        85.98657
206.26        74.59368
206.72        62.25607
207.18        51.86654
207.64        44.39202
208.10        39.00059
208.55        34.41989
209.01        31.88659
209.47        34.66058
209.93        41.90602
210.39        51.05339
210.85        58.37201
211.31        61.09528
211.77        59.26278
212.23        52.62484
212.69        42.19287
213.14        36.30618
213.60        39.47352
214.06        47.73679
214.52        55.49902
214.98        59.03702
215.44        59.01444
215.90        57.10911
216.36        55.09822
216.81        56.23403
217.27        62.32471
217.73        73.31923
218.19        88.54937
218.65        100.8277
219.11        103.6965
219.57         98.9381
220.02        91.45242
220.48        85.16802
220.94        79.27104
221.40        71.91504
221.86        62.23529
222.32        52.88984
222.77        47.46156
223.23        46.14853
223.69        46.19917
224.15         45.1721
224.61        42.70201
225.06        39.09612
225.52        35.39516
225.98        33.98154
226.44        35.34433
226.90        37.88983
227.36        40.15902
227.81        41.26085
228.27        41.31985
228.73        40.66291
229.19         39.7725
229.65        39.57661
230.10        40.18163
230.56        41.08414
231.02        41.67048
231.48         41.4147
231.93        40.27275
232.39         38.5505
232.85        36.58382
233.31        35.09347
233.77        34.39429
234.22         34.4275
234.68        34.86537
235.14        35.09686
235.60        34.98196
236.05        34.70815
236.51        34.81059
236.97        36.01431
237.43        38.59315
237.88        42.80132
238.34        48.11366
238.80         52.5808
239.26        54.51105
239.71        54.07964
240.17        52.47358
240.63        52.01918
241.08        53.69481
241.54        57.72167
242.00        65.25859
242.46        75.32938
242.91        84.16848
243.37        89.17186
243.83        90.73026
244.28        92.00284
244.74         94.1743
245.20        95.99495
245.66        97.93929
246.11        101.1667
246.57        105.7542
247.03        112.9353
247.48        118.9571
247.94        115.3937
248.40        104.5234
248.85        92.00445
249.31        83.81969
249.77        82.01685
250.22        86.07162
250.68        96.40187
251.14         112.633
251.59         121.286
252.05        113.2286
252.51        99.31052
252.96        88.17324
253.42        82.52153
253.88        80.10395
254.33        79.04039
254.79        78.75069
255.25        78.01247
255.70        76.53816
256.16        75.36491
256.62        74.49941
257.07        73.78987
257.53        73.43934
257.99        73.01903
258.44        71.94047
258.90        70.33129
259.35        68.07204
259.81        65.90701
260.27        63.97508
260.72        62.36015
261.18        61.15502
261.63        59.96629
262.09        58.78526
262.55        57.28745
263.00        55.50203
263.46        53.81419
263.91        52.20004
264.37        50.91541
264.83        49.85604
265.28        48.85619
265.74        48.06041
266.19        47.47047
266.65        47.12075
267.11        46.93896
267.56        46.68004
268.02        45.99443
268.47        44.80132
268.93        43.20416
269.38        41.47331
269.84          40.213
270.30        39.56789
270.75        39.36789
271.21        39.28046
271.66         38.7748
272.12        37.74757
272.57        36.35411
273.03        34.88985
273.48        33.73544
273.94        33.05592
274.39        32.67199
274.85        32.43888
275.31        32.08867
275.76         31.5402
276.22        30.90513
276.67        30.25747
277.13        29.78857
277.58        29.47003
278.04        29.25722
278.49        28.98558
278.95        28.51913
279.40        27.81158
279.86        27.01916
280.31        26.22196
280.77        25.64689
281.22        25.30746
281.68        25.15377
282.13        25.14156
282.59        25.25589
283.04         25.4368
283.50        25.67341
283.95        25.84834
284.41         25.7916
284.86        25.48119
285.32        25.02529
285.77         24.5217
286.22        24.18501
286.68        24.07621
287.13        24.09684
287.59          24.243
288.04        24.44795
288.50        24.68224
288.95        24.92172
289.41        25.11723
289.86        25.15277
290.32        25.05046
290.77        24.86267
291.22        24.66511
291.68        24.57521
292.13        24.63865
292.59        24.85926
293.04        25.31086
293.50        26.12604
293.95        27.30052
294.40        28.79923
294.86        30.42921
295.31        31.89139
295.77        33.10647
296.22        34.13674
296.68         35.1652
297.13        36.46661
297.58        38.10821
298.04        39.96184
298.49        41.86819
298.95        43.59115
299.40        45.06841
299.85        46.40197
300.31        47.70432
300.76        49.06525
301.21        50.56187
301.67        52.17968
302.12        53.89107
302.58        55.80379
303.03        57.87742
303.48        60.01364
303.94        62.16117
304.39        64.57395
304.84        66.58723
305.30        68.71904
305.75        70.73266
306.20         72.6389
306.66        74.44418
307.11        76.08871
307.57        77.64316
308.02        79.09624
308.47        80.50432
308.93        81.88193
309.38        83.20103
309.83        84.49075
310.29        85.75292
310.74        86.96856
311.19        88.09736
311.65         89.0618
312.10        89.84151
312.55        90.48582
313.00          91.116
313.46        91.92334
313.91        92.92556
314.36        94.06381
314.82        95.20521
315.27        96.16328
315.72        96.85549
316.18        97.33668
316.63        97.65034
317.08        97.88302
317.53        98.09279
317.99         98.2962
318.44        98.49549
318.89         98.7103
319.35        98.95261
319.80        99.22176
320.25        99.60293
320.70        100.2233
321.16        101.0499
321.61        102.0714
322.06        103.0307
322.51        103.5262
322.97        103.4645
323.42        102.9781
323.87        102.3476
324.32        102.0483
324.78        102.1941
325.23        102.7244
325.68        103.4296
326.13        103.9455
326.59         104.141
327.04        104.1627
327.49        104.1683
327.94        104.4613
328.39        105.1008
328.85        105.9153
329.30        106.7707
329.75        107.2469
330.20        107.2374
330.66        106.8814
331.11        106.4093
331.56        106.1103
332.01        106.1177
332.46        106.3659
332.92        106.8149
333.37        107.5406
333.82        108.4521
334.27        109.5303
334.72         110.654
335.17        111.6161
335.63        112.3114
336.08        112.8193
336.53        113.1177
336.98        113.2708
337.43        113.3275
337.88        113.2804
338.34         113.237
338.79        113.3865
339.24        113.7653
339.69         114.366
340.14        115.0416
340.59        115.5163
341.05        115.7392
341.50        115.8013
341.95         115.868
342.40        116.2287
342.85        116.9302
343.30        117.8229
343.75        118.7695
344.20        119.5565
344.66        120.1188
345.11        120.5502
345.56        120.7884
346.01         120.727
346.46        120.4173
346.91        119.9072
347.36        119.5306
347.81        119.7992
348.26        120.7673
348.72        122.2419
349.17        123.8215
349.62        124.7398
350.07        124.7879
350.52        124.2249
350.97        123.3758
351.42        122.7457
351.87         122.506
352.32        122.4971
352.77        122.7062
353.22        123.1202
353.67        123.6646
354.13        124.3235
354.58        124.9013
355.03        125.0597
355.48        124.7163
355.93        123.9501
356.38        122.9238
356.83         121.907
357.28        121.0025
357.73        120.1738
358.18        119.4025
358.63        118.6467
359.08           117.9
359.53        117.1975
359.98        116.5708
360.43        116.0522
360.88        115.6296
361.33        115.2624
361.78        114.8709
362.23        114.3428
362.68        113.6494
363.13        112.8242
363.58         111.926
364.03         111.048
364.48        110.2316
364.93        109.4685
365.38        108.7542
365.83        108.0816
366.28        107.4477
366.73        106.8501
367.18        106.3022
367.63        105.8179
368.08        105.3744
368.53        104.9466
368.98        104.4584
369.43        103.7899
369.88         102.939
370.33         101.979
370.78        101.0012
371.23        100.1589
371.68        99.50613
372.13        98.98154
372.58        98.61449
373.03        98.44523
373.48        98.42172
373.93        98.49996
374.38         98.4611
374.83        97.95605
375.28        96.94994
375.72        95.56927
376.17        94.14671
376.62          93.008
377.07        92.24036
377.52        91.72857
377.97        91.43143
378.42        91.28194
378.87        91.21216
379.32        91.22574
379.77        91.18553
380.22        90.87692
380.67        90.26272
381.11        89.39719
381.56        88.41793
382.01        87.59288
382.46        87.02527
382.91        86.66727
383.36        86.44244
383.81         86.2207
384.26        85.94872
384.71        85.64454
385.15        85.33617
385.60        85.12295
386.05        84.98296
386.50         84.8772
386.95         84.6794
387.40        84.21904
387.85        83.50109
388.29        82.56306
388.74        81.71212
389.19         81.1476
389.64        80.91344
390.09        80.92365
390.54        81.02523
390.98        81.03002
391.43        80.91892
391.88        80.50938
392.33        79.94982
392.78        79.93842
393.23        80.21795
393.67        79.61192
394.12        78.46162
394.57         77.7267
395.02        77.90234
395.47        77.96918
395.91        77.94608
396.36        77.88319
396.81        77.74845
397.26         77.5136
397.71        77.24596
398.15        76.97928
398.60         76.8062
399.05        76.77866
399.50         76.7991
399.95        76.55326
400.39        75.87956
400.84        75.94489
401.29        76.51347
401.74        76.59869
402.18        76.07626
402.63        75.31278
403.08        74.59759
403.53          74.279
403.97        74.41225
404.42        74.80583
404.87        75.21792
405.32         75.2851
405.76        74.91105
406.21        74.35329
406.66        73.74712
407.11        73.13328
407.55        72.73574
408.00        72.82015
408.45        73.30907
408.90        73.95966
409.34        74.46735
409.79        74.23487
410.24        73.50407
410.68        73.30724
411.13        73.72276
411.58         74.1499
412.03        74.40563
412.47        74.46968
412.92         74.2605
413.37        73.84245
413.81        73.33074
414.26        72.97249
414.71        72.79029
415.15        72.73232
415.60        72.75272
416.05         72.8184
416.49        72.90867
416.94        73.04475
417.39        73.15384
417.83        73.09853
418.28        72.86803
418.73        72.48919
419.17        72.12294
419.62        72.04553
420.07        72.28938
420.51        72.75285
420.96        73.25312
421.41        73.42625
421.85        73.18542
422.30        72.81127
422.74        72.40681
423.19        72.05215
423.64        71.85869
424.08        72.16278
424.53        72.81806
424.98         73.2252
425.42        73.26877
425.87        73.38615
426.31        73.54118
426.76        73.12624
427.21        72.19894
427.65        72.17616
428.10        72.83701
428.54        72.75178
428.99        72.01234
429.44          71.647
429.88        71.76676
430.33        71.98797
430.77        72.22082
431.22        72.91592
431.66        73.83303
432.11        73.80067
432.56        72.92734
433.00        72.67194
433.45        73.26018
433.89        73.39749
434.34        73.40942
434.78         74.5996
435.23        72.83909
435.67        72.39046
436.12         72.2084
436.57        72.21972
437.01        72.30795
437.46        72.93705
437.90        72.79513
438.35         73.2398
438.79        73.78622
439.24        74.00771
439.68        73.90845
440.13        73.90474
440.57        74.09017
441.02        74.14906
441.46        74.03147
441.91        74.24809
442.35        74.71852
442.80        73.99593
443.24        74.58802
443.69        74.26704
444.13        73.88066
444.58        73.68847
445.02        73.69114
445.47        73.75368
445.91        73.81216
446.36        73.90326
446.80        73.98267
447.24        74.09418
447.69        74.21896
448.13        74.21945
448.58        74.14717
449.02        74.17027
449.47         74.2959
449.91        74.34447
450.36        74.32433
450.80        74.31772
451.25        74.34158
451.69        74.33854
452.13        74.31906
452.58         74.3311
453.02        74.34961
453.47        74.35565
453.91        74.32488
454.36        74.34028
454.80        74.14712
455.24        74.32471
455.69        74.60387
456.13        74.63644
456.58        74.55896
457.02        73.37717
457.46        73.78006
457.91        73.59538
458.35        73.54451
458.79        73.53014
459.24        73.58291
459.68        73.77043
460.13        74.04572
460.57        74.04686
461.01        74.29647
461.46        74.14718
461.90        73.77687
462.34        74.18156
462.79        74.16984
463.23          73.897
463.68        73.17511
464.12        72.75816
464.56        72.69147
465.01        72.72491
465.45        72.74149
465.89        72.58549
466.34        72.31281
466.78        72.57642
467.22        72.84487
467.67        72.81137
468.11         72.5135
468.55        72.08239
468.99        71.68124
469.44        71.34525
469.88        71.12453
470.32        71.01922
470.77        71.00258
471.21        71.04782
471.65        71.11008
472.10        71.23874
472.54        71.40405
472.98         71.4941
473.42         71.4671
473.87        71.75716
474.31        71.61438
474.75        71.56972
475.20        71.43597
475.64        71.42942
476.08        71.52646
476.52        71.34333
476.97        70.83829
477.41        71.09254
477.85        70.27077
478.29        70.47369
478.74        70.99941
479.18        71.04465
479.62        70.65953
480.06        70.58842
480.50        70.87035
480.95        70.77256
481.39        71.42326
481.83        70.63924
482.27        71.35361
482.72        71.12849
483.16        71.20821
483.60        71.23393
484.04        71.34173
484.48        71.59749
484.93        71.78821
485.37        71.59982
485.81        70.36638
486.25        69.93848
486.69        71.54854
487.14        71.16716
487.58        70.31285
488.02         70.3167
488.46        70.84214
488.90        70.64429
489.34        70.14727
489.79        70.93699
490.23        70.51596
490.67        70.58007
491.11        70.36143
491.55         70.0939
491.99        69.85173
492.43        69.74726
492.88        69.82516
493.32        70.07111
493.76        70.38774
494.20         70.6135
494.64        70.69442
495.08        70.70574
495.52        70.67473
495.96        70.54347
496.41        70.40704
496.85        70.53601
497.29        70.75574
497.73         70.8975
498.17        70.18995
498.61        69.91973
499.05        69.95373
499.49        70.01127
499.93        69.99189
500.37        69.99466
500.82         70.0991
501.26        69.50291
501.70        69.99568
502.14        69.95467
502.58        69.91965
503.02        69.96337
503.46        70.09727
503.90        70.26991
504.34        70.42189
504.78        70.47652
505.22        70.41168
505.66        70.35065
506.10        70.31425
506.54        70.18861
506.98          69.966
507.42        70.19347
507.86        69.66267
508.30        69.97028
508.74        69.49833
509.18        69.32304
509.62        69.14501
510.06        69.14332
510.50        69.33721
510.94        69.67977
511.38        70.04373
511.82        70.18298
512.26        70.04529
512.70        69.70448
513.14        69.31139
513.58        69.10044
514.02        69.12993
514.46         69.3306
514.90        69.59273
515.34        69.73146
515.78        69.69569
516.22        69.55557
516.66        69.38427
517.10        69.27928
517.54        69.27015
517.98        69.32552
518.42        69.38861
518.86        69.37189
519.30        69.25771
519.74        69.08175
520.18        68.90997
520.62        68.83463
521.06        68.88247
521.50        69.03612
521.93        69.23385
522.37        69.35301
522.81        69.36945
523.25         69.2981
523.69        69.23091
524.13        69.31353
524.57        69.56088
525.01        69.92048
525.45        70.23677
525.89        70.25971
526.32        69.94012
526.76        69.39902
527.20        68.82341
527.64        68.50224
528.08        68.50225
528.52        68.72751
528.96        69.05504
529.40        69.28708
529.83        69.35168
530.27        69.31792
530.71        69.21412
531.15        69.09038
531.59        68.97231
532.03         68.8382
532.46        68.69753
532.90        68.60239
533.34        68.55634
533.78        68.56081
534.22        68.59685
534.66        68.62669
535.09        68.63275
535.53        68.63467
535.97        68.63579
536.41        68.65861
536.85        68.70463
537.28        68.75943
537.72        68.80141
538.16        68.79362
538.60        68.72949
539.04        68.62414
539.47        68.49464
539.91        68.42237
540.35        68.40456
540.79         68.4369
541.22        68.48393
541.66         68.5006
542.10        68.47205
542.54        68.41688
542.97        68.36891
543.41        68.39998
543.85        68.51023
544.29        68.68779
544.72        68.84261
545.16        68.87378
545.60         68.7587
546.04        68.50212
546.47        68.21966
546.91        68.20381
547.35        68.44557
547.79        68.65939
548.22        68.73611
548.66         68.8765
549.10        69.06628
549.53        68.97494
549.97        68.54874
550.41        69.10909
550.84        68.60069
551.28        68.58138
551.72        68.45731
552.15        68.69542
552.59        68.65215
553.03        68.89296
553.46        68.85988
553.90        68.86225
554.34        68.74429
554.77        69.00401
555.21        68.69588
555.65         68.6737
556.08        68.65258
556.52         68.6027
556.96        68.54363
557.39        68.63761
557.83        68.87527
558.27        69.03815
558.70        69.09955
559.14        69.16542
559.57        69.19552
560.01        69.14105
560.45        69.03867
560.88        68.81432
561.32        68.83058
561.75         68.7903
562.19        68.77429
562.63        68.65823
563.06        68.48129
563.50         68.4462
563.93        68.53088
564.37        68.67199
564.80        68.79658
565.24         68.8272
565.68        68.76299
566.11        68.76987
566.55        68.85753
566.98        68.79512
567.42        68.68371
567.85        68.67183
568.29        68.79134
568.72        68.91734
569.16        69.60166
569.60        69.01035
570.03        69.39745
570.47        69.35809
570.90        69.33311
571.34        69.03776
571.77        69.27429
572.21        69.51384
572.64        69.87718
573.08        69.68915
573.51        68.95971
573.95        69.53764
574.38        69.29991
574.82        69.50793
575.25        69.66605
575.69        69.76446
576.12        69.19432
576.56        68.70998
576.99        69.45637
577.42        69.22842
577.86        69.08933
578.29        69.20709
578.73        70.00677
579.16         69.1409
579.60        69.43517
580.03        68.87012
580.47        69.38116
580.90        69.49184
581.33        68.83884
581.77        69.20004
582.20        69.49994
582.64        69.72581
583.07        69.13791
583.51        68.70947
583.94        68.60651
584.37        68.45908
584.81        68.47712
585.24        68.94142
585.68        69.10526
586.11        69.98369
586.54        68.83761
586.98        68.31542
587.41        69.45872
587.85        69.74306
588.28        69.54476
588.71        69.94785
589.15        68.87003
589.58        69.29453
590.01        68.39107
590.45        68.55888
590.88        69.10281
591.31        69.47717
591.75        69.36886
592.18        69.58382
592.61        69.89232
593.05        68.29846
593.48        69.29794
593.91        70.00357
594.35        68.50804
594.78        68.38531
595.21        68.65497
595.65        68.96313
596.08        68.51123
596.51        68.69276
596.94        68.94442
597.38         69.1637
597.81        69.14278
598.24        68.99112
598.68        68.70869
599.11        68.26181
599.54        69.36781
599.97        69.53035
600.41         68.2094
600.84         68.7066
601.27        68.63516
601.70        68.94063
602.14         69.3475
602.57        68.94965
603.00         68.0936
603.43        68.04481
603.87        68.59466
604.30        68.86509
604.73        68.65293
605.16        68.54906
605.60        68.53025
606.03        68.68855
606.46        68.89696
606.89        68.90498
607.32        68.72318
607.76        68.68174
608.19        68.83843
608.62        68.90429
609.05        68.85122
609.48        69.08991
609.92        68.68114
610.35        68.69941
610.78        69.34487
611.21        68.61684
611.64        68.26051
612.07         68.6995
612.50        68.80599
612.94        68.87498
613.37        69.09619
613.80        68.83949
614.23        69.06009
614.66        69.04067
615.09        69.05257
615.52        68.94849
615.96        68.67784
616.39        68.99525
616.82        68.51104
617.25        68.55691
617.68        68.17595
618.11        68.36356
618.54        68.80908
618.97        68.83261
619.40        68.46648
619.84        68.36671
620.27        68.63081
620.70        68.75878
621.13        68.60954
621.56        68.78768
621.99        68.49533
622.42        67.88985
622.85         68.6616
623.28        68.59908
623.71        68.87369
624.14        68.18503
624.57        68.58909
625.00        68.51849
625.43        68.52001
625.86        68.36201
626.29        68.30079
626.72        68.39052
627.15        68.26248
627.58         68.3081
628.01        68.33804
628.44        68.29406
628.87        68.18668
629.30        67.92693
629.73        68.61147
630.16        68.74165
630.59        68.62067
631.02         68.6797
631.45        68.63539
631.88        68.61962
632.31        68.53397
632.74        68.42963
633.17        68.31351
633.60         68.2009
634.03         68.1023
634.46        68.02956
634.89        67.98858
635.32        67.93045
635.75        67.89967
636.18        67.97619
636.61        68.12749
637.04        68.20075
637.47        68.19289
637.89        68.13887
638.32        68.01785
638.75        67.97379
639.18         68.0533
639.61        67.55861
640.04        67.73968
640.47        67.66228
640.90        67.69901
641.33        67.81631
641.76        67.97292
642.18        68.07735
642.61        68.06908
643.04        67.98467
643.47        67.88803
643.90        67.86327
644.33        67.92229
644.76        68.12354
645.18        68.36236
645.61         68.2803
646.04        67.79897
646.47        67.75672
646.90         68.0627
647.33        68.11147
647.75        67.86758
648.18        67.69516
648.61        67.66319
649.04        67.67917
649.47        67.75664
649.89        68.04119
650.32        68.37975
650.75        68.38245
651.18        68.13322
651.61        68.01972
652.03        68.11135
652.46        68.50314
652.89        68.98054
653.32        68.80442
653.74        68.09188
654.17        68.06675
654.60        67.42153
655.03        68.56362
655.46        67.30173
655.88        68.10515
656.31        70.81323
656.74        72.04436
657.16        71.70404
657.59        69.17812
658.02        68.19183
658.45        68.89406
658.87        69.06779
659.30        68.48073
659.73        69.04775
660.15        68.85664
660.58        68.70035
661.01        68.60844
661.44        68.60071
661.86        68.23658
662.29         67.6565
662.72        67.83983
663.14         68.6152
663.57        68.54115
664.00        67.74699
664.42        67.52373
664.85        67.93108
665.27        68.22717
665.70        68.31823
666.13        68.43224
666.55        68.55125
666.98        68.59487
667.41         68.5806
667.83        68.53784
668.26        68.46602
668.69        68.37348
669.11         68.2718
669.54        68.15517
669.96        68.02719
670.39        67.96902
670.82        67.96499
671.24        67.82042
671.67        67.60643
672.09        67.71679
672.52        68.09554
672.94        68.37906
673.37        68.00655
673.80        68.41914
674.22        68.13336
674.65        68.25176
675.07         68.3824
675.50        68.57269
675.92        68.77116
676.35        68.80477
676.77        68.65515
677.20        68.67319
677.62        68.35943
678.05        68.32658
678.47        68.42554
678.90        68.63657
679.32        68.84961
679.75        68.91083
680.17        68.78101
680.60        68.51487
681.02         68.2249
681.45        68.05583
681.87        68.04712
682.30        68.24595
682.72        68.56092
683.15        68.52502
683.57        68.24241
684.00        68.38558
684.42        68.88558
684.85        69.10477
685.27        69.01339
685.70        68.89363
686.12        68.84016
686.54        69.07998
686.97        69.52085
687.39        69.77007
687.82        69.73344
688.24        69.70567
688.66        69.64262
689.09        69.38307
689.51        69.00446
689.94        68.76157
690.36        68.69254
690.78        68.72379
691.21        68.82284
691.63        68.93671
692.06        69.03703
692.48         69.1601
692.90        69.25546
693.33        69.22993
693.75        69.07625
694.17        68.80547
694.60        68.53983
695.02        68.45447
695.44        68.57394
695.87        68.98284
696.29        69.50736
696.71        69.48459
697.14        69.01932
697.56        68.95865
697.98        69.30026
698.41        69.38416
698.83         69.1981
699.25        69.14919
699.68         69.2205
700.10        69.23735
700.52        69.17532
700.94        69.10374
701.37        69.02034
701.79        68.93345
702.21        68.84267
702.64        68.75236
703.06        68.68442
703.48        68.68957
703.90        68.77529
704.33        68.93597
704.75         69.1031
705.17         69.2334
705.59        69.28832
706.01        69.28812
706.44        69.26455
706.86        69.28774
707.28        69.37147
707.70        69.45528
708.12        69.53982
708.55        69.70277
708.97        69.89608
709.39        69.91653
709.81        69.79881
710.23        69.81068
710.66        69.96743
711.08        70.13493
711.50        70.26508
711.92        70.37857
712.34        70.46384
712.76        70.51799
713.19         70.5231
713.61        70.49696
714.03        70.42985
714.45        70.33199
714.87        70.24411
715.29        70.22473
715.71        70.28169
716.13        70.39635
716.56        70.50916
716.98        70.60374
717.40        70.63129
717.82        70.60882
718.24        70.54943
718.66        70.47657
719.08        70.40309
719.50        70.32149
719.92         70.2487
720.34        70.21222
720.76        70.21572
721.19         70.2468
721.61        70.29068
722.03        70.29325
722.45        70.24035
722.87        70.14101
723.29        70.02527
723.71        69.94289
724.13        69.90942
724.55        69.91884
724.97        69.94054
725.39        69.92099
725.81         69.8569
726.23        69.77351
726.65        69.72195
727.07        69.78423
727.49        69.96777
727.91        70.22388
728.33        70.50192
728.75        70.71881
729.17        70.83923
729.59        70.89399
730.01        70.85519
730.43        70.68195
730.85        70.39858
731.27        70.03472
731.69        69.72181
732.10        69.66537
732.52        69.90297
732.94        70.37813
733.36        70.94592
733.78        71.35706
734.20        71.52095
734.62        71.43994
735.04        71.23151
735.46        71.20934
735.88        71.36367
736.30         71.3643
736.72        71.18871
737.13        71.05559
737.55        70.93935
737.97        70.79891
738.39        70.68416
738.81        70.55311
739.23        70.49762
739.65          70.895
740.06        71.52242
740.48        71.73576
740.90         71.4579
741.32        71.00404
741.74         70.5451
742.16        70.28123
742.57        70.30934
742.99        70.47662
743.41        70.70345
743.83        71.02876
744.25        71.31719
744.67         71.1956
745.08        70.77574
745.50        70.60822
745.92        70.75909
746.34        70.91365
746.75        71.02615
747.17        71.14387
747.59        71.24715
748.01        71.37408
748.42        71.49268
748.84        71.46025
749.26        71.33087
749.68        71.22473
750.09        71.18509
750.51        71.35078
750.93         71.6195
751.35        71.62141
751.76        71.39178
752.18        71.31396
752.60        71.38809
753.01        71.42719
753.43        71.41901
753.85         71.3274
754.27        71.13377
754.68        71.54116
755.10        71.32742
755.52        71.41776
755.93         71.4254
756.35        71.36607
756.77         71.3559
757.18         71.4798
757.60         71.7414
758.02        72.45292
758.43        73.27251
758.85        72.81977
759.26        71.42492
759.68        71.14951
760.10        71.98833
760.51         72.2419
760.93        71.86067
761.34        71.93357
761.76        72.35174
762.18        72.35863
762.59        71.94679
763.01        71.38673
763.42        70.91197
763.84        70.72484
764.26        70.89667
764.67        71.33459
765.09        71.88329
765.50        72.24465
765.92        72.36155
766.33        72.34741
766.75        72.18226
767.16        72.04504
767.58        71.94302
768.00        71.74078
768.41        71.51444
768.83        71.63344
769.24        71.96273
769.66        71.95837
770.07        71.63334
770.49        71.38159
770.90         71.3025
771.32        71.48296
771.73        71.85124
772.15        71.96507
772.56        71.79282
772.97        71.83774
773.39        71.66972
773.80        71.79041
774.22        72.03224
774.63        72.42645
775.05        72.79219
775.46        72.93594
775.88        72.78571
776.29        72.44695
776.70        72.04037
777.12         71.7869
777.53        71.75101
777.95        71.84274
778.36        72.03925
778.77         72.2372
779.19        72.38821
779.60        72.70876
780.02        73.05688
780.43        72.93623
780.84        72.49825
781.26        72.41617
781.67        72.73677
782.09        73.23956
782.50        73.69191
782.91        73.49813
783.33        72.75678
783.74        72.35949
784.15        72.37771
784.57        72.27214
784.98        72.05093
785.39        72.00632
785.81        72.15367
786.22        72.40381
786.63        72.73422
787.04        73.11168
787.46        73.50436
787.87        73.87931
788.28        74.20908
788.70        74.44894
789.11        74.57628
789.52        74.61946
789.93        74.56644
790.35        74.39736
790.76         74.1473
791.17        73.84081
791.58        73.58338
792.00        73.50063
792.41        73.63474
792.82         73.9819
793.23        74.42976
793.65        74.65284
794.06        74.65647
794.47        74.77104
794.88        74.94959
795.29        74.88808
795.71        74.55888
796.12        74.16161
796.53        73.83495
796.94        73.76752
797.35        74.01984
797.76        74.54648
798.18        75.13814
798.59        75.49137
799.00        75.50151
799.41        75.25841
799.82        74.90537
800.23        74.69501
800.64        74.70762
801.06        74.83504
801.47        75.05014
801.88        75.23119
802.29        75.32401
802.70         75.3531
803.11        75.32479
803.52        75.24082
803.93        75.12743
804.34        75.00129
804.75        74.84428
805.17        74.70986
805.58        74.65931
805.99        74.42664
806.40        74.15892
806.81        74.67635
807.22        75.71844
807.63        75.86391
808.04        75.17442
808.45        75.00266
808.86        75.43213
809.27        75.65761
809.68        75.59861
810.09        75.54378
810.50        75.49403
810.91        75.36479
811.32        75.24463
811.73        75.27464
812.14        75.47337
812.55        75.81875
812.96        76.16684
813.37        76.24149
813.78        75.98644
814.19        75.51181
814.60        74.99559
815.01        74.68383
815.42        74.63617
815.83        74.78136
816.24        75.04854
816.65         75.2933
817.05        75.44383
817.46        75.49825
817.87        75.49398
818.28        75.43082
818.69        75.32302
819.10        75.16792
819.51        74.99026
819.92          74.853
820.33        74.78162
820.74        74.75788
821.14        74.80193
821.55        74.94273
821.96        75.16567
822.37        75.47693
822.78        75.76826
823.19        75.84344
823.60         75.6577
824.00        75.25946
824.41        74.82393
824.82        74.66569
825.23        74.84916
825.64        75.29482
826.04        75.82269
826.45        76.02679
826.86        75.82983
827.27        75.35661
827.68        74.81269
828.08        74.54437
828.49         74.6027
828.90        74.92035
829.31        75.38435
829.72        75.79904
830.12        76.11622
830.53         76.3105
830.94        76.46549
831.35        76.67027
831.75        76.96066
832.16        77.21626
832.57        77.37418
832.97        77.30348
833.38        76.99878
833.79        76.57724
834.20        76.13507
834.60        75.78173
835.01        75.59299
835.42        75.50928
835.82        75.62583
836.23        76.02315
836.64        76.69853
837.04        77.63773
837.45        78.49371
837.86        78.85118
838.26        78.60301
838.67         77.8783
839.08        76.96652
839.48        76.30756
839.89        76.07397
840.29        76.14043
840.70        76.39503
841.11        76.66505
841.51        76.89849
841.92         77.1124
842.33        77.31909
842.73        77.50824
843.14        77.62391
843.54        77.68986
843.95        77.69041
844.35        77.68463
844.76        77.66145
845.17        77.58565
845.57        77.51906
845.98        77.52209
846.38         77.6214
846.79        77.81631
847.19        77.93855
847.60        77.64873
848.00           76.94
848.41        75.94357
848.81        75.04541
849.22        74.82452
849.62        75.42151
850.03        76.61338
850.43        78.06481
850.84        78.94538
851.24        79.04993
851.65        78.50103
852.05         77.6265
852.46        76.93376
852.86        76.59441
853.27        76.52855
853.67         76.5237
854.07        76.49551
854.48        76.35629
854.88        76.19087
855.29        76.01686
855.69        76.06721
856.10        76.27818
856.50        76.66747
856.90        76.98867
857.31        76.93759
857.71        76.51629
858.12        75.78596
858.52        75.03793
858.92        74.70051
859.33        74.87044
859.73        75.46886
860.13        76.24333
860.54        76.78483
860.94        77.00647
861.34        76.92626
861.75        76.62259
862.15         76.3039
862.55        76.01217
862.96         75.7268
863.36        75.33219
863.76        74.67352
864.17        73.79285
864.57         72.8174
864.97        71.99519
865.38        71.63777
865.78        71.83055
866.18        72.43829
866.58        73.30531
866.99        74.07377
867.39        74.61361
867.79        74.96974
868.19        75.04233
868.60         74.6975
869.00        73.97677
869.40        72.90623
869.80        71.89957
870.21        71.67188
870.61        72.40424
871.01        73.83912
871.41        75.38785
871.81        76.09589
872.22         75.7293
872.62         74.5873
873.02        73.12375
873.42        72.11321
873.82        71.81904
874.22        72.02267
874.63        72.49718
875.03        72.89781
875.43        73.10596
875.83        73.23849
876.23         73.3955
876.63        73.71293
877.03        74.19601
877.44        74.70837
877.84        75.14759
878.24         75.2742
878.64        75.06157
879.04        74.64412
879.44        74.16483
879.84        73.82639
880.24          73.683
880.64        73.63949
881.04        73.75829
881.44        74.13117
881.84        74.73426
882.24        75.56828
882.65        76.26177
883.05        76.31652
883.45        75.59962
883.85        74.32625
884.25         73.0566
884.65         72.6356
885.05        73.21447
885.45        74.49212
885.85        76.02988
886.25        77.06319
886.65        77.31008
887.05        77.01268
887.45        76.25899
887.85        75.22618
888.25        74.11866
888.65        72.95648
889.04        71.99735
889.44        71.66388
889.84         71.9458
890.24        72.77581
890.64         73.9013
891.04        74.73269
891.44        75.02396
891.84        74.91888
892.24        74.62083
892.64        74.44279
893.04        74.47398
893.44        74.60667
893.83        74.84103
894.23         75.1094
894.63        75.40085
895.03          75.738
895.43        76.06689
895.83         76.2937
896.23         76.3894
896.63        76.34289
897.02        76.19176
897.42         76.0704
897.82        75.99597
898.22        75.98547
898.62        75.93516
899.01        75.67943
899.41        75.19791
899.81        74.55759
900.21         74.0185
900.61         73.9722
901.00        74.46623
901.40        75.37177
901.80        76.28896
902.20        76.56678
902.59        76.04918
902.99        74.92731
903.39        73.63958
903.79          72.846
904.18        72.71159
904.58        73.09643
904.98        73.63499
905.38        73.76068
905.77         73.3302
906.17        72.52189
906.57        71.74429
906.96          71.665
907.36        72.37727
907.76        73.68215
908.15        75.04111
908.55        75.43276
908.95        74.70154
909.34        73.18745
909.74        71.62543
910.14        71.00641
910.53        71.60552
910.93        73.05216
911.33        74.93735
911.72        76.62431
912.12        77.76328
912.52        78.51986
912.91        78.95948
913.31        79.17145
913.70        79.21604
914.10        79.00883
914.49        78.50511
914.89        77.66409
915.29        76.56313
915.68        75.30632
916.08        74.21724
916.47        73.62772
916.87        73.65304
917.26        74.16174
917.66        74.90571
918.05        75.48295
918.45         75.6995
918.84        75.69334
919.24        75.49683
919.64        75.33987
920.03        75.30817
920.42        75.30166
920.82        75.32554
921.21        75.30903
921.61        75.25221
922.00        75.20301
922.40        75.20095
922.79          75.381
923.19        75.72277
923.58        76.19683
923.98        76.65188
924.37        76.87807
924.77        76.81902
925.16        76.52274
925.55        76.13995
925.95        75.92606
926.34        75.96591
926.74        76.18575
927.13        76.40414
927.52        76.28694
927.92        75.79159
928.31        75.02861
928.70        74.27464
929.10        73.95332
929.49        74.15849
929.89        74.70956
930.28        75.38329
930.67        75.71182
931.07        75.55608
931.46        75.10461
931.85        74.48375
932.24         73.8781
932.64        73.39677
933.03        73.01025
933.42        72.83422
933.82        73.05715
934.21         73.7005
934.60        74.62483
934.99        75.68137
935.39        76.58757
935.78        77.27555
936.17        77.78725
936.56        77.86642
936.96        77.17532
937.35        75.79679
937.74        73.94833
938.13        72.31802
938.53        71.78775
938.92        72.44623
939.31        74.10684
939.70        76.17079
940.09        77.42946
940.49        77.44138
940.88        76.53398
941.27        75.27887
941.66         74.5514
942.05        74.57861
942.44         75.1445
942.84        75.80309
943.23         75.8712
943.62        75.12437
944.01        73.81921
944.40        72.61214
944.79        72.42449
945.18        73.40991
945.57         75.3063
945.97        77.24333
946.36        77.96146
946.75        77.03079
947.14        74.88286
947.53        72.53989
947.92        71.54578
948.31        72.27016
948.70        74.30312
949.09        76.75462
949.48        77.99905
949.87        77.53899
950.26        75.89329
950.65        73.99439
951.04        73.13881
951.43        73.61636
951.82        75.05762
952.21        76.72858
952.60        77.31807
952.99        76.46191
953.38        74.63267
953.77        72.73617
954.16        71.94415
954.55        72.48326
954.94        74.09087
955.33        75.98709
955.72        76.53317
956.11        75.21931
956.50        72.66125
956.89        70.07494
957.28         69.0091
957.66        69.79666
958.05        71.93572
958.44        74.59473
958.83          76.065
959.22        75.75083
959.61        74.24361
960.00        72.44681
960.39        71.52212
960.78         71.6909
961.16        72.59534
961.55         73.7208
961.94        74.17319
962.33        73.64201
962.72        72.56908
963.11        71.33501
963.49        70.38844
963.88        69.87633
964.27        69.63748
964.66        69.74208
965.04         70.3829
965.43        71.44179
965.82        72.87252
966.21        74.34092
966.60        75.20978
966.98        75.29786
967.37        74.81389
967.76        73.99064
968.15        73.15929
968.53        72.42783
968.92        71.65108
969.31         71.0726
969.69        71.17178
970.08        71.98526
970.47        73.53969
970.86        75.14206
971.24        75.56355
971.63        74.52095
972.02        72.42178
972.40        70.28407
972.79        69.73943
973.17        71.07097
973.56        73.66106
973.95        76.61494
974.33        78.23247
974.72        77.88608
975.11        76.16824
975.49         73.9229
975.88        72.72916
976.26        72.99564
976.65        74.22351
977.04        75.89359
977.42         77.0625
977.81        77.23429
978.19         76.8099
978.58        76.16281
978.96        75.75957
979.35         75.8142
979.74        76.16745
980.12        76.71426
980.51        77.24621
980.89        77.73578
981.28         78.0779
981.66        78.54465
982.05        79.28356
982.43        80.40875
982.82        81.78247
983.20        82.86021
983.59        82.60527
983.97         80.9062
984.35        78.16048
984.74        75.50282
985.12        74.46397
985.51        75.26421
985.89        77.55788
986.28        80.19935
986.66        81.63177
987.04         81.2063
987.43        79.40036
987.81        77.01953
988.20        75.75838
988.58          76.045
988.96        77.43918
989.35        78.83887
989.73        78.71479
990.12        76.66991
990.50        73.37025
990.88        69.89339
991.27        67.94069
991.65        67.93018
992.03        69.38875
992.42        71.58199
992.80        73.69395
993.18        75.29257
993.56        76.58004
993.95        77.56809
994.33        78.43433
994.71        79.09956
995.10         79.4983
995.48        79.48297
995.86        78.98835
996.24        78.08543
996.63        76.75466
997.01        75.61455
997.39         75.5211
997.77        76.65733
998.15        78.79915
998.54         81.0385
998.92        81.98059
999.30        81.28324
999.68        79.25192
1000.06        76.81187
1000.45         75.7188
1000.83        76.58096
1001.21        78.85309
1001.59        81.51266
1001.97        82.87576
1002.35        82.48266
1002.73         80.9212
1003.12        78.89632
1003.50        77.39155
1003.88        76.79616
1004.26        76.80228
1004.64        77.24901
1005.02        77.89448
1005.40         78.5579
1005.78        79.26973
1006.16         79.9822
1006.54        80.62288
1006.92         81.1602
1007.30        81.56953
1007.69        81.64189
1008.07         81.1667
1008.45        80.10021
1008.83        78.66143
1009.21        77.25724
1009.59        76.53888
1009.97        76.66203
1010.35        77.30331
1010.73        78.44154
1011.11        79.99738
1011.49        81.72455
1011.86        83.68604
1012.24         84.8685
1012.62        83.90176
1013.00        80.58305
1013.38         75.1524
1013.76        69.13229
1014.14        65.86623
1014.52        66.65073
1014.90         70.7193
1015.28        76.07153
1015.66        79.45409
1016.04        79.91789
1016.41        78.41142
1016.79        75.69373
1017.17        73.51582
1017.55        72.74714
1017.93         72.7816
1018.31        73.41598
1018.69        74.67112
1019.06        76.70508
1019.44         79.7455
1019.82        84.06106
1020.20        88.48538
1020.58        91.32281
1020.95        92.07989
1021.33        91.20634
1021.71        89.47867
1022.09        86.98206
1022.46        83.04067
1022.84        77.93127
1023.22        73.19547
1023.60        70.55939
1023.97        70.24337
1024.35        71.03863
1024.73        71.20121
