SpectraSmart Spectrum 2.9.0.0
--------- Device Information -----------
Spectrum Name :  反射率_0
Saving Time :  2024/04/30 00:11:22
Spectro-Module Model Name : SE2030-DUVN
Spectro-Module Serial Number : OS361AC55029948
Wavelength Start : 200
Wavelength End : 1025
Wavelength Unit : Wavelength(nm)
Spectrum Unit : Reflectance(%)
-----------Spectrum Setting ------------
Integration Time : 20ms
Average : 10
Boxcar : 0
Background removal :  enabled
linearity correction :  enabled
SC :  disabled
Intensity correction :  disabled
DWT denoise :  enabled
savitzky-golay :  disabled
FFT :  disabled
Running average :  disabled
Kalman :  disabled
High pass :  disabled
---------------BEGIN--------------------
Wavelength(nm)             Reflectance(%)
200.29               0
200.75         95.9561
201.21        88.91923
201.67        83.93594
202.13        83.52515
202.58        88.64639
203.04         99.1353
203.50        112.4033
203.96        122.6151
204.42        126.0972
204.88        122.6733
205.34        113.6182
205.80        103.2823
206.26         94.7033
206.72         88.0697
207.18        82.88183
207.64        77.86496
208.10        72.35081
208.55        66.31179
209.01        60.35984
209.47        57.41031
209.93        58.25964
210.39        61.42316
210.85        64.55398
211.31        65.71459
211.77        64.64731
212.23        61.20696
212.69        56.29614
213.14        54.94072
213.60        58.72791
214.06        65.23135
214.52        70.45792
214.98        71.84464
215.44        70.10684
215.90        66.28506
216.36        62.88555
216.81        64.80222
217.27        74.62489
217.73        93.24744
218.19         118.694
218.65        136.4825
219.11        136.3353
219.57        123.3276
220.02        108.6391
220.48        100.5646
220.94         97.8912
221.40        98.03806
221.86         98.1517
222.32         92.5155
222.77        82.02643
223.23        73.02595
223.69        66.92678
224.15        63.11149
224.61        60.60377
225.06        58.53063
225.52        57.76971
225.98        59.86951
226.44        63.98664
226.90         68.4137
227.36         71.4858
227.81        72.16687
228.27        70.85901
228.73        67.84512
229.19        64.01997
229.65        61.60103
230.10        61.34466
230.56        62.52304
231.02        63.88043
231.48         64.3157
231.93        63.73997
232.39        62.63898
232.85        61.68316
233.31        62.12592
233.77         64.3123
234.22        68.01048
234.68        72.05005
235.14        74.33784
235.60        74.32324
236.05        72.58514
236.51        70.84651
236.97        71.50861
237.43        75.30732
237.88        82.45319
238.34        91.84998
238.80        99.46993
239.26        102.0499
239.71        100.2501
240.17         96.2863
240.63        93.95189
241.08        94.69955
241.54        97.99248
242.00         105.215
242.46        116.0374
242.91        127.1036
243.37        135.3949
243.83        139.7482
244.28        141.8644
244.74        142.7266
245.20        140.5416
245.66        136.2081
246.11         132.946
246.57        132.1013
247.03        135.0034
247.48        137.1969
247.94        129.5601
248.40        115.3413
248.85        101.1143
249.31        92.88066
249.77        92.52866
250.22        99.93465
250.68        116.7734
251.14        143.8775
251.59        162.7658
252.05        157.2818
252.51        140.5316
252.96        126.8326
253.42        122.6942
253.88        125.2272
254.33        131.4485
254.79        138.1468
255.25        138.5087
255.70         132.342
256.16        125.2676
256.62         119.891
257.07        117.4174
257.53        117.8491
257.99        119.6884
258.44        121.4304
258.90        122.1071
259.35        120.9621
259.81        119.4267
260.27        117.9302
260.72        116.8669
261.18        116.5708
261.63        116.1738
262.09        115.4871
262.55          113.64
263.00         110.644
263.46        107.4001
263.91        104.1416
264.37        101.7401
264.83        100.0245
265.28        98.67237
265.74        97.57054
266.19        96.18175
266.65        94.58389
267.11        92.86642
267.56        91.22745
268.02        90.00268
268.47         89.1366
268.93        88.51795
269.38        87.84717
269.84        86.76539
270.30         85.1993
270.75        83.28673
271.21        81.34023
271.66        79.66245
272.12         78.3328
272.57        77.17597
273.03        76.05618
273.48        74.64497
273.94        73.00537
274.39        71.20952
274.85        69.51649
275.31        68.08115
275.76        66.89097
276.22        65.93661
276.67        65.06164
277.13        64.25633
277.58        63.39526
278.04        62.57463
278.49        61.69331
278.95        60.79679
279.40        59.81285
279.86        58.85186
280.31        57.87096
280.77        57.01204
281.22        56.23396
281.68        55.58122
282.13        55.02071
282.59        54.63361
283.04        54.34553
283.50         54.1551
283.95        53.92933
284.41        53.53912
284.86        52.94176
285.32        52.27024
285.77        51.56908
286.22        51.02667
286.68        50.70204
287.13        50.48726
287.59        50.41494
288.04        50.43566
288.50        50.54824
288.95        50.69813
289.41        50.84247
289.86        50.82599
290.32        50.67958
290.77        50.44876
291.22        50.22327
291.68        50.14029
292.13        50.23472
292.59        50.51673
293.04        51.02571
293.50        51.88651
293.95        53.07808
294.40        54.58534
294.86        56.22942
295.31        57.73167
295.77        59.01895
296.22        60.13289
296.68        61.25223
297.13         62.6369
297.58        64.34245
298.04        66.24059
298.49        68.13503
298.95        69.75805
299.40        71.03127
299.85         72.0713
300.31        73.03846
300.76        74.07137
301.21        75.26659
301.67        76.60436
302.12        78.00991
302.58        79.52953
303.03        81.09533
303.48        82.69843
303.94         84.3384
304.39        86.08495
304.84        87.67947
305.30         89.3274
305.75        90.88031
306.20        92.32823
306.66        93.68752
307.11        94.89362
307.57        96.03375
308.02        97.08239
308.47        98.10261
308.93        99.10968
309.38        100.0706
309.83        101.0274
310.29        101.9882
310.74         102.924
311.19        103.7986
311.65        104.5371
312.10         105.111
312.55        105.5731
313.00        106.0305
313.46        106.6532
313.91        107.4518
314.36         108.369
314.82        109.2949
315.27        110.0849
315.72        110.6636
316.18        111.0766
316.63        111.3272
317.08        111.4373
317.53        111.4539
317.99        111.4135
318.44        111.3708
318.89        111.4315
319.35        111.6235
319.80        111.9191
320.25         112.345
320.70        112.9332
321.16        113.6253
321.61        114.4475
322.06        115.1935
322.51        115.5499
322.97        115.4529
323.42         115.008
323.87        114.4618
324.32        114.2399
324.78        114.4307
325.23        114.9849
325.68        115.6931
326.13        116.1955
326.59        116.3563
327.04        116.3174
327.49        116.2192
327.94        116.3468
328.39          116.76
328.85        117.2977
329.30         117.869
329.75         118.104
330.20        117.9243
330.66        117.4667
331.11        116.9541
331.56        116.6476
332.01        116.6681
332.46        116.9507
332.92         117.448
333.37        118.2423
333.82        119.2281
334.27         120.371
334.72        121.5291
335.17        122.4714
335.63        123.0826
336.08        123.4571
336.53        123.5883
336.98        123.5723
337.43        123.4798
337.88        123.3138
338.34        123.1825
338.79        123.2695
339.24        123.6082
339.69         124.184
340.14        124.8666
340.59        125.4091
341.05        125.7467
341.50        125.9421
341.95        126.0884
342.40        126.3675
342.85        126.8127
343.30        127.3237
343.75        127.8338
344.20        128.2452
344.66        128.5389
345.11         128.779
345.56        128.9135
346.01        128.8462
346.46        128.6056
346.91        128.2262
347.36         127.963
347.81        128.2028
348.26          128.98
348.72        130.1397
349.17        131.3502
349.62         131.974
350.07        131.8459
350.52        131.1783
350.97        130.2904
351.42        129.6733
351.87        129.4738
352.32          129.54
352.77        129.7709
353.22        130.0107
353.67        130.1647
354.13        130.2525
354.58        130.2274
355.03        129.9963
355.48         129.536
355.93        128.8667
356.38        127.9922
356.83        126.9321
357.28        125.7386
357.73        124.4531
358.18        123.2125
358.63        122.2179
359.08        121.5048
359.53         121.009
359.98        120.6048
360.43        120.0819
360.88         119.374
361.33         118.539
361.78        117.6115
362.23        116.6517
362.68         115.695
363.13        114.7248
363.58        113.7808
364.03          112.93
364.48        112.1809
364.93        111.5174
365.38         110.897
365.83        110.2467
366.28         109.543
366.73        108.8028
367.18        108.0312
367.63        107.2359
368.08        106.4217
368.53        105.5861
368.98        104.7489
369.43        103.9419
369.88        103.1881
370.33        102.5041
370.78        101.8786
371.23        101.2905
371.68        100.7266
372.13        100.1598
372.58        99.63438
373.03        99.22369
373.48        98.90778
373.93        98.64554
374.38         98.2683
374.83        97.51649
375.28         96.3842
375.72        94.98101
376.17        93.62099
376.62        92.59077
377.07        91.95351
377.52         91.6003
377.97        91.44073
378.42        91.32693
378.87        91.18397
379.32        91.04309
379.77        90.84508
380.22        90.49919
380.67        89.98873
381.11        89.31844
381.56        88.57211
382.01        87.92552
382.46        87.44271
382.91        87.10534
383.36        86.82753
383.81        86.46214
384.26         85.9771
384.71        85.41355
385.15          84.867
385.60        84.54412
386.05        84.44456
386.50        84.48888
386.95        84.51428
387.40        84.28243
387.85        83.76028
388.29        82.99701
388.74         82.2538
389.19        81.66876
389.64        81.28215
390.09        81.02111
390.54        80.83191
390.98        80.65601
391.43        80.50607
391.88        80.27675
392.33        79.98341
392.78        79.86222
393.23        79.89085
393.67        79.26852
394.12        78.17091
394.57        77.74485
395.02        77.79026
395.47        77.99736
395.91        78.14983
396.36        78.13776
396.81        77.90607
397.26        77.49355
397.71         77.0284
398.15        76.61001
398.60        76.35402
399.05        76.30199
399.50         76.3366
399.95        76.08887
400.39        75.40342
400.84        75.51594
401.29        76.17814
401.74        76.32478
402.18        75.81678
402.63        75.04062
403.08        74.30511
403.53        73.99123
403.97        74.15753
404.42        74.59446
404.87        75.04066
405.32        75.09527
405.76        74.65482
406.21        74.02377
406.66        73.34708
407.11        72.60731
407.55         72.0674
408.00        72.14849
408.45        72.75154
408.90        73.43843
409.34        73.88685
409.79        73.62128
410.24        72.87598
410.68        72.61462
411.13        72.91785
411.58        73.20565
412.03        73.33683
412.47        73.36463
412.92        73.22018
413.37        72.93491
413.81        72.56991
414.26        72.29231
414.71        72.10808
415.15        71.99486
415.60        71.92381
416.05        71.89469
416.49        71.90257
416.94         71.9521
417.39         72.0064
417.83        71.97789
418.28        71.86629
418.73        71.70823
419.17        71.56354
419.62        71.54412
420.07         71.6396
420.51        71.77174
420.96         71.9438
421.41        72.00702
421.85        71.89581
422.30         72.0435
422.74         72.2414
423.19        71.57681
423.64        70.35374
424.08        70.25591
424.53        71.21415
424.98        71.62101
425.42        71.36029
425.87        71.57932
426.31        72.15273
426.76        71.91753
427.21        70.92361
427.65        70.82052
428.10        71.45143
428.54        71.50895
428.99        71.00854
429.44        70.61208
429.88        70.45888
430.33        70.56284
430.77        70.82889
431.22        71.38036
431.66        72.03103
432.11         71.9513
432.56        71.23335
433.00         71.1007
433.45        71.81454
433.89        71.84791
434.34        72.19357
434.78        73.61086
435.23        71.53242
435.67        70.97855
436.12        70.76002
436.57        70.81842
437.01        70.98649
437.46        71.60636
437.90        71.34605
438.35        71.67333
438.79        72.12517
439.24        72.26706
439.68        72.11716
440.13        72.07558
440.57         72.2133
441.02         72.3365
441.46        72.41134
441.91        72.63319
442.35        72.84763
442.80        72.79414
443.24        72.89791
443.69        72.50621
444.13        71.91478
444.58        71.58469
445.02        71.51978
445.47        71.54809
445.91        71.61108
446.36        71.70364
446.80        71.77438
447.24        71.89922
447.69        72.04929
448.13        72.02636
448.58        71.90395
449.02        71.95054
449.47        72.17242
449.91        72.30895
450.36        72.36285
450.80        72.46096
451.25        72.60625
451.69        72.69659
452.13        72.72752
452.58        72.75328
453.02        72.74982
453.47         72.6828
453.91        72.53928
454.36        72.46221
454.80        72.16736
455.24        72.19279
455.69        72.38082
456.13        72.37395
456.58        72.15821
457.02        71.95298
457.46        71.80211
457.91        71.68091
458.35        71.54088
458.79        71.41525
459.24        71.36379
459.68        71.26987
460.13        71.12666
460.57        71.33865
461.01        71.53513
461.46        71.05504
461.90        71.34054
462.34        71.42162
462.79        71.62311
463.23         71.4473
463.68        70.97151
464.12        70.68594
464.56        70.61498
465.01        70.51405
465.45        70.37302
465.89        70.38627
466.34        70.42873
466.78        70.89821
467.22         70.3948
467.67        70.22159
468.11        70.21324
468.55        70.00446
468.99        69.69545
469.44        69.45231
469.88        69.31497
470.32          69.248
470.77        69.21061
471.21        69.16107
471.65        69.06211
472.10        68.93656
472.54        68.83218
472.98        68.80097
473.42        68.83199
473.87        69.08196
474.31        69.38091
474.75        69.06654
475.20        68.32938
475.64        68.23779
476.08        68.75867
476.52        68.73392
476.97        68.09338
477.41        68.06837
477.85        68.15017
478.29        67.32375
478.74        68.35767
479.18         68.1636
479.62        67.72605
480.06        67.65588
480.50        68.01273
480.95        68.00063
481.39        68.61156
481.83        68.15428
482.27        68.69636
482.72        68.38288
483.16        68.34406
483.60        68.26124
484.04        68.37381
484.48        68.62322
484.93        68.80299
485.37        68.52988
485.81        67.86015
486.25        66.74762
486.69        68.40853
487.14          67.942
487.58        67.39002
488.02         66.8746
488.46        67.98486
488.90         67.5638
489.34        67.18228
489.79        68.12196
490.23        67.20305
490.67        67.24241
491.11        67.17219
491.55        66.99529
491.99        66.73962
492.43        66.64668
492.88        66.76187
493.32        66.99341
493.76        67.25856
494.20        67.46081
494.64        67.55752
495.08         67.5699
495.52        67.52835
495.96         67.4509
496.41          67.354
496.85        67.35535
497.29        67.26597
497.73        67.08508
498.17        67.02463
498.61        66.79166
499.05        66.53744
499.49        66.56144
499.93         66.7656
500.37         66.6532
500.82        66.29081
501.26        66.07293
501.70        66.31216
502.14        66.45589
502.58        66.55019
503.02        66.66405
503.46        66.78156
503.90        66.87709
504.34        66.93674
504.78        66.94559
505.22        66.88965
505.66        66.79921
506.10        66.70811
506.54        66.61314
506.98        66.51414
507.42        66.79603
507.86        66.43735
508.30        66.77229
508.74        66.29431
509.18        66.04422
509.62        65.77187
510.06         65.7013
510.50        65.86588
510.94        66.20746
511.38        66.58893
511.82        66.75042
512.26        66.63432
512.70        66.30972
513.14        65.91416
513.58        65.70962
514.02        65.76362
514.46        65.85997
514.90        66.06042
515.34        66.28206
515.78        66.13692
516.22        66.01363
516.66        65.87074
517.10        65.81486
517.54         65.8683
517.98        66.00033
518.42        66.15251
518.86        66.22347
519.30        66.18741
519.74        66.07712
520.18        65.94193
520.62         65.8526
521.06        65.83364
521.50        65.87374
521.93        65.94025
522.37        65.95785
522.81        65.91859
523.25        65.84431
523.69        65.81362
524.13        65.87498
524.57        66.02242
525.01        66.35345
525.45        66.79852
525.89        66.53765
526.32         66.6498
526.76        66.31326
527.20        65.96053
527.64        65.72353
528.08        65.65112
528.52        65.68181
528.96        65.75623
529.40        65.80793
529.83        65.80306
530.27        65.78009
530.71        65.73624
531.15        65.66847
531.59        65.58422
532.03        65.47978
532.46        65.37707
532.90        65.34233
533.34        65.37795
533.78        65.46835
534.22        65.57469
534.66        65.63596
535.09        65.62958
535.53        65.58259
535.97         65.5135
536.41        65.46891
536.85        65.45907
537.28        65.46578
537.72        65.46277
538.16        65.40397
538.60        65.28332
539.04        65.12552
539.47        64.95224
539.91         64.8466
540.35        64.80766
540.79        64.82636
541.22        64.87353
541.66        64.91428
542.10        64.93186
542.54        64.93945
542.97        64.94906
543.41        64.99892
543.85        65.08424
544.29        65.20058
544.72        65.28552
545.16        65.29114
545.60        65.20856
546.04         65.0114
546.47        64.77388
546.91        64.83935
547.35        65.02673
547.79        65.17383
548.22        65.15128
548.66        65.36626
549.10         65.5241
549.53        65.52007
549.97        65.17796
550.41        65.69942
550.84        65.12024
551.28        64.94727
551.72        64.64119
552.15        64.78292
552.59         64.5729
553.03        64.80393
553.46        64.90728
553.90        65.01373
554.34        64.99934
554.77        64.95522
555.21        64.93465
555.65        64.82095
556.08         64.6487
556.52        64.77131
556.96        65.19112
557.39        64.89951
557.83        65.38844
558.27        65.35165
558.70        65.28044
559.14        65.33186
559.57        65.47009
560.01        65.51675
560.45        65.45589
560.88        65.23987
561.32        65.21451
561.75        65.14142
562.19        65.11933
562.63        64.97394
563.06        64.75185
563.50        64.78635
563.93        65.01658
564.37        65.00639
564.80        64.99841
565.24        64.93237
565.68        64.90102
566.11        64.90174
566.55        64.94476
566.98        64.90611
567.42        64.86594
567.85        64.89054
568.29          64.953
568.72        65.11549
569.16        65.50105
569.60        64.94405
570.03        65.36436
570.47        65.66795
570.90        65.38712
571.34        65.08733
571.77        65.41104
572.21        65.61993
572.64        65.87153
573.08         65.6792
573.51        65.11284
573.95        65.41062
574.38        65.69548
574.82        65.64626
575.25        65.47144
575.69        65.58136
576.12        65.20291
576.56        64.87954
576.99        64.96529
577.42        64.92457
577.86        64.87198
578.29        64.92702
578.73         65.6909
579.16        65.10591
579.60        64.96373
580.03        64.98144
580.47        65.25706
580.90        65.21719
581.33        64.96072
581.77        64.89642
582.20        65.16022
582.64        65.86079
583.07        65.16611
583.51        64.91616
583.94        64.82348
584.37        64.61491
584.81        64.49269
585.24        64.80859
585.68        65.27023
586.11        65.70187
586.54        64.84494
586.98        64.59377
587.41        65.42707
587.85        65.46602
588.28        65.46738
588.71        65.72834
589.15        64.96712
589.58        65.11711
590.01        64.43202
590.45        64.55562
590.88        65.04801
591.31        65.34659
591.75        65.17576
592.18        65.19189
592.61        65.58777
593.05        64.03667
593.48        64.80704
593.91        65.67638
594.35        64.71349
594.78        64.41495
595.21        64.23669
595.65        64.70121
596.08        64.31204
596.51        64.67748
596.94        64.84341
597.38        64.89718
597.81        64.62811
598.24        64.80791
598.68        64.36158
599.11        64.31906
599.54        65.19285
599.97        65.52499
600.41        64.09135
600.84        64.66237
601.27        64.51398
601.70        64.79641
602.14        65.09264
602.57        64.69617
603.00         64.1061
603.43        63.96488
603.87        64.13018
604.30         64.6696
604.73        64.52863
605.16         64.1151
605.60        64.47842
606.03        64.50962
606.46        64.54454
606.89        64.53532
607.32        64.47887
607.76        64.46757
608.19        64.54605
608.62        64.47282
609.05        64.26134
609.48        64.64464
609.92         64.6851
610.35        64.49686
610.78         64.5276
611.21        63.95202
611.64        64.15534
612.07        64.13934
612.50        64.24939
612.94        64.28169
613.37         64.4125
613.80        64.56312
614.23        64.69843
614.66         64.7488
615.09        64.73216
615.52        64.62747
615.96        64.40916
616.39        64.70097
616.82        64.39845
617.25        64.34889
617.68        64.00616
618.11         64.0902
618.54        64.41754
618.97        64.36175
619.40        63.98364
619.84        63.86292
620.27        64.05792
620.70        64.28185
621.13        64.43771
621.56        64.36578
621.99        64.06343
622.42        64.04402
622.85        64.25848
623.28        64.12053
623.71        64.56725
624.14         63.6548
624.57        64.22136
625.00        64.12381
625.43        64.14392
625.86        64.05756
626.29        63.84414
626.72        64.30988
627.15        63.99695
627.58        64.17023
628.01        64.32792
628.44        64.17732
628.87        63.81082
629.30        63.70838
629.73        64.07096
630.16        64.18002
630.59        64.06481
631.02        64.18794
631.45        64.24223
631.88        64.27459
632.31        64.18479
632.74         64.0356
633.17        63.86024
633.60        63.72333
634.03        63.64965
634.46        63.61126
634.89        63.60124
635.32        63.61818
635.75          63.652
636.18        63.69395
636.61        63.73909
637.04        63.78811
637.47        63.84707
637.89        63.88711
638.32         63.8634
638.75        63.85416
639.18        63.88083
639.61        63.48127
640.04        63.52712
640.47        63.44183
640.90        63.48783
641.33        63.63351
641.76        63.81152
642.18        63.89451
642.61        63.82204
643.04        63.64288
643.47        63.45609
643.90        63.39977
644.33        63.49748
644.76         63.7838
645.18        64.12362
645.61        64.12015
646.04        63.67994
646.47        63.60529
646.90        63.83401
647.33        63.83818
647.75        63.59845
648.18        63.44357
648.61        63.42055
649.04        63.42235
649.47        63.45655
649.89        63.65415
650.32        63.89722
650.75        63.89106
651.18        63.71154
651.61        63.65031
652.03        63.77245
652.46        64.15459
652.89        64.52616
653.32        64.32656
653.74        63.77682
654.17        63.25549
654.60        62.90788
655.03        64.71443
655.46        62.74837
655.88        64.01048
656.31        64.99149
656.74         66.5061
657.16        66.31822
657.59        64.37002
658.02        63.52619
658.45        64.29391
658.87        63.88832
659.30        63.58532
659.73        64.38135
660.15        64.64812
660.58        64.06587
661.01        63.89088
661.44        63.93101
661.86        63.72764
662.29         63.3459
662.72        63.41739
663.14        63.84368
663.57        63.73351
664.00        63.19749
664.42        63.04225
664.85        63.31344
665.27        63.54211
665.70        63.64738
666.13        63.74622
666.55        63.82057
666.98        63.82133
667.41         63.7721
667.83        63.71363
668.26        63.65277
668.69        63.58932
669.11        63.52529
669.54        63.46742
669.96        63.41909
670.39        63.38362
670.82        63.35561
671.24        63.33398
671.67         63.3069
672.09        63.27234
672.52        63.26342
672.94        63.38651
673.37        63.15386
673.80        63.67293
674.22        63.50632
674.65        63.68506
675.07        63.82653
675.50        63.94907
675.92        64.03436
676.35        64.04783
676.77        64.00338
677.20        63.89327
677.62        63.76652
678.05        63.69942
678.47        63.70776
678.90          63.784
679.32        63.87118
679.75         63.8858
680.17        63.80216
680.60        63.65192
681.02         63.5019
681.45        63.44363
681.87        63.49606
682.30        63.67183
682.72        63.90312
683.15        63.88125
683.57        63.67341
684.00        63.68883
684.42        63.89972
684.85        63.98612
685.27        63.94622
685.70        63.83633
686.12        63.74987
686.54         64.1177
686.97        64.77235
687.39        64.96438
687.82        64.64746
688.24        64.48508
688.66        64.49561
689.09        64.27677
689.51        63.89264
689.94        63.65392
690.36         63.5943
690.78        63.63391
691.21        63.74048
691.63        63.85886
692.06        63.96229
692.48        64.08475
692.90        64.19529
693.33        64.23258
693.75        64.18709
694.17         64.0552
694.60        63.91459
695.02        63.86321
695.44        63.91186
695.87        64.18482
696.29        64.54937
696.71        64.38975
697.14        63.84737
697.56        63.80387
697.98        64.23581
698.41         64.4027
698.83        64.27575
699.25        64.29985
699.68        64.43816
700.10        64.46018
700.52        64.33723
700.94        64.15368
701.37         63.9433
701.79         63.7761
702.21          63.671
702.64        63.61646
703.06        63.61665
703.48        63.69067
703.90        63.83359
704.33        64.04718
704.75        64.26229
705.17         64.4299
705.59          64.509
706.01        64.51225
706.44        64.47456
706.86        64.47229
707.28        64.52287
707.70         64.5815
708.12        64.63953
708.55        64.73331
708.97        64.82699
709.39        64.78145
709.81        64.64788
710.23        64.66492
710.66        64.84964
711.08        65.09138
711.50        65.31355
711.92        65.47399
712.34        65.54879
712.76        65.54991
713.19        65.48635
713.61        65.42031
714.03         65.3561
714.45        65.28764
714.87        65.23275
715.29        65.21573
715.71        65.23592
716.13        65.28725
716.56        65.32714
716.98        65.36066
717.40        65.35137
717.82        65.30981
718.24        65.24229
718.66        65.16138
719.08        65.07595
719.50         64.9825
719.92        64.90154
720.34        64.86504
720.76        64.87727
721.19        64.92416
721.61        64.98456
722.03        64.99667
722.45        64.94585
722.87        64.84521
723.29        64.73209
723.71        64.66722
724.13        64.66495
724.55        64.71661
724.97        64.80212
725.39        64.81081
725.81        64.71827
726.23        64.69418
726.65         64.8146
727.07        64.46679
727.49        64.83006
727.91        64.93137
728.33         65.0859
728.75        65.21283
729.17        65.30192
729.59        65.35149
730.01        65.32864
730.43        65.25526
730.85         65.1502
731.27        64.86691
731.69        64.76218
732.10        64.75233
732.52        64.94245
732.94        65.29047
733.36        65.69083
733.78         65.9652
734.20        66.04932
734.62         65.9314
735.04        65.72578
735.46        65.73153
735.88        65.93927
736.30        66.04237
736.72        65.97688
737.13        65.91418
737.55         65.8248
737.97        65.55909
738.39        65.23763
738.81        65.22047
739.23        65.48917
739.65         65.7212
740.06        65.79713
740.48        65.81228
740.90         65.7269
741.32        65.46046
741.74         65.1089
742.16        64.91783
742.57        64.95296
742.99        65.09022
743.41        65.28422
743.83         65.5325
744.25        65.76051
744.67        65.80383
745.08        65.70181
745.50        65.67583
745.92        65.75752
746.34        65.80877
746.75        65.82378
747.17         65.8561
747.59        65.90321
748.01         65.9557
748.42        66.00473
748.84        66.00758
749.26        65.96786
749.68        65.89622
750.09        65.80312
750.51        65.73702
750.93        65.69715
751.35         65.6791
751.76        65.67587
752.18        65.66708
752.60        65.64875
753.01        65.63631
753.43        65.62848
753.85        65.64828
754.27        65.71291
754.68        65.84458
755.10        66.00368
755.52        66.12727
755.93        66.17747
756.35        66.13657
756.77        66.12769
757.18        66.24708
757.60        66.49389
758.02        67.13734
758.43        67.84106
758.85        67.37928
759.26        66.05757
759.68        65.56898
760.10        65.96172
760.51        66.16103
760.93        66.20715
761.34        65.82404
761.76        66.83336
762.18         66.8892
762.59        66.54527
763.01        66.00793
763.42        65.50253
763.84        65.24786
764.26          65.319
764.67        65.52815
765.09        65.81252
765.50        66.30866
765.92        66.80226
766.33        66.82149
766.75        66.35907
767.16        66.14407
767.58        66.21451
768.00         66.2065
768.41        66.11092
768.83        66.07565
769.24        66.09187
769.66        66.16251
770.07        66.26742
770.49        66.31978
770.90        66.34344
771.32        66.54971
771.73        66.86056
772.15        66.86418
772.56        66.53855
772.97        66.29571
773.39        65.82192
773.80        65.77106
774.22        66.02861
774.63        66.57053
775.05        67.14498
775.46         67.4314
775.88        67.31402
776.29         66.9239
776.70        66.42975
777.12        66.13218
777.53        66.12547
777.95        66.29821
778.36        66.57481
778.77        66.81866
779.19        66.97289
779.60         67.1282
780.02        67.23518
780.43         67.2498
780.84        67.17662
781.26        66.99036
781.67        66.81095
782.09        66.93463
782.50         67.3132
782.91        67.56133
783.33        67.56414
783.74        67.46595
784.15        67.24767
784.57        66.79373
784.98        66.27793
785.39        66.07558
785.81        66.26052
786.22        66.70861
786.63        67.29464
787.04        67.81902
787.46        68.20278
787.87        68.47224
788.28        68.64003
788.70        68.72189
789.11        68.72524
789.52        68.65698
789.93        68.52158
790.35        68.33349
790.76        68.12829
791.17        67.92027
791.58        67.77881
792.00        67.78913
792.41          67.979
792.82        68.31596
793.23        68.67914
793.65        68.96964
794.06        68.82758
794.47        68.89629
794.88        69.03904
795.29        68.98238
795.71        68.70339
796.12        68.40906
796.53        68.19955
796.94        68.17097
797.35        68.36107
797.76        68.74487
798.18        69.18396
798.59        69.48952
799.00        69.58401
799.41        69.52331
799.82         69.3717
800.23        69.24978
800.64        69.20375
801.06        69.16841
801.47        69.18836
801.88        69.26601
802.29        69.38498
802.70        69.53404
803.11        69.66365
803.52        69.68227
803.93        69.58254
804.34          69.407
804.75        69.17502
805.17        68.98859
805.58        68.92115
805.99        68.72805
806.40        68.51733
806.81         68.9546
807.22         69.8143
807.63        69.91714
808.04        69.31729
808.45        69.14953
808.86        69.48492
809.27        69.64387
809.68        69.56687
810.09        69.50971
810.50        69.47884
810.91        69.40919
811.32        69.35486
811.73        69.40057
812.14        69.55666
812.55        69.80749
812.96        70.08131
813.37        70.23051
813.78        70.21601
814.19        70.09393
814.60        69.92003
815.01        69.77448
815.42        69.68092
815.83        69.60078
816.24        69.56014
816.65        69.60983
817.05        69.74992
817.46        69.93835
817.87        70.09114
818.28        70.02204
818.69        69.70995
819.10        69.21272
819.51        68.69565
819.92        68.46837
820.33        68.62104
820.74        69.04639
821.14        69.59586
821.55        70.04926
821.96        70.32165
822.37        70.47578
822.78        70.50589
823.19        70.41144
823.60        70.21186
824.00        69.89168
824.41        69.53371
824.82        69.30846
825.23        69.24843
825.64        69.33774
826.04        69.47769
826.45        69.40675
826.86        69.09996
827.27        68.64396
827.68        68.20176
828.08        68.04938
828.49        68.21044
828.90         68.6349
829.31        69.20718
829.72        69.72529
830.12        70.13438
830.53        70.39989
830.94        70.60355
831.35        70.84905
831.75        71.17088
832.16        71.44747
832.57        71.60994
832.97        71.51834
833.38        71.17127
833.79        70.70187
834.20        70.20499
834.60        69.78444
835.01         69.5175
835.42        69.34491
835.82        69.39494
836.23        69.80957
836.64        70.58996
837.04        71.69834
837.45         72.7234
837.86         73.1269
838.26        72.77338
838.67        71.83739
839.08        70.67924
839.48        69.85033
839.89        69.55704
840.29        69.64246
840.70        69.97636
841.11        70.35429
841.51        70.70099
841.92        71.04024
842.33        71.36016
842.73        71.60806
843.14        71.71938
843.54        71.72306
843.95        71.62025
844.35        71.49779
844.76        71.36874
845.17         71.2077
845.57        71.09283
845.98        71.11111
846.38        71.28506
846.79        71.58945
847.19        71.85401
847.60        71.73885
848.00        71.21152
848.41         70.3978
848.81        69.59092
849.22        69.22983
849.62        69.43963
850.03        70.04233
850.43        70.86597
850.84        71.40278
851.24        71.54394
851.65        71.34544
852.05        70.96008
852.46        70.58937
852.86        70.31162
853.27        70.12769
853.67        69.94498
854.07        69.81775
854.48        69.69613
854.88        69.60754
855.29        69.51719
855.69        69.53861
856.10         69.5866
856.50        69.72208
856.90         69.7908
857.31        69.60601
857.71        69.19717
858.12        68.59903
858.52        68.02552
858.92        67.77995
859.33        67.92735
859.73        68.42481
860.13        69.09879
860.54        69.67049
860.94        70.08254
861.34        70.31167
861.75        70.36419
862.15        70.31956
862.55        70.17186
862.96        69.92207
863.36         69.4986
863.76        68.81913
864.17        67.94555
864.57        66.99051
864.97        66.16585
865.38        65.72832
865.78        65.76175
866.18        66.16871
866.58        66.85975
866.99        67.60294
867.39        68.29276
867.79        68.91437
868.19         69.3232
868.60        69.33022
869.00        68.94241
869.40        68.20107
869.80        67.41441
870.21        67.12378
870.61        67.49944
871.01        68.35005
871.41        69.30737
871.81        69.76866
872.22        69.57457
872.62        68.91869
873.02        68.05772
873.42        67.42168
873.82        67.17685
874.22        67.22643
874.63        67.44535
875.03        67.65012
875.43        67.78207
875.83        67.88872
876.23        68.10546
876.63        68.63808
877.03        69.47612
877.44        70.46246
877.84         71.3393
878.24        71.60877
878.64        71.19515
879.04        70.31813
879.44        69.29254
879.84        68.57464
880.24        68.28815
880.64        68.28288
881.04        68.52758
881.44        68.95696
881.84        69.49834
882.24        70.18916
882.65        70.75895
883.05        70.86827
883.45        70.40829
883.85        69.52104
884.25        68.59016
884.65        68.21189
885.05        68.50135
885.45        69.24446
885.85        70.19789
886.25        70.92895
886.65        71.25672
887.05        71.32917
887.45        71.07828
887.85        70.40973
888.25        69.43066
888.65          68.233
889.04        67.16613
889.44        66.76472
889.84        67.05197
890.24        67.92394
890.64        69.06401
891.04        69.77763
891.44        69.81329
891.84        69.38212
892.24        68.80447
892.64         68.5349
893.04        68.66811
893.44        69.03146
893.83        69.52752
894.23        69.92027
894.63        70.14606
895.03        70.30325
895.43        70.36841
895.83        70.29088
896.23        70.08357
896.63        69.72392
897.02         69.3584
897.42         69.3073
897.82        69.59829
898.22         70.1742
898.62         70.7436
899.01        70.82009
899.41        70.30151
899.81        69.36407
900.21        68.38445
900.61        67.94342
901.00        68.16425
901.40        68.86094
901.80        69.69858
902.20        70.12605
902.59        69.98346
902.99        69.44407
903.39         68.7541
903.79        68.27255
904.18         68.1041
904.58        68.16352
904.98        68.30869
905.38        68.34481
905.77        68.20049
906.17        67.94045
906.57        67.70431
906.96        67.72874
907.36        68.02173
907.76        68.53325
908.15        69.01535
908.55        68.94412
908.95        68.29872
909.34        67.24685
909.74        66.28355
910.14        66.03465
910.53        66.65722
910.93          67.892
911.33        69.41644
911.72        70.72001
912.12        71.52937
912.52        71.99662
912.91        72.19045
913.31        72.23094
913.70        72.18861
914.10        71.96494
914.49        71.60369
914.89        71.17511
915.29        70.73138
915.68        70.32243
916.08        69.98693
916.47        69.62653
916.87        69.28741
917.26        68.95512
917.66        68.76086
918.05        68.93761
918.45        69.45531
918.84        70.27682
919.24        71.05322
919.64        71.33344
920.03        71.01878
920.42        70.24426
920.82         69.3538
921.21        68.78487
921.61        68.67162
922.00        68.88692
922.40        69.29805
922.79        69.75505
923.19        70.13461
923.58        70.51163
923.98        70.80186
924.37        70.87958
924.77        70.73265
925.16        70.38512
925.55        69.97985
925.95        69.77953
926.34        69.86225
926.74        70.13494
927.13        70.45949
927.52         70.5678
927.92        70.39838
928.31        70.02577
928.70        69.55891
929.10        69.15287
929.49        68.86952
929.89        68.64562
930.28        68.48723
930.67        68.33881
931.07        68.18759
931.46        68.08145
931.85        68.02493
932.24        68.02017
932.64        68.07992
933.03         68.2089
933.42        68.40435
933.82        68.64617
934.21        68.93105
934.60        69.19549
934.99        69.48243
935.39        69.85051
935.78        70.34303
936.17        70.91634
936.56        71.29677
936.96        71.07278
937.35        70.22424
937.74        68.94599
938.13        67.73611
938.53        67.22277
938.92        67.47683
939.31        68.37199
939.70        69.50847
940.09        70.10657
940.49        69.90034
940.88        69.12381
941.27        68.20103
941.66        67.77198
942.05        67.98475
942.44        68.68185
942.84        69.44923
943.23        69.62949
943.62         69.0057
944.01        67.80078
944.40        66.61169
944.79        66.29427
945.18        67.00464
945.57        68.50957
945.97        70.07629
946.36        70.66644
946.75        69.91012
947.14        68.17706
947.53        66.30661
947.92        65.56254
948.31        66.24461
948.70        68.00254
949.09        70.10023
949.48        71.19935
949.87        70.87901
950.26        69.55878
950.65        67.98798
951.04        67.20584
951.43        67.45463
951.82        68.45257
952.21        69.62935
952.60        69.97309
952.99        69.21868
953.38        67.73878
953.77        66.27501
954.16        65.79169
954.55        66.46376
954.94        68.06976
955.33         69.9214
955.72         70.5489
956.11        69.48802
956.50        67.29694
956.89        65.00928
957.28        63.94945
957.66        64.41438
958.05        65.93022
958.44        67.92162
958.83        69.19308
959.22        69.25858
959.61        68.51631
960.00        67.41122
960.39        66.48663
960.78        65.86817
961.16        65.36744
961.55        64.87158
961.94        64.33478
962.33        63.79815
962.72        63.43952
963.11        63.26531
963.49        63.20901
963.88        63.25365
964.27        63.36601
964.66        63.68231
965.04        64.49479
965.43        65.72198
965.82        67.24924
966.21        68.65691
966.60        69.20937
966.98        68.77545
967.37        67.68836
967.76        66.38377
968.15        65.43431
968.53        64.97446
968.92        64.77118
969.31        64.95691
969.69        65.76654
970.08        67.12101
970.47        69.10602
970.86        70.93491
971.24        71.25155
971.63        69.80624
972.02        67.04358
972.40        64.30149
972.79        63.67197
973.17        65.49395
973.56        69.02109
973.95        73.01566
974.33        75.13275
974.72        74.56196
975.11        72.10267
975.49        68.88523
975.88        66.96508
976.26        66.88953
976.65        67.98737
977.04        69.69068
977.42        70.96986
977.81         71.2616
978.19        71.04459
978.58        70.47747
978.96        69.64749
979.35        68.74642
979.74        67.71764
980.12        66.89434
980.51        66.86563
980.89        67.80352
981.28        69.39483
981.66        71.44149
982.05        73.28252
982.43        74.74511
982.82        75.90144
983.20        76.43182
983.59         75.7545
983.97        73.93508
984.35        71.20641
984.74        68.65656
985.12         67.7907
985.51        68.78262
985.89        71.32143
986.28        74.19134
986.66        75.67056
987.04        75.08564
987.43        72.97976
987.81         70.2007
988.20        68.56356
988.58        68.54649
988.96        69.66232
989.35        70.93756
989.73        71.03422
990.12        69.55424
990.50        67.10813
990.88        64.41343
991.27        62.58278
991.65        61.93079
992.03        62.16281
992.42         63.0236
992.80        64.44514
993.18        66.19182
993.56        68.31767
993.95        70.44923
994.33        71.96761
994.71        72.54976
995.10        72.36987
995.48        71.74445
995.86        71.29531
996.24        71.24498
996.63        71.34859
997.01        71.79729
997.39        72.70209
997.77        73.94082
998.15        75.43847
998.54        76.68736
998.92        76.90208
999.30        75.92856
999.68        74.01893
1000.06        71.67616
1000.45        69.87555
1000.83        69.12566
1001.21        69.22881
1001.59        70.15327
1001.97        71.75157
1002.35        73.79775
1002.73        76.24155
1003.12        78.56962
1003.50         79.9059
1003.88        80.10721
1004.26        79.39162
1004.64        78.15504
1005.02        77.17883
1005.40        76.75106
1005.78        76.64025
1006.16        76.83707
1006.54        77.30887
1006.92        77.99817
1007.30        79.02631
1007.69        79.99811
1008.07        80.17523
1008.45          79.261
1008.83        77.40142
1009.21        75.34219
1009.59        74.39944
1009.97        74.88932
1010.35        76.40168
1010.73         78.2355
1011.11        79.19989
1011.49        78.97553
1011.86        78.08289
1012.24        76.68655
1012.62        75.24327
1013.00        73.91458
1013.38        72.41404
1013.76        71.12396
1014.14        70.89202
1014.52        71.89482
1014.90         73.9896
1015.28        76.00985
1015.66        76.05804
1016.04        73.79717
1016.41         69.8336
1016.79        65.56313
1017.17         63.8688
1017.55        65.35924
1017.93        68.57063
1018.31        72.21673
1018.69        75.48325
1019.06        78.62288
1019.44        82.17564
1019.82        86.26183
1020.20         89.5582
1020.58        90.56177
1020.95        88.99182
1021.33        86.13154
1021.71        83.31538
1022.09        80.53652
1022.46        77.26423
1022.84        73.28825
1023.22        68.48362
1023.60        64.18987
1023.97        61.47758
1024.35        60.52856
1024.73        61.10929
