SpectraSmart Spectrum 2.9.0.0
--------- Device Information -----------
Spectrum Name :  反射率_0
Saving Time :  2024/04/30 00:11:44
Spectro-Module Model Name : SE2030-DUVN
Spectro-Module Serial Number : OS361AC55029948
Wavelength Start : 200
Wavelength End : 1025
Wavelength Unit : Wavelength(nm)
Spectrum Unit : Reflectance(%)
-----------Spectrum Setting ------------
Integration Time : 20ms
Average : 10
Boxcar : 0
Background removal :  enabled
linearity correction :  enabled
SC :  disabled
Intensity correction :  disabled
DWT denoise :  enabled
savitzky-golay :  disabled
FFT :  disabled
Running average :  disabled
Kalman :  disabled
High pass :  disabled
---------------BEGIN--------------------
Wavelength(nm)             Reflectance(%)
200.29               0
200.75        92.75396
201.21         79.1471
201.67        63.35081
202.13        51.47185
202.58        46.58799
203.04        47.09857
203.50        53.69776
203.96        67.21502
204.42        85.70229
204.88        107.2765
205.34        123.0952
205.80        122.0153
206.26        107.5744
206.72         88.5872
207.18        71.72105
207.64        60.24749
208.10        52.84202
208.55        47.23579
209.01        43.26869
209.47        42.27638
209.93        44.18031
210.39        48.30921
210.85        52.08791
211.31        53.24963
211.77        51.61065
212.23        46.67385
212.69        40.01682
213.14        39.45384
213.60        47.11908
214.06        58.33391
214.52        66.98169
214.98        69.35745
215.44        66.62149
215.90         60.4166
216.36        53.88909
216.81        53.20903
217.27        61.57384
217.73        79.38506
218.19        104.9657
218.65        124.2415
219.11        126.3099
219.57        115.7109
220.02        102.3693
220.48        93.68478
220.94        88.65667
221.40        84.73026
221.86        79.98538
222.32         72.8261
222.77        65.42871
223.23        61.00452
223.69        59.12736
224.15        58.74902
224.61        59.33162
225.06        60.62093
225.52        62.80135
225.98         65.4224
226.44        67.64345
226.90        69.19909
227.36        69.99319
227.81        70.08942
228.27        69.75389
228.73        68.87677
229.19        67.81814
229.65        67.36443
230.10        67.64793
230.56        68.54583
231.02        69.32733
231.48        69.37246
231.93        68.63988
232.39        67.40046
232.85        66.24801
233.31        66.37366
233.77        68.08045
234.22        71.19265
234.68        74.49339
235.14        75.81475
235.60        74.67038
236.05        71.76842
236.51        68.92178
236.97         68.5188
237.43          71.231
237.88        77.17824
238.34        85.35501
238.80        92.19936
239.26        94.78413
239.71        93.64648
240.17         90.6729
240.63        89.25092
241.08        90.78271
241.54        95.00595
242.00        103.1478
242.46        113.9215
242.91        123.1549
243.37          128.14
243.83        129.7343
244.28        131.5294
244.74        134.6917
245.20        137.5082
245.66        139.9387
246.11        142.1735
246.57        143.6468
247.03        146.2579
247.48         146.147
247.94         136.214
248.40        120.8587
248.85        105.8812
249.31        97.10129
249.77        96.13753
250.22        102.5056
250.68        117.5325
251.14        141.2661
251.59        155.5108
252.05        146.8118
252.51        129.1611
252.96        115.3079
253.42         110.237
253.88        111.1396
254.33        115.3917
254.79        121.0387
255.25        123.3678
255.70        121.3011
256.16        118.2861
256.62        115.9377
257.07        115.1068
257.53        116.1509
257.99         118.091
258.44        119.4659
258.90        119.3799
259.35        117.3842
259.81        115.0107
260.27        113.0776
260.72        112.3258
261.18        112.8992
261.63        113.7117
262.09         114.142
262.55        112.7642
263.00        109.6232
263.46        105.9382
263.91        102.2686
264.37        99.85146
264.83        98.54308
265.28        97.83141
265.74        97.49115
266.19        96.82331
266.65        95.80496
267.11        94.55608
267.56        93.19966
268.02        91.96394
268.47        90.80631
268.93        89.66561
269.38        88.37305
269.84        86.81551
270.30        85.02128
270.75         83.0868
271.21        81.28375
271.66        79.83718
272.12        78.78043
272.57         77.9418
273.03        77.13319
273.48        75.93877
273.94        74.39368
274.39        72.57879
274.85        70.78102
275.31        69.20261
275.76        67.85931
276.22        66.75117
276.67        65.74551
277.13        64.86345
277.58        63.98727
278.04        63.20888
278.49        62.41344
278.95         61.6275
279.40        60.75766
279.86        59.89597
280.31         58.9846
280.77        58.15198
281.22        57.34538
281.68        56.61525
282.13        55.91029
282.59        55.28589
283.04        54.68533
283.50        54.14572
283.95         53.5955
284.41        52.99664
284.86        52.33079
285.32        51.69687
285.77        51.11555
286.22        50.73948
286.68        50.59676
287.13        50.57045
287.59        50.64938
288.04        50.71843
288.50        50.76957
288.95        50.77615
289.41        50.73277
289.86        50.54226
290.32        50.25822
290.77        49.91263
291.22        49.61514
291.68        49.53172
292.13        49.68883
292.59        50.07775
293.04         50.6766
293.50        51.51921
293.95        52.56182
294.40         53.8065
294.86        55.12052
295.31        56.30454
295.77        57.31499
296.22        58.18732
296.68        59.06664
297.13        60.15687
297.58        61.51176
298.04         63.0298
298.49        64.58901
298.95        66.02775
299.40        67.27552
299.85        68.39632
300.31        69.44786
300.76        70.41923
301.21         71.3768
301.67        72.35741
302.12        73.36082
302.58        74.54326
303.03        75.88022
303.48        77.32086
303.94          78.848
304.39        80.57325
304.84        82.12216
305.30        83.77228
305.75        85.33582
306.20         86.7811
306.66        88.10787
307.11        89.25558
307.57        90.28941
308.02        91.16299
308.47        91.94638
308.93        92.67775
309.38        93.37335
309.83        94.14613
310.29        95.02312
310.74        95.95465
311.19        96.88621
311.65        97.71201
312.10        98.38403
312.55         98.9542
313.00        99.49749
313.46        100.1343
313.91        100.8716
314.36        101.6678
314.82        102.4529
315.27         103.152
315.72        103.7103
316.18        104.1509
316.63        104.4684
317.08        104.6651
317.53        104.7759
317.99        104.8497
318.44        104.9051
318.89        104.9893
319.35        105.1231
319.80         105.284
320.25        105.5736
320.70        106.1498
321.16        106.9775
321.61        108.0453
322.06        109.0369
322.51        109.4485
322.97        109.1745
323.42        108.3854
323.87        107.4563
324.32         107.011
324.78         107.194
325.23        107.8984
325.68        108.8339
326.13        109.4961
326.59         109.702
327.04        109.6367
327.49        109.4936
327.94        109.6376
328.39        110.1544
328.85        110.8534
329.30        111.6017
329.75        111.9789
330.20        111.8799
330.66        111.4475
331.11        110.9269
331.56        110.6195
332.01        110.6529
332.46        110.9523
332.92        111.4276
333.37         112.079
333.82        112.7996
334.27        113.5988
334.72        114.4231
335.17        115.1807
335.63        115.8024
336.08        116.3403
336.53        116.7363
336.98        116.9895
337.43        117.1163
337.88        117.1218
338.34        117.1008
338.79        117.2227
339.24        117.5242
339.69        117.9985
340.14        118.5207
340.59        118.8607
341.05         118.983
341.50        118.9685
341.95        118.9787
342.40        119.2907
342.85        119.9445
343.30        120.7987
343.75         121.694
344.20        122.3823
344.66        122.7932
345.11        123.0229
345.56         123.055
346.01        122.8609
346.46        122.5034
346.91        122.0078
347.36        121.6404
347.81        121.8035
348.26        122.5385
348.72        123.6988
349.17        124.9563
349.62        125.6728
350.07        125.6708
350.52        125.1456
350.97        124.3919
351.42        123.8688
351.87         123.716
352.32        123.7953
352.77        124.0064
353.22        124.1969
353.67         124.287
354.13        124.3037
354.58        124.2441
355.03        124.0838
355.48        123.8029
355.93        123.3865
356.38        122.7786
356.83        121.9085
357.28        120.8008
357.73        119.5206
358.18        118.2209
358.63          117.13
359.08        116.3066
359.53        115.6933
359.98          115.19
360.43        114.6248
360.88        113.9439
361.33        113.1988
361.78        112.4196
362.23        111.6552
362.68        110.9207
363.13        110.1824
363.58         109.445
364.03        108.7265
364.48        108.0229
364.93         107.335
365.38        106.6343
365.83         105.872
366.28        105.0529
366.73        104.2084
367.18        103.3829
367.63        102.6418
368.08        101.9942
368.53         101.407
368.98        100.8719
369.43        100.3691
369.88        99.89195
370.33        99.46804
370.78        99.02814
371.23         98.4664
371.68        97.76485
372.13        96.91593
372.58        96.09776
373.03        95.60138
373.48        95.45534
373.93        95.57059
374.38        95.61597
374.83         95.0524
375.28        93.81174
375.72        92.09579
376.17        90.39391
376.62        89.25443
377.07        88.78833
377.52        88.79351
377.97        89.03061
378.42        89.10835
378.87        88.88847
379.32        88.49371
379.77        87.98186
380.22        87.42853
380.67        86.86326
381.11        86.23633
381.56        85.58415
382.01        85.00716
382.46        84.54333
382.91         84.2045
383.36        83.91984
383.81        83.56074
384.26        83.09629
384.71        82.54546
385.15        82.00144
385.60        81.67094
386.05        81.55534
386.50        81.59203
386.95        81.59862
387.40        81.29931
387.85        80.67313
388.29        79.79681
388.74        78.99068
389.19        78.48129
389.64        78.30609
390.09         78.3502
390.54        78.48535
390.98        78.48702
391.43        78.31982
391.88        78.04361
392.33        77.66747
392.78        77.25776
393.23        76.85307
393.67        76.31745
394.12        75.75909
394.57        75.73631
395.02        75.20911
395.47        75.27161
395.91        75.51402
396.36        75.55538
396.81        75.34573
397.26         75.0729
397.71        74.81197
398.15        74.51501
398.60        74.28187
399.05        74.17437
399.50        74.12344
399.95        73.87898
400.39         73.2859
400.84        73.42476
401.29        74.04566
401.74        74.19764
402.18         73.7387
402.63        72.97475
403.08        72.20827
403.53        71.86084
403.97        71.98962
404.42        72.36576
404.87        72.76056
405.32        72.79372
405.76        72.35776
406.21         71.8595
406.66        71.38379
407.11        70.53286
407.55        69.67399
408.00        69.92252
408.45        71.09504
408.90        71.89632
409.34        72.00979
409.79        71.66185
410.24        71.10065
410.68        70.87991
411.13        71.07959
411.58        71.32203
412.03        71.46692
412.47        71.48033
412.92        71.29462
413.37         70.9699
413.81         70.5723
414.26        70.27647
414.71        70.08897
415.15        69.97063
415.60        69.90694
416.05        69.92436
416.49        70.01614
416.94        70.17965
417.39        70.32066
417.83        70.26682
418.28        70.00302
418.73        69.58437
419.17        69.17237
419.62        69.04082
420.07        69.22477
420.51        69.60989
420.96        70.06558
421.41        70.29678
421.85        70.21204
422.30        70.10569
422.74        69.95709
423.19        69.55926
423.64        69.04951
424.08        69.04869
424.53        69.50919
424.98        69.78898
425.42        69.82468
425.87        70.14561
426.31        70.60518
426.76        70.39803
427.21        69.52682
427.65        69.31452
428.10        69.68427
428.54        69.65908
428.99        69.26653
429.44        69.06143
429.88        69.07796
430.33        69.09488
430.77         69.0855
431.22        69.48444
431.66        70.14263
432.11        70.09447
432.56        69.39944
433.00        69.26275
433.45        69.97124
433.89        69.78312
434.34        70.53844
434.78        71.60202
435.23        69.79901
435.67        69.05784
436.12        68.62137
436.57        68.80017
437.01         69.3776
437.46        70.00158
437.90        69.75672
438.35        69.97274
438.79        70.37363
439.24        70.48837
439.68        70.35615
440.13        70.37891
440.57        70.55502
441.02        70.64823
441.46        70.62999
441.91        70.60121
442.35         70.5173
442.80        70.68604
443.24        70.96809
443.69        70.82354
444.13        70.31548
444.58        70.06667
445.02        70.06165
445.47        70.02389
445.91        69.94923
446.36        69.93719
446.80        69.95447
447.24        70.12128
447.69        70.32958
448.13        70.20673
448.58        70.38879
449.02        70.34297
449.47        70.31286
449.91        70.32023
450.36        70.39417
450.80        70.49767
451.25        70.60268
451.69        70.64889
452.13        70.62859
452.58        70.58872
453.02         70.5528
453.47         70.5471
453.91        70.56272
454.36        70.74851
454.80        70.74905
455.24        70.88512
455.69        71.01861
456.13         71.0028
456.58        70.86322
457.02        70.67246
457.46        70.47741
457.91        70.29301
458.35        70.08759
458.79        69.91359
459.24        69.82518
459.68        69.73502
460.13        69.59298
460.57        69.79825
461.01        69.76907
461.46        69.56119
461.90        69.03049
462.34        69.89596
462.79        70.09898
463.23        69.98666
463.68        69.13568
464.12        68.72195
464.56        68.78063
465.01        68.74825
465.45        68.61436
465.89        68.58243
466.34        68.53316
466.78        69.13689
467.22        68.59811
467.67         68.4539
468.11        68.36063
468.55        68.07356
468.99         67.7014
469.44        67.43355
469.88        67.32011
470.32        67.31344
470.77        67.35312
471.21        67.36065
471.65        67.29612
472.10        67.19935
472.54        67.11884
472.98        67.14407
473.42        67.27267
473.87        67.54129
474.31        67.84301
474.75        67.77831
475.20        67.39813
475.64        67.32815
476.08        67.63236
476.52         66.9838
476.97        67.02389
477.41        66.72382
477.85         66.6944
478.29        66.29962
478.74        66.65619
479.18        66.80634
479.62        66.09474
480.06         66.0257
480.50         66.2802
480.95        66.29446
481.39        67.07955
481.83        66.47069
482.27        66.76234
482.72        67.27402
483.16        66.80738
483.60        66.91803
484.04        67.13258
484.48         67.1731
484.93        66.79768
485.37        67.31407
485.81        66.44632
486.25        65.53495
486.69        66.91327
487.14         66.9538
487.58         65.4976
488.02        65.95993
488.46        66.49358
488.90        66.43208
489.34         66.0197
489.79        66.76469
490.23        65.85721
490.67        65.91574
491.11        65.99877
491.55        65.80586
491.99        65.39102
492.43        65.23447
492.88        65.38964
493.32        65.63313
493.76        65.87394
494.20        66.06774
494.64        66.17027
495.08        66.18349
495.52        66.13458
495.96        66.06792
496.41        66.02837
496.85        66.05778
497.29        66.03963
497.73        66.07668
498.17        65.48818
498.61        65.22085
499.05        65.14537
499.49        65.22434
499.93        65.35607
500.37        65.32587
500.82         65.1814
501.26         65.0183
501.70        65.22823
502.14        65.35491
502.58        65.31997
503.02        65.36824
503.46        65.44956
503.90        65.53081
504.34        65.58028
504.78        65.59312
505.22        65.56927
505.66        65.43523
506.10        65.23705
506.54        65.27565
506.98        65.50849
507.42        65.42263
507.86        64.97698
508.30        65.15562
508.74         64.7834
509.18        64.63078
509.62        64.42165
510.06        64.40173
510.50        64.58157
510.94        64.90804
511.38        65.25921
511.82        65.40047
512.26        65.28148
512.70        64.97251
513.14        64.61162
513.58        64.42934
514.02        64.48222
514.46        64.66877
514.90        64.87276
515.34        65.07757
515.78        64.95956
516.22        64.80189
516.66        64.60236
517.10        64.48621
517.54        64.48492
517.98         64.5583
518.42        64.66006
518.86        64.71417
519.30        64.69815
519.74        64.63777
520.18        64.56675
520.62        64.53043
521.06        64.54581
521.50        64.60715
521.93        64.68781
522.37        64.72533
522.81         64.7165
523.25        64.67001
523.69        64.64618
524.13        64.73964
524.57        64.95479
525.01        65.24926
525.45        65.51617
525.89        65.58418
526.32        65.41022
526.76        65.07788
527.20        64.68943
527.64        64.41069
528.08        64.29138
528.52        64.27545
528.96        64.32453
529.40         64.4034
529.83        64.46632
530.27        64.47643
530.71        64.44373
531.15        64.44201
531.59        64.47462
532.03         64.4926
532.46        64.47141
532.90        64.42307
533.34        64.34425
533.78        64.24386
534.22        64.14828
534.66        64.09531
535.09        64.08561
535.53         64.1191
535.97        64.16727
536.41        64.19738
536.85        64.19621
537.28        64.16916
537.72        64.11839
538.16        64.04282
538.60        63.94755
539.04        63.83796
539.47        63.71511
539.91        63.63338
540.35        63.58636
540.79        63.57824
541.22        63.59577
541.66        63.62671
542.10        63.66101
542.54        63.70334
542.97        63.75684
543.41        63.84621
543.85        63.96093
544.29        64.09937
544.72        64.20321
545.16        64.21984
545.60        64.13814
546.04        63.95125
546.47        63.73665
546.91        63.72886
547.35        63.91464
547.79        64.02562
548.22         63.9919
548.66        64.14556
549.10        64.32111
549.53        64.31476
549.97        63.99281
550.41        64.54248
550.84        64.03342
551.28        63.93387
551.72        63.68921
552.15         63.8549
552.59        63.63921
553.03        63.76632
553.46        63.81521
553.90        63.85652
554.34        63.81435
554.77        63.78153
555.21        63.76968
555.65        63.64397
556.08        63.47365
556.52        63.54254
556.96        63.80066
557.39        64.01518
557.83        64.14342
558.27        64.16785
558.70        64.12955
559.14          64.177
559.57        64.25805
560.01        64.27937
560.45        64.23738
560.88        63.90742
561.32        63.69738
561.75        63.74479
562.19        64.05279
562.63        63.90646
563.06        63.40782
563.50        63.40718
563.93        63.82823
564.37        64.00404
564.80         63.8886
565.24        63.85934
565.68        63.91293
566.11        63.93749
566.55        63.93558
566.98        63.83278
567.42        63.74121
567.85        63.72447
568.29         63.7783
568.72        64.05872
569.16        64.62755
569.60         64.0859
570.03        64.36822
570.47        64.65706
570.90        64.51808
571.34        64.22669
571.77        64.50381
572.21        64.58381
572.64        64.66941
573.08        64.58574
573.51        64.43565
573.95        64.20136
574.38        64.86308
574.82        64.53545
575.25        64.59105
575.69        64.52991
576.12        63.97741
576.56        64.13032
576.99        64.18732
577.42        63.97342
577.86        64.05877
578.29        63.60751
578.73        64.74405
579.16        64.10503
579.60        64.30001
580.03         64.0106
580.47        64.50453
580.90        64.38152
581.33        63.98728
581.77        64.12304
582.20        64.35863
582.64        64.59905
583.07        64.24174
583.51        63.85561
583.94        63.60068
584.37        63.26859
584.81        63.12993
585.24        63.73581
585.68        64.35591
586.11        64.80435
586.54         64.1927
586.98        63.67519
587.41        64.23904
587.85        64.86336
588.28        64.31128
588.71        64.82283
589.15        64.03918
589.58        63.93676
590.01        63.58966
590.45        63.63981
590.88        63.99942
591.31        64.28278
591.75        64.21951
592.18        64.28936
592.61        64.79751
593.05        63.10624
593.48        63.84943
593.91        64.91016
594.35        63.70668
594.78        63.51161
595.21        63.20342
595.65        63.84388
596.08        63.43065
596.51         63.9527
596.94        64.05598
597.38        64.19811
597.81        64.06213
598.24        64.05538
598.68        64.08672
599.11        63.53181
599.54         64.1365
599.97        64.74557
600.41        63.21016
600.84        63.62349
601.27        63.50097
601.70        63.77714
602.14         64.0421
602.57        63.65019
603.00        63.29741
603.43        63.18428
603.87        63.22553
604.30        64.03984
604.73        63.51756
605.16        63.55553
605.60        63.54342
606.03        63.69519
606.46        63.88748
606.89        63.90314
607.32        63.74201
607.76        63.67367
608.19        63.77182
608.62        63.64066
609.05        63.35086
609.48        63.75541
609.92         63.8539
610.35        63.75598
610.78        63.87331
611.21        63.38126
611.64        63.57779
612.07        63.53377
612.50         63.5663
612.94        63.57015
613.37        63.78654
613.80        63.61482
614.23        63.93676
614.66        63.95951
615.09        63.98513
615.52        63.96845
615.96        63.95861
616.39        63.90992
616.82        63.75116
617.25        63.98547
617.68        63.43185
618.11        63.38778
618.54        63.47959
618.97        63.43843
619.40        63.27159
619.84        63.23085
620.27        63.37878
620.70        63.52804
621.13        63.58297
621.56        63.63897
621.99        63.59583
622.42        63.04751
622.85        63.34496
623.28        63.11625
623.71        63.69711
624.14        62.68065
624.57         63.6361
625.00        63.31673
625.43        63.54243
625.86        63.41741
626.29        63.27158
626.72        63.53867
627.15        63.26348
627.58        63.29909
628.01        63.33368
628.44        63.24445
628.87        63.08178
629.30        63.17014
629.73        63.48717
630.16        63.64712
630.59         63.5999
631.02         63.7304
631.45        63.74873
631.88        63.66942
632.31        63.38067
632.74        63.44229
633.17        63.00998
633.60        62.89899
634.03        62.86913
634.46        62.90851
634.89         62.9757
635.32        63.02636
635.75        63.04667
636.18        63.03388
636.61        63.00127
637.04        62.98114
637.47        62.99697
637.89        63.00029
638.32        62.94918
638.75        62.97052
639.18        63.09377
639.61        62.67015
640.04        62.86823
640.47        62.83488
640.90        62.91629
641.33        63.07647
641.76         63.2512
642.18        63.31472
642.61         63.2089
643.04        62.98731
643.47        62.75803
643.90        62.67406
644.33        62.76318
644.76        63.05608
645.18        63.41393
645.61        63.43307
646.04        63.01532
646.47        62.95745
646.90        63.19399
647.33        63.19379
647.75        62.94041
648.18        62.76735
648.61        62.72799
649.04        62.72722
649.47        62.77144
649.89        62.97922
650.32        63.24228
650.75        63.26229
651.18        63.09632
651.61        63.09669
652.03        63.28934
652.46        63.49306
652.89         63.5261
653.32        63.36309
653.74        63.14488
654.17        62.70366
654.60        61.96416
655.03        63.85872
655.46        61.70599
655.88        63.39283
656.31        64.75782
656.74        66.22206
657.16        66.08913
657.59        64.10098
658.02        63.10268
658.45        63.71454
658.87        63.76652
659.30        63.12731
659.73        63.45016
660.15        63.59947
660.58        63.23798
661.01        63.22425
661.44        63.26676
661.86         63.1119
662.29        62.80876
662.72        62.94523
663.14        63.41269
663.57        63.27074
664.00         62.6506
664.42        62.44561
664.85         62.7117
665.27        62.94314
665.70        63.05236
666.13         63.1546
666.55        63.22849
666.98        63.23299
667.41        63.18505
667.83        63.11174
668.26        63.02095
668.69        62.91505
669.11        62.82104
669.54        62.78645
669.96        62.81785
670.39        62.90111
670.82        62.99178
671.24        63.02521
671.67        62.97302
672.09        62.85353
672.52        62.72889
672.94        62.74946
673.37        62.44866
673.80        62.91223
674.22        62.71471
674.65        62.86595
675.07        62.98646
675.50        63.10269
675.92         63.1985
676.35        63.23948
676.77        63.23637
677.20        63.17287
677.62        63.09381
678.05        63.07359
678.47        63.12238
678.90        63.22857
679.32        63.32627
679.75        63.31964
680.17        63.18869
680.60        62.97692
681.02        62.76395
681.45        62.68087
681.87        62.76006
682.30        62.94175
682.72        63.17109
683.15        63.31694
683.57        63.36535
684.00        63.35866
684.42         63.3218
684.85        63.33234
685.27        63.41072
685.70        63.40764
686.12        63.37018
686.54        63.71532
686.97        64.28224
687.39        64.40685
687.82        64.06453
688.24        63.86934
688.66        63.84697
689.09        63.64111
689.51        63.30061
689.94        63.08373
690.36        63.01703
690.78        63.03625
691.21        63.12274
691.63        63.24456
692.06        63.37576
692.48        63.53199
692.90        63.67125
693.33        63.71713
693.75        63.66077
694.17        63.51477
694.60        63.34325
695.02        63.24578
695.44        63.24324
695.87        63.38605
696.29        63.61248
696.71        63.59959
697.14        63.41473
697.56        63.50315
697.98         63.8307
698.41        63.98495
698.83        63.93758
699.25        63.92272
699.68        63.93209
700.10        63.89604
700.52        63.80564
700.94        63.70026
701.37        63.57309
701.79        63.42841
702.21        63.26862
702.64        63.10891
703.06         62.9925
703.48        62.99186
703.90        63.11929
704.33        63.36689
704.75        63.63282
705.17        63.81091
705.59        63.84274
706.01        63.75727
706.44        63.63959
706.86        63.61409
707.28        63.70415
707.70        63.93162
708.12        64.20995
708.55        64.25158
708.97        64.09692
709.39        64.11338
709.81        64.31954
710.23        64.45354
710.66        64.50111
711.08        64.64151
711.50        64.82995
711.92        64.93884
712.34         64.9546
712.76        64.91713
713.19        64.83166
713.61        64.75053
714.03        64.67735
714.45        64.60717
714.87        64.56108
715.29        64.57037
715.71        64.63477
716.13        64.74327
716.56        64.84692
716.98        64.94122
717.40        64.98323
717.82        64.97977
718.24        64.94107
718.66        64.88807
719.08         64.8311
719.50         64.7661
719.92         64.6999
720.34        64.64331
720.76        64.59957
721.19        64.56242
721.61         64.5413
722.03         64.5227
722.45        64.50311
722.87        64.48465
723.29        64.46523
723.71        64.44206
724.13        64.41579
724.55        64.38766
724.97        64.36571
725.39        64.36145
725.81        64.38063
726.23        64.42541
726.65        64.48548
727.07        64.54666
727.49         64.6007
727.91        64.63596
728.33        64.67445
728.75         64.7535
729.17        64.87418
729.59        65.03161
730.01        65.14883
730.43        65.10261
730.85        64.88474
731.27         64.5446
731.69        64.22401
732.10        64.14363
732.52        64.34721
732.94        64.77087
733.36        65.26867
733.78         65.5892
734.20        65.64719
734.62        65.47923
735.04        65.22008
735.46        65.13805
735.88        65.25999
736.30        65.40141
736.72        65.47501
737.13        65.47162
737.55        65.33863
737.97        65.06594
738.39        64.79099
738.81         64.6768
739.23        64.93375
739.65        65.23166
740.06        65.46633
740.48        65.54136
740.90        65.40596
741.32        65.06611
741.74        64.65961
742.16        64.48047
742.57         64.6097
742.99        64.87178
743.41        65.16911
743.83        65.50523
744.25        65.74863
744.67          65.565
745.08        65.09451
745.50        64.90296
745.92        65.07049
746.34        65.30018
746.75        65.50347
747.17        65.65839
747.59        65.72783
748.01        65.72575
748.42        65.69032
748.84         65.6545
749.26        65.64587
749.68        65.65303
750.09        65.64906
750.51        65.62849
750.93        65.57783
751.35         65.5069
751.76        65.45317
752.18        65.46452
752.60        65.54697
753.01        65.69269
753.43        65.82766
753.85        65.85863
754.27         65.7795
754.68        65.65159
755.10        65.52786
755.52        65.49062
755.93         65.5427
756.35        65.62536
756.77        65.77171
757.18        65.99152
757.60        66.26151
758.02        66.76872
758.43         67.2321
758.85        67.04179
759.26        65.69721
759.68         65.4436
760.10        66.05054
760.51        66.29084
760.93        65.99848
761.34        66.09672
761.76        66.46752
762.18        66.59341
762.59         66.4265
763.01        65.95604
763.42        65.39294
763.84        65.17229
764.26        65.37923
764.67        65.70236
765.09        66.05389
765.50        66.50428
765.92        66.91507
766.33        66.89398
766.75        66.44091
767.16        66.18527
767.58        66.17173
768.00        66.02534
768.41          65.781
768.83        65.82892
769.24        66.06643
769.66        66.01618
770.07        65.73079
770.49        65.65218
770.90        65.82892
771.32        66.15499
771.73        66.52573
772.15        66.64452
772.56        66.47636
772.97        66.38972
773.39        66.03828
773.80        66.03656
774.22        66.26006
774.63        66.69308
775.05         67.1326
775.46        67.34142
775.88        67.22476
776.29         66.8946
776.70        66.46955
777.12        66.16132
777.53        66.04891
777.95        66.06299
778.36        66.17322
778.77        66.31195
779.19        66.44416
779.60        66.63444
780.02        66.83318
780.43        66.98309
780.84         67.0729
781.26         67.1079
781.67         67.1437
782.09        67.31472
782.50        67.57968
782.91        67.69624
783.33        67.60364
783.74        67.44058
784.15        67.21006
784.57        66.82771
784.98        66.43024
785.39        66.29857
785.81        66.48705
786.22        66.91008
786.63        67.44582
787.04        67.89817
787.46        68.19841
787.87        68.36261
788.28        68.44642
788.70        68.54014
789.11        68.65299
789.52        68.76286
789.93        68.79556
790.35        68.63519
790.76        68.29539
791.17         67.8448
791.58        67.42648
792.00        67.23879
792.41        67.34734
792.82        67.67208
793.23        68.11457
793.65        68.49865
794.06        68.75457
794.47        68.92321
794.88        68.97619
795.29        68.86685
795.71        68.57964
796.12        68.15853
796.53        67.74159
796.94        67.60324
797.35        67.81789
797.76        68.32022
798.18        68.90795
798.59        69.28178
799.00         69.3342
799.41        69.15466
799.82        68.86696
800.23        68.68739
800.64        68.68843
801.06        68.77549
801.47        68.93549
801.88        69.07688
802.29        69.15875
802.70        69.20076
803.11        69.20947
803.52        69.18538
803.93        69.14515
804.34        69.09973
804.75        69.02081
805.17        68.92434
805.58        68.85773
805.99         68.6255
806.40        68.36047
806.81        68.71696
807.22        69.50603
807.63        69.64378
808.04        69.16098
808.45        69.04889
808.86        69.36174
809.27        69.50554
809.68         69.4204
810.09        69.32574
810.50        69.22894
810.91        69.06449
811.32        68.92593
811.73        68.96238
812.14        69.19408
812.55        69.59604
812.96         70.0137
813.37        70.15163
813.78        69.94464
814.19        69.50211
814.60        69.01234
815.01        68.74343
815.42         68.7569
815.83        68.96941
816.24        69.29628
816.65        69.56462
817.05        69.69567
817.46        69.71198
817.87        69.65022
818.28         69.5081
818.69        69.31031
819.10        69.05606
819.51        68.82417
819.92          68.771
820.33        68.93104
820.74        69.24406
821.14        69.63274
821.55        69.98202
821.96        70.23807
822.37         70.4354
822.78        70.51638
823.19        70.39229
823.60        70.06232
824.00        69.54781
824.41        69.00569
824.82         68.7126
825.23        68.72448
825.64        68.99533
826.04        69.35252
826.45        69.40398
826.86        69.08523
827.27         68.5194
827.68        67.94095
828.08        67.74339
828.49        67.97822
828.90        68.55135
829.31        69.29127
829.72          69.902
830.12        70.29686
830.53        70.47639
830.94        70.54637
831.35        70.64761
831.75        70.83987
832.16        70.99584
832.57        71.07365
832.97        70.98022
833.38        70.71445
833.79        70.38504
834.20        70.04648
834.60        69.74126
835.01        69.52756
835.42        69.36473
835.82        69.37382
836.23        69.68651
836.64        70.31895
837.04        71.24605
837.45        72.11694
837.86        72.49799
838.26        72.27341
838.67        71.57344
839.08        70.70103
839.48        70.11745
839.89        69.99147
840.29        70.18875
840.70        70.55238
841.11          70.836
841.51        70.97913
841.92        71.03147
842.33        71.07078
842.73        71.20189
843.14        71.39758
843.54        71.62733
843.95        71.83324
844.35        71.99911
844.76        72.08554
845.17         72.0929
845.57        72.03084
845.98        71.88157
846.38        71.66914
846.79        71.39822
847.19        71.06737
847.60        70.63168
848.00        70.13515
848.41        69.63178
848.81        69.24142
849.22        69.12006
849.62        69.32534
850.03        69.76476
850.43         70.3843
850.84        70.89483
851.24        71.25098
851.65        71.40655
852.05        71.43198
852.46         71.4007
852.86        71.32685
853.27        71.25583
853.67        71.07105
854.07        70.78998
854.48        70.37027
854.88        69.83645
855.29        69.25793
855.69        68.98092
856.10        69.01876
856.50         69.4053
856.90         69.8256
857.31        69.82861
857.71        69.37252
858.12        68.53325
858.52        67.69212
858.92        67.44315
859.33        67.90904
859.73        68.95673
860.13        70.14145
860.54        70.74223
860.94        70.61043
861.34        69.86453
861.75        68.86893
862.15        68.31722
862.55        68.37254
862.96        68.83569
863.36        69.31359
863.76        69.21301
864.17        68.44978
864.57        67.30138
864.97         66.1243
865.38        65.39231
865.78        65.25635
866.18        65.51694
866.58        66.08593
866.99        66.75708
867.39        67.43028
867.79         68.1478
868.19        68.65791
868.60        68.58218
869.00        67.90369
869.40        66.68612
869.80        65.47064
870.21        65.20008
870.61        66.11319
871.01        67.89551
871.41        69.79488
871.81        70.60583
872.22        70.04517
872.62         68.4812
873.02        66.59157
873.42        65.51061
873.82        65.56921
874.22        66.42907
874.63        67.56795
875.03        68.19193
875.43        68.08756
875.83        67.50774
876.23        66.85021
876.63         66.7493
877.03        67.35125
877.44        68.37709
877.84        69.45061
878.24         69.8861
878.64        69.54057
879.04          68.703
879.44        67.74486
879.84          67.193
880.24        67.17411
880.64        67.48208
881.04        68.00863
881.44        68.57948
881.84        69.09404
882.24        69.63081
882.65        69.97968
883.05        69.90862
883.45        69.35851
883.85        68.44804
884.25        67.55729
884.65         67.2728
885.05        67.69466
885.45        68.61056
885.85        69.73813
886.25        70.57243
886.65        70.91116
887.05        70.91737
887.45        70.55332
887.85        69.78412
888.25        68.74686
888.65         67.5277
889.04        66.47375
889.44        66.11536
889.84        66.47034
890.24        67.42846
890.64        68.67782
891.04        69.51852
891.44        69.67873
891.84        69.36393
892.24           68.84
892.64        68.49221
893.04         68.4184
893.44        68.46797
893.83        68.64423
894.23        68.89467
894.63         69.1969
895.03        69.58579
895.43        69.92068
895.83        69.96607
896.23        69.69084
896.63        69.13984
897.02        68.52142
897.42        68.25726
897.82         68.4227
898.22        68.93252
898.62        69.51638
899.01        69.72405
899.41        69.43979
899.81        68.81569
900.21        68.16189
900.61        67.95511
901.00        68.29032
901.40        69.00571
901.80        69.77934
902.20        70.09464
902.59        69.81418
902.99        69.10044
903.39        68.24887
903.79        67.69064
904.18        67.54015
904.58        67.70531
904.98        67.96166
905.38        67.97526
905.77        67.65192
906.17        67.09747
906.57        66.56424
906.96        66.47017
907.36        66.86176
907.76        67.63148
908.15        68.41273
908.55        68.48021
908.95         67.7563
909.34        66.47569
909.74         65.2365
910.14        64.82004
910.53        65.43398
910.93        66.78155
911.33        68.48152
911.72        69.93302
912.12        70.83025
912.52        71.33583
912.91        71.58176
913.31        71.78946
913.70        72.03563
914.10        72.18227
914.49        72.12356
914.89         71.7101
915.29        70.97732
915.68         70.0639
916.08        69.21946
916.47        68.67551
916.87        68.54448
917.26        68.69888
917.66        69.08838
918.05        69.63944
918.45        70.22593
918.84        70.90959
919.24         71.4124
919.64        71.41632
920.03        70.88693
920.42        69.90436
920.82        68.87052
921.21        68.31488
921.61         68.3745
922.00        68.92478
922.40        69.68203
922.79         70.2255
923.19        70.37778
923.58        70.28326
923.98        70.08455
924.37        70.01864
924.77        70.14066
925.16        70.35766
925.55        70.56513
925.95        70.61848
926.34        70.49576
926.74        70.24113
927.13        69.93324
927.52        69.65057
927.92        69.43331
928.31        69.24549
928.70        69.06627
929.10        68.84696
929.49        68.57633
929.89        68.25353
930.28        67.94073
930.67        67.66787
931.07        67.46079
931.46        67.34821
931.85        67.28954
932.24        67.22614
932.64        67.16725
933.03         67.1375
933.42        67.23071
933.82        67.58836
934.21        68.22108
934.60        68.98885
934.99        69.76723
935.39        70.34492
935.78        70.69244
936.17        70.85557
936.56         70.6707
936.96        69.93048
937.35        68.72812
937.74        67.23174
938.13        65.95994
938.53        65.56499
938.92        66.09769
939.31        67.41572
939.70        69.05383
940.09        70.07348
940.49        70.12334
940.88        69.45766
941.27        68.49812
941.66        67.90018
942.05        67.84598
942.44        68.18612
942.84        68.61601
943.23        68.68227
943.62        68.22786
944.01        67.41683
944.40        66.72809
944.79        66.83916
945.18        67.84367
945.57        69.53232
945.97         71.1694
946.36        71.72723
946.75        70.84088
947.14        68.86788
947.53        66.66693
947.92        65.53041
948.31        65.77957
948.70        67.09454
949.09        68.77399
949.48        69.53423
949.87        68.99774
950.26        67.58903
950.65         66.0659
951.04        65.47237
951.43        66.03319
951.82        67.44711
952.21         69.0745
952.60        69.76665
952.99        69.18887
953.38        67.72312
953.77        66.16933
954.16        65.58379
954.55        66.17435
954.94         67.7158
955.33        69.48467
955.72        69.95612
956.11         68.6675
956.50         66.1998
956.89        63.71067
957.28        62.67265
957.66        63.39353
958.05         65.3883
958.44        67.85963
958.83        69.17781
959.22        68.77001
959.61        67.20036
960.00        65.31228
960.39        64.16761
960.78        63.97846
961.16         64.4418
961.55        65.12673
961.94        65.28697
962.33        64.70701
962.72        63.77877
963.11        62.90983
963.49        62.60918
963.88        62.98074
964.27        63.80181
964.66        64.94288
965.04         66.2384
965.43        67.44517
965.82        68.59592
966.21        69.44308
966.60         69.5627
966.98        68.93313
967.37        67.76157
967.76        66.41531
968.15        65.36967
968.53        64.72932
968.92        64.34748
969.31        64.29673
969.69        64.69386
970.08        65.47266
970.47        66.73045
970.86        67.97607
971.24        68.35944
971.63        67.68909
972.02        66.20238
972.40        64.73748
972.79        64.69116
973.17        66.28205
973.56        68.96742
973.95         71.8699
974.33         73.3075
974.72        72.68975
975.11        70.60896
975.49        67.94911
975.88        66.36588
976.26        66.27327
976.65        67.14788
977.04        68.48943
977.42        69.37894
977.81         69.3261
978.19         68.7497
978.58        67.87845
978.96        66.92216
979.35        66.08765
979.74         65.3185
980.12        64.80319
980.51        64.86513
980.89        65.60538
981.28        66.76084
981.66        68.33608
982.05        70.03624
982.43        71.77738
982.82         73.5388
983.20        74.73484
983.59        74.31634
983.97        72.23485
984.35        68.90462
984.74        65.69705
985.12        64.52388
985.51         65.6488
985.89        68.62252
986.28        72.08508
986.66         74.0761
987.04        73.83146
987.43        71.97031
987.81        69.35699
988.20        67.83752
988.58        67.89875
988.96        68.99878
989.35        70.21006
989.73        70.28814
990.12        68.86954
990.50        66.59789
990.88        64.07267
991.27        62.20402
991.65        61.27549
992.03        61.01639
992.42        61.44937
992.80         62.9443
993.18        65.33387
993.56         68.5825
993.95        71.83051
994.33        73.53753
994.71        73.16796
995.10        71.23392
995.48        68.76961
995.86         67.4444
996.24        67.69253
996.63        68.93271
997.01        70.90427
997.39        72.85611
997.77        74.33013
998.15         75.5573
998.54        76.15147
998.92        75.50198
999.30        73.57417
999.68        70.48694
1000.06        67.08257
1000.45        65.03889
1000.83         64.9922
1001.21        66.56172
1001.59        69.04683
1001.97        71.15547
1002.35        72.39686
1002.73         73.1133
1003.12        73.33723
1003.50        73.05244
1003.88        72.43945
1004.26        71.49537
1004.64        70.59113
1005.02        70.45589
1005.40        71.18468
1005.78        72.42049
1006.16        73.91045
1006.54        75.31548
1006.92        76.48875
1007.30        77.58582
1007.69        78.05072
1008.07        76.92794
1008.45        74.00744
1008.83        69.64886
1009.21        65.20807
1009.59        62.91332
1009.97        63.34799
1010.35        65.90324
1010.73        69.53082
1011.11        72.38212
1011.49        73.76131
1011.86        74.19839
1012.24        73.68129
1012.62        72.44734
1013.00        70.64402
1013.38        68.01484
1013.76        65.05233
1014.14        62.99835
1014.52        62.36102
1014.90        63.09039
1015.28        64.35644
1015.66        64.61649
1016.04        63.50014
1016.41         61.4661
1016.79        59.35442
1017.17        58.81384
1017.55        60.13232
1017.93        62.39644
1018.31          64.789
1018.69        66.85011
1019.06        68.78337
1019.44        70.81776
1019.82        73.29493
1020.20        76.01305
1020.58        78.13241
1020.95        79.08479
1021.33        78.80916
1021.71        77.40677
1022.09        74.88459
1022.46        70.87419
1022.84        65.88739
1023.22        61.72598
1023.60        60.10111
1023.97        60.78093
1024.35        62.67196
1024.73        64.54239
