SpectraSmart Spectrum 2.9.0.0
--------- Device Information -----------
Spectrum Name :  反射率_0
Saving Time :  2024/04/29 23:59:46
Spectro-Module Model Name : SE2030-DUVN
Spectro-Module Serial Number : OS361AC55029948
Wavelength Start : 200
Wavelength End : 1025
Wavelength Unit : Wavelength(nm)
Spectrum Unit : Reflectance(%)
-----------Spectrum Setting ------------
Integration Time : 20ms
Average : 10
Boxcar : 0
Background removal :  enabled
linearity correction :  enabled
SC :  disabled
Intensity correction :  disabled
DWT denoise :  enabled
savitzky-golay :  disabled
FFT :  disabled
Running average :  disabled
Kalman :  disabled
High pass :  disabled
---------------BEGIN--------------------
Wavelength(nm)             Reflectance(%)
200.29               0
200.75        96.78323
201.21        81.53693
201.67        65.84072
202.13        55.32844
202.58        52.65896
203.04        56.48319
203.50        66.24916
203.96         79.9257
204.42        94.46651
204.88        108.7844
205.34        116.3095
205.80        109.8109
206.26        93.84576
206.72        75.74126
207.18        60.94937
207.64        52.10251
208.10         47.8608
208.55        46.22603
209.01        46.85729
209.47        49.71977
209.93        53.64315
210.39        58.03312
210.85        61.20406
211.31        61.83848
211.77        59.82225
212.23        54.44748
212.69        46.30068
213.14        41.50001
213.60        43.31829
214.06        49.36625
214.52        54.94938
214.98        56.65492
215.44        54.97513
215.90         51.1406
216.36        47.37977
216.81         47.9776
217.27        55.26669
217.73        69.70519
218.19         89.6153
218.65        103.4143
219.11        103.0059
219.57        92.62463
220.02        81.14482
220.48        75.07687
220.94        73.49068
221.40        74.32027
221.86        75.23062
222.32        71.21613
222.77        62.70531
223.23        55.00653
223.69        49.44385
224.15        45.53479
224.61        42.40153
225.06        39.20529
225.52         36.8638
225.98        37.30574
226.44        40.26046
226.90        44.16695
227.36        47.11713
227.81        47.82053
228.27        46.57552
228.73        43.77266
229.19        40.57778
229.65        39.54407
230.10        41.04904
230.56        43.69018
231.02        45.94241
231.48        46.52334
231.93        45.39588
232.39        43.16429
232.85        40.39124
233.31        38.20161
233.77        37.07654
234.22        36.82868
234.68        37.03342
235.14        36.93537
235.60         36.3973
236.05        35.77274
236.51        35.67072
236.97        36.86452
237.43        39.63545
237.88        44.16902
238.34        50.03734
238.80        55.42376
239.26        58.49009
239.71        59.24369
240.17        58.36851
240.63         57.6258
241.08        57.74351
241.54        58.30761
242.00        60.09516
242.46        64.50948
242.91        71.76331
243.37        80.25076
243.83        87.28237
244.28        91.80373
244.74        94.41656
245.20        94.71819
245.66        94.09693
246.11        96.03828
246.57        101.8209
247.03        111.7339
247.48        120.9618
247.94        118.8212
248.40        107.0468
248.85        92.70589
249.31        82.68058
249.77         79.1034
250.22         81.0894
250.68        88.47477
251.14        100.3683
251.59        105.2678
252.05        96.79062
252.51        84.57272
252.96        75.54967
253.42         71.7096
253.88        71.06331
254.33        71.99679
254.79        73.61865
255.25        73.76939
255.70          72.066
256.16        70.14585
256.62        68.60076
257.07        67.64315
257.53         67.4474
257.99        67.52166
258.44        67.15307
258.90        66.22471
259.35        64.52601
259.81        62.77275
260.27        61.27255
260.72        60.29309
261.18        59.86338
261.63        59.49147
262.09        58.92426
262.55        57.52749
263.00        55.38416
263.46        53.09553
263.91        50.89531
264.37        49.31652
264.83        48.27227
265.28        47.48173
265.74        46.96743
266.19        46.55437
266.65        46.22989
267.11        45.99226
267.56        45.64882
268.02        44.91317
268.47        43.72881
268.93        42.17661
269.38        40.51734
269.84        39.34663
270.30        38.79717
270.75        38.69173
271.21        38.70813
271.66        38.33221
272.12        37.45491
272.57        36.22282
273.03        34.87226
273.48        33.69618
273.94        32.85596
274.39        32.21191
274.85         31.7151
275.31         31.2306
275.76        30.69403
276.22        30.17034
276.67        29.65437
277.13        29.21564
277.58        28.81539
278.04        28.46889
278.49        28.06873
278.95        27.55815
279.40        26.90325
279.86        26.20605
280.31        25.54382
280.77        25.14079
281.22        24.98664
281.68        25.02923
282.13         25.1397
282.59        25.18182
283.04        25.09823
283.50        24.92761
283.95        24.69136
284.41        24.43343
284.86        24.16945
285.32        23.92978
285.77        23.68226
286.22        23.44973
286.68        23.25367
287.13        23.06249
287.59        22.95467
288.04         22.9893
288.50        23.17255
288.95        23.44136
289.41         23.6964
289.86        23.75503
290.32        23.62053
290.77        23.36491
291.22        23.10331
291.68        23.01328
292.13        23.14249
292.59        23.45829
293.04        23.96982
293.50        24.71634
293.95        25.67944
294.40        26.85952
294.86        28.12012
295.31        29.25383
295.77        30.21197
296.22        31.03387
296.68        31.88372
297.13        33.00328
297.58        34.44913
298.04         36.1113
298.49        37.82522
298.95        39.34075
299.40        40.59274
299.85        41.67056
300.31         42.7098
300.76        43.84568
301.21         45.1557
301.67        46.61267
302.12        48.13265
302.58          49.735
303.03        51.38237
303.48        53.00145
303.94        54.62603
304.39        56.72931
304.84        58.53698
305.30        60.63457
305.75        62.67391
306.20        64.54995
306.66        66.23782
307.11        67.72624
307.57        69.13233
308.02        70.52438
308.47        71.96983
308.93        73.45071
309.38        74.90574
309.83        76.31024
310.29        77.64656
310.74        78.91061
311.19        80.08219
311.65        81.11596
312.10        81.99905
312.55        82.76457
313.00        83.50385
313.46        84.36411
313.91        85.35813
314.36        86.44616
314.82        87.53373
315.27        88.49213
315.72        89.25637
316.18        89.86584
316.63        90.33636
317.08        90.70905
317.53        91.02692
317.99        91.31613
318.44        91.59617
318.89         91.9139
319.35        92.28568
319.80         92.6972
320.25        93.21236
320.70        93.92627
321.16        94.80259
321.61        95.84334
322.06        96.81383
322.51        97.34579
322.97        97.35777
323.42        96.96946
323.87        96.45766
324.32        96.29198
324.78        96.58014
325.23        97.25671
325.68        98.09428
326.13        98.69701
326.59        98.92432
327.04        98.92696
327.49        98.88034
327.94        99.11526
328.39        99.70757
328.85        100.4942
329.30        101.3379
329.75        101.8205
330.20        101.8359
330.66        101.5181
331.11         101.116
331.56        100.9502
332.01        101.1507
332.46         101.639
332.92        102.3029
333.37        103.0908
333.82        103.8823
334.27        104.6854
334.72         105.485
335.17        106.2569
335.63        106.9527
336.08        107.6149
336.53         108.119
336.98        108.3429
337.43        108.2934
337.88        108.0289
338.34        107.7764
338.79        107.9125
339.24        108.5097
339.69        109.4793
340.14        110.5656
340.59        111.3192
341.05        111.6259
341.50        111.6286
341.95        111.5281
342.40        111.6698
342.85        112.1386
343.30        112.7817
343.75        113.5038
344.20        114.1576
344.66        114.6985
345.11        115.2163
345.56         115.619
346.01         115.741
346.46        115.6008
346.91        115.2355
347.36        114.9814
347.81        115.3625
348.26        116.4328
348.72        117.9978
349.17        119.6111
349.62        120.4399
350.07        120.2827
350.52        119.4399
350.97         118.346
351.42        117.6654
351.87        117.5972
352.32          117.93
352.77        118.5453
353.22        119.2562
353.67          119.93
354.13        120.5885
354.58        121.0918
355.03        121.1974
355.48        120.8538
355.93        120.1116
356.38        119.0946
356.83        118.0194
357.28         116.982
357.73        115.9706
358.18        115.0281
358.63         114.199
359.08        113.4919
359.53        112.9169
359.98        112.4249
360.43        111.9194
360.88        111.3672
361.33        110.7741
361.78        110.1592
362.23         109.564
362.68        108.9948
363.13         108.433
363.58        107.8496
364.03        107.2032
364.48        106.4898
364.93        105.7291
365.38        104.9701
365.83        104.2929
366.28        103.7179
366.73        103.2213
367.18        102.7561
367.63        102.2426
368.08        101.6551
368.53        101.0189
368.98        100.3609
369.43        99.72234
369.88        99.13052
370.33        98.58855
370.78        98.09222
371.23        97.63956
371.68        97.22141
372.13        96.81147
372.58        96.44043
373.03        96.15697
373.48        95.93887
373.93        95.75433
374.38        95.45517
374.83        94.81425
375.28        93.82681
375.72        92.58307
376.17         91.3741
376.62         90.4599
377.07        89.89878
377.52        89.59673
377.97        89.46001
378.42        89.33591
378.87        89.15459
379.32        88.94723
379.77        88.69238
380.22        88.35441
380.67        87.92471
381.11         87.3997
381.56        86.80297
382.01        86.20704
382.46        85.65826
382.91        85.17093
383.36        84.74551
383.81         84.3683
384.26        84.02724
384.71        83.71087
385.15        83.42517
385.60        83.23725
386.05        83.11337
386.50        83.02699
386.95        82.87583
387.40        82.51094
387.85        81.93867
388.29        81.19477
388.74        80.51838
389.19        80.02057
389.64        79.72386
390.09        79.55362
390.54        79.47533
390.98        79.41662
391.43        79.36756
391.88        79.32368
392.33        79.18588
392.78        78.86752
393.23        78.38609
393.67        77.68071
394.12        76.93275
394.57        76.77422
395.02         76.1939
395.47        76.34381
395.91        76.76593
396.36        76.92722
396.81        76.74597
397.26          76.487
397.71        76.23022
398.15        75.89622
398.60        75.58949
399.05        75.41241
399.50        75.32027
399.95         74.9972
400.39        74.33027
400.84        74.65935
401.29        75.63914
401.74        75.83568
402.18        75.11007
402.63        74.20056
403.08        73.46783
403.53        73.13461
403.97        73.27709
404.42        73.78965
404.87        74.37983
405.32        74.54317
405.76        74.15835
406.21        73.53955
406.66        72.84073
407.11        72.12018
407.55        71.62712
408.00        71.62285
408.45        72.05018
408.90        72.74171
409.34        73.36237
409.79        73.17021
410.24        72.40659
410.68        72.22365
411.13        72.70095
411.58        73.15956
412.03        73.41279
412.47        73.48264
412.92        73.28802
413.37        72.87057
413.81        72.36363
414.26        72.04106
414.71        71.92875
415.15        71.97935
415.60        72.09351
416.05        72.14627
416.49         72.1029
416.94        72.00761
417.39        71.89882
417.83        71.81532
418.28        71.78165
418.73         71.7749
419.17        71.79815
419.62        71.89464
420.07        72.04275
420.51        72.15929
420.96        72.23964
421.41        72.29567
421.85        72.23306
422.30        72.05403
422.74        71.75149
423.19        71.30697
423.64        70.87279
424.08        71.04552
424.53        71.72649
424.98        72.12996
425.42        72.14989
425.87        72.42864
426.31        72.86324
426.76        72.52708
427.21        71.51041
427.65         71.5414
428.10        72.38319
428.54        72.39277
428.99        71.62023
429.44        71.09188
429.88        70.96529
430.33        71.03066
430.77        71.22076
431.22        71.81541
431.66        72.57269
432.11        72.57363
432.56        71.89174
433.00        71.58907
433.45         71.9972
433.89        72.50813
434.34        72.91158
434.78        74.74616
435.23        72.29249
435.67        71.50453
436.12        71.08076
436.57        71.18365
437.01        71.59751
437.46        72.44169
437.90        72.07765
438.35        72.47351
438.79        73.06934
439.24        73.27331
439.68        73.09116
440.13        72.97584
440.57        73.03759
441.02        73.11705
441.46        73.19227
441.91        73.50397
442.35        73.83426
442.80        73.75957
443.24        73.64275
443.69        73.33842
444.13        73.05222
444.58        72.84701
445.02        72.71928
445.47        72.71297
445.91        72.78609
446.36        72.87923
446.80        72.95119
447.24        73.03928
447.69         73.1347
448.13        73.19341
448.58        73.23078
449.02        73.23029
449.47        73.23447
449.91        73.28123
450.36        73.38821
450.80         73.5118
451.25        73.64656
451.69         73.7485
452.13        73.81483
452.58        73.89582
453.02        73.95444
453.47         73.9278
453.91        73.78928
454.36        73.69235
454.80          73.437
455.24        73.48729
455.69        73.96416
456.13        74.26533
456.58        73.99597
457.02        73.46572
457.46         73.5704
457.91        73.31509
458.35        73.03047
458.79        72.87943
459.24         72.9229
459.68        73.17381
460.13        73.52732
460.57        73.49136
461.01        73.62267
461.46         73.2692
461.90        73.01094
462.34        73.47796
462.79        73.66638
463.23         73.5045
463.68         72.7819
464.12         72.3633
464.56        72.28541
465.01        72.08978
465.45         71.8214
465.89         71.8569
466.34         72.0586
466.78        72.73041
467.22        72.32333
467.67        72.32766
468.11        72.31456
468.55         72.0733
468.99        71.67947
469.44        71.38808
469.88        71.25838
470.32        71.22864
470.77        71.25004
471.21        71.26221
471.65        71.22499
472.10        71.17574
472.54        71.14437
472.98        71.18304
473.42        71.28297
473.87        71.50866
474.31        71.74108
474.75        71.59801
475.20        71.15623
475.64        71.05934
476.08        71.32811
476.52        71.14754
476.97        70.45761
477.41        70.92983
477.85        70.53576
478.29        70.24084
478.74        71.00488
479.18        70.80251
479.62        70.26844
480.06        70.11532
480.50        70.41161
480.95        70.45316
481.39        71.30788
481.83        70.39367
482.27        71.36729
482.72        70.81694
483.16        70.82856
483.60        70.69064
484.04        70.75188
484.48        71.00657
484.93        71.21479
485.37        70.90087
485.81         70.4297
486.25        69.44994
486.69        70.34652
487.14        70.57629
487.58        70.25516
488.02        69.75907
488.46        71.07027
488.90        70.64551
489.34        70.02527
489.79        70.63963
490.23        69.85388
490.67        70.12767
491.11        70.41076
491.55        70.16721
491.99        69.49034
492.43        69.23418
492.88        69.47289
493.32        69.72982
493.76        69.91512
494.20         70.1261
494.64        70.31686
495.08        70.44221
495.52        70.52368
495.96        70.49125
496.41        70.33877
496.85        70.32819
497.29        70.46223
497.73         69.7542
498.17         69.7187
498.61        69.42422
499.05        69.35767
499.49         69.5162
499.93        69.77159
500.37        69.66446
500.82        69.25508
501.26        69.14636
501.70        69.36264
502.14         69.5396
502.58        69.63335
503.02        69.74285
503.46        69.85384
503.90        69.93916
504.34        69.99377
504.78        70.01102
505.22        69.97861
505.66        69.92016
506.10        69.86967
506.54         69.8258
506.98        69.78376
507.42         70.1283
507.86        69.82085
508.30         70.1633
508.74        69.57298
509.18        69.25406
509.62          69.005
510.06        68.64068
510.50        69.03105
510.94        69.43713
511.38        69.92162
511.82        70.12302
512.26         69.9676
512.70        69.55374
513.14        69.05408
513.58        68.77251
514.02        68.78649
514.46        68.97677
514.90        69.21983
515.34        69.46935
515.78        69.42318
516.22          69.332
516.66        69.19688
517.10        69.12948
517.54        69.15589
517.98         69.2414
518.42        69.31895
518.86        69.28321
519.30        69.11958
519.74        68.87222
520.18        68.63914
520.62        68.56352
521.06        68.67692
521.50        68.93935
521.93        69.25651
522.37        69.44393
522.81        69.45399
523.25         69.3558
523.69        69.25225
524.13        69.22191
524.57         69.2766
525.01        69.70091
525.45        69.80772
525.89        69.91018
526.32        69.78773
526.76        69.53629
527.20        69.24158
527.64        69.04782
528.08        68.99883
528.52        69.04565
528.96        69.13853
529.40        69.19876
529.83        69.19497
530.27        69.15987
530.71        69.11083
531.15        69.08041
531.59        69.07452
532.03        69.07449
532.46        69.05292
532.90        68.99902
533.34        68.90742
533.78        68.80072
534.22        68.69643
534.66        68.61728
535.09        68.56683
535.53         68.5482
535.97        68.56186
536.41        68.63959
536.85        68.77514
537.28        68.91902
537.72        69.01524
538.16        69.12255
538.60        68.98331
539.04        68.82079
539.47        68.59792
539.91        68.43181
540.35        68.33186
540.79        68.29031
541.22        68.28887
541.66        68.30167
542.10         68.3145
542.54        68.34048
542.97         68.3818
543.41         68.4594
543.85        68.56185
544.29        68.68895
544.72        68.78059
545.16        68.78516
545.60        68.69212
546.04        68.49275
546.47        68.27553
546.91        68.28857
547.35         68.5145
547.79        68.68468
548.22         68.7166
548.66        68.85128
549.10        69.07732
549.53        69.03913
549.97        68.65758
550.41        69.22678
550.84        68.68546
551.28        68.59726
551.72        68.34078
552.15        68.49809
552.59        68.22402
553.03        68.21408
553.46        68.22765
553.90        68.26667
554.34        68.30868
554.77        68.41892
555.21        68.56907
555.65        68.55032
556.08        68.40331
556.52        68.44621
556.96        68.65002
557.39        68.77309
557.83        68.80748
558.27        68.83844
558.70        68.86744
559.14        68.87724
559.57        68.84763
560.01        68.79742
560.45        68.74741
560.88        68.59786
561.32        68.67017
561.75         68.5876
562.19        68.46388
562.63        68.28581
563.06        68.11123
563.50        68.15092
563.93         68.3308
564.37        68.40996
564.80         68.3501
565.24        68.31622
565.68        68.31178
566.11        68.33051
566.55        68.37721
566.98        68.32391
567.42        68.27412
567.85        68.31263
568.29         68.4223
568.72        68.65863
569.16        69.10725
569.60        68.47372
570.03        68.86214
570.47        68.81767
570.90        68.99141
571.34        68.36955
571.77        68.81335
572.21        68.83823
572.64        68.93282
573.08        69.06028
573.51         68.4651
573.95        69.19229
574.38        69.11269
574.82        68.91645
575.25        68.89613
575.69        68.79001
576.12        68.97992
576.56        68.20486
576.99        68.28108
577.42        68.43959
577.86        68.31982
578.29         68.2577
578.73        69.23676
579.16        68.59451
579.60        68.53146
580.03        68.73468
580.47         68.9954
580.90         68.9195
581.33        68.51525
581.77        68.10323
582.20        68.43179
582.64        68.79633
583.07        68.48144
583.51        68.30352
583.94        68.20971
584.37         68.0033
584.81        67.93564
585.24         68.1454
585.68        68.35934
586.11        69.18932
586.54        68.46785
586.98        67.98621
587.41        68.83513
587.85        68.97606
588.28        68.70226
588.71        69.43797
589.15        68.33166
589.58        68.69166
590.01        68.18288
590.45          68.326
590.88        68.66326
591.31        69.03746
591.75        69.18143
592.18        69.18592
592.61        69.32222
593.05        67.99356
593.48        68.68843
593.91        69.42814
594.35        68.19317
594.78        68.07886
595.21        68.17773
595.65        68.54211
596.08        67.62237
596.51        68.37009
596.94        68.62321
597.38        68.71092
597.81        68.38853
598.24         68.5847
598.68        68.17945
599.11        68.02692
599.54        68.52808
599.97        69.07223
600.41        67.87981
600.84        67.97652
601.27        68.21878
601.70        68.33148
602.14        68.65151
602.57        68.35249
603.00        67.85943
603.43        67.84017
603.87         67.9739
604.30         68.3875
604.73        68.18398
605.16        68.15244
605.60        68.26772
606.03        68.32509
606.46        68.30518
606.89        68.55714
607.32        68.43131
607.76        68.45306
608.19        68.49139
608.62         68.3019
609.05        67.92782
609.48        68.41021
609.92        68.24796
610.35        68.29505
610.78        68.61653
611.21        67.93879
611.64        67.99298
612.07         68.3281
612.50        68.35671
612.94        68.58752
613.37        68.75693
613.80        68.48087
614.23        68.75868
614.66        68.71397
615.09        68.65436
615.52         68.6401
615.96        68.63927
616.39        68.54984
616.82          68.106
617.25        68.24664
617.68        67.69466
618.11        67.96854
618.54         68.5119
618.97        68.47779
619.40        67.93703
619.84        67.77572
620.27        68.09093
620.70        68.39424
621.13        68.50946
621.56        68.40983
621.99        67.89345
622.42        67.50597
622.85        68.20105
623.28        68.04905
623.71        68.68054
624.14        67.37576
624.57        68.34357
625.00        68.22259
625.43        68.13217
625.86        68.01915
626.29        67.93179
626.72        67.95358
627.15        67.92883
627.58        68.08857
628.01        68.27749
628.44        68.15232
628.87        67.63478
629.30        67.61203
629.73        67.99499
630.16        68.30715
630.59        68.10986
631.02        68.29184
631.45        68.41064
631.88        68.49005
632.31        68.42162
632.74        68.28712
633.17        68.11543
633.60        67.95436
634.03        67.83019
634.46        67.71387
634.89        67.63142
635.32         67.6356
635.75         67.7244
636.18        67.87771
636.61        68.03716
637.04        68.10223
637.47        68.06396
637.89        67.93816
638.32        67.75694
638.75        67.60812
639.18        67.83231
639.61        67.47363
640.04        67.80975
640.47        67.81673
640.90        67.84782
641.33        67.89687
641.76        67.95177
642.18          67.978
642.61        67.93515
643.04        67.83988
643.47        67.75613
643.90        67.76914
644.33        67.88351
644.76        68.15913
645.18        68.46251
645.61         68.3859
646.04        67.84289
646.47         67.6844
646.90        67.85825
647.33        67.83704
647.75        67.61199
648.18         67.5073
648.61        67.55345
649.04        67.67259
649.47        67.83879
649.89        68.01749
650.32        68.12952
650.75        68.17366
651.18        68.17531
651.61        68.08481
652.03        67.99445
652.46        68.18661
652.89        68.43639
653.32        68.27594
653.74        67.94695
654.17        67.16209
654.60        67.17244
655.03        68.84024
655.46        67.20741
655.88        67.99554
656.31         68.4397
656.74        69.66257
657.16        70.08772
657.59        68.23847
658.02        67.36578
658.45        68.64887
658.87        68.70342
659.30        68.03889
659.73         68.7922
660.15        68.91769
660.58        68.66686
661.01        68.42437
661.44        68.12694
661.86        67.68359
662.29        67.22846
662.72        67.44823
663.14        68.16385
663.57        68.10795
664.00        67.40666
664.42        67.25781
664.85        67.71261
665.27         68.0471
665.70        68.15972
666.13        68.26897
666.55        68.36031
666.98         68.3597
667.41        68.29561
667.83        68.21819
668.26        68.13313
668.69         68.0404
669.11        67.96358
669.54        67.90557
669.96        67.86473
670.39         67.9426
670.82        68.07372
671.24        67.92661
671.67        67.58511
672.09        67.58907
672.52        67.91988
672.94        68.16271
673.37        67.77013
673.80        68.23596
674.22        68.02774
674.65        68.12434
675.07        68.12405
675.50        68.08917
675.92        68.04305
676.35        68.00655
676.77        68.00435
677.20        68.01746
677.62        68.05318
678.05        68.04308
678.47        68.12074
678.90        68.14845
679.32        68.14547
679.75        68.10199
680.17        68.01157
680.60        67.88041
681.02        67.74605
681.45        67.66824
681.87        67.66165
682.30        67.74437
682.72        67.89987
683.15        67.91481
683.57        67.86057
684.00        68.07568
684.42        68.46775
684.85        68.65536
685.27        68.61449
685.70        68.39406
686.12        68.14265
686.54        68.43072
686.97         69.1081
687.39        69.27613
687.82        68.99378
688.24        68.82371
688.66         68.8134
689.09        68.54653
689.51        68.11334
689.94        67.87274
690.36        67.86395
690.78        67.98753
691.21        68.17934
691.63        68.34435
692.06        68.43884
692.48         68.4926
692.90        68.51082
693.33        68.50053
693.75        68.47144
694.17        68.40439
694.60        68.32689
695.02        68.28183
695.44        68.27094
695.87        68.37015
696.29        68.53538
696.71        68.44891
697.14        68.19932
697.56        68.26897
697.98        68.61001
698.41        68.74665
698.83        68.64738
699.25        68.59013
699.68        68.57135
700.10        68.51879
700.52        68.42561
700.94        68.32401
701.37        68.22783
701.79        68.17534
702.21        68.16561
702.64        68.20154
703.06        68.26039
703.48        68.31622
703.90        68.36346
704.33        68.41705
704.75        68.46176
705.17         68.5471
705.59        68.65297
706.01        68.76376
706.44         68.8606
706.86        68.91737
707.28        68.92445
707.70        68.90473
708.12        68.87469
708.55        68.82827
708.97        68.78202
709.39         68.7614
709.81        68.78822
710.23        68.88712
710.66        69.05114
711.08         69.2895
711.50        69.53814
711.92        69.72394
712.34        69.82509
712.76        69.85493
713.19        69.81564
713.61        69.76454
714.03        69.70319
714.45        69.63021
714.87        69.56388
715.29        69.52859
715.71        69.52728
716.13        69.55601
716.56        69.58521
716.98        69.64677
717.40        69.70655
717.82         69.7663
718.24        69.81113
718.66        69.82076
719.08        69.79231
719.50        69.72549
719.92        69.65174
720.34        69.62341
720.76         69.6497
721.19        69.70999
721.61        69.77069
722.03        69.74876
722.45        69.62817
722.87        69.43362
723.29         69.2256
723.71        69.10068
724.13        69.08536
724.55        69.15697
724.97        69.26202
725.39        69.30898
725.81        69.27967
726.23        69.20957
726.65        69.14994
727.07        69.18391
727.49        69.32376
727.91        69.52024
728.33        69.73894
728.75        69.92567
729.17        70.05283
729.59        70.14557
730.01        70.15858
730.43        70.02152
730.85        69.74644
731.27        69.36453
731.69        69.02034
732.10        68.93957
732.52        69.16807
732.94        69.65166
733.36        70.21974
733.78          70.592
734.20        70.67599
734.62         70.4519
735.04         70.1099
735.46        70.14045
735.88        70.51997
736.30        70.73351
736.72        70.67393
737.13        70.59538
737.55        70.45516
737.97        70.06303
738.39        69.58344
738.81        69.42686
739.23        69.62322
739.65        69.95844
740.06        70.25484
740.48        70.40221
740.90        70.33691
741.32        70.07736
741.74        69.73866
742.16        69.57277
742.57        69.65779
742.99        69.82056
743.41        70.01868
743.83        70.35655
744.25        70.71433
744.67        70.70345
745.08        70.40514
745.50        70.31342
745.92        70.48051
746.34        70.61607
746.75        70.68269
747.17        70.74371
747.59        70.78483
748.01        70.81424
748.42        70.82471
748.84        70.74368
749.26        70.59988
749.68        70.47347
750.09        70.39063
750.51        70.36636
750.93          70.396
751.35        70.50123
751.76        70.63756
752.18        70.69584
752.60        70.64008
753.01        70.55149
753.43        70.47234
753.85        70.35264
754.27        70.19736
754.68        70.62906
755.10        70.53949
755.52        70.68642
755.93        70.71487
756.35        70.64762
756.77        70.61642
757.18        70.75258
757.60        71.06998
758.02         71.7998
758.43        72.58573
758.85        72.22797
759.26        70.99823
759.68        70.53479
760.10        70.89318
760.51        71.28696
760.93        70.90526
761.34        71.18259
761.76        71.73315
762.18        71.95782
762.59        71.78323
763.01        71.25712
763.42        70.61505
763.84        70.30177
764.26        70.42734
764.67        70.63963
765.09        70.88229
765.50        71.38067
765.92        71.94489
766.33        71.90129
766.75        71.27956
767.16        71.03471
767.58        71.22377
768.00        71.28619
768.41        71.19951
768.83        71.30511
769.24        71.49783
769.66          71.425
770.07        71.12815
770.49         70.8912
770.90        70.80673
771.32        70.99674
771.73        71.38893
772.15        71.53871
772.56        71.40748
772.97        71.48048
773.39        71.31023
773.80        71.38128
774.22         71.5265
774.63        71.77751
775.05        71.99435
775.46        72.05872
775.88        71.91051
776.29        71.62495
776.70        71.28696
777.12        71.05404
777.53        70.98562
777.95        71.03417
778.36        71.16397
778.77         71.2987
779.19        71.40533
779.60        71.53121
780.02        71.66016
780.43        71.82737
780.84        72.01312
781.26        72.14677
781.67        72.24983
782.09        72.42646
782.50        72.64364
782.91        72.72764
783.33        72.62774
783.74        72.43517
784.15        72.15936
784.57        71.76435
784.98        71.37331
785.39        71.21877
785.81        71.35119
786.22        71.69823
786.63        72.17281
787.04         72.6303
787.46        73.00904
787.87        73.30958
788.28        73.53101
788.70        73.67052
789.11        73.72443
789.52        73.71133
789.93        73.62518
790.35        73.44884
790.76         73.2196
791.17        72.98285
791.58        72.82485
792.00        72.80341
792.41        72.94593
792.82        73.30148
793.23        73.74622
793.65        73.86862
794.06        73.71137
794.47        73.75305
794.88         73.9539
795.29        73.90208
795.71        73.56892
796.12        73.23027
796.53        72.99345
796.94        72.94393
797.35        73.12418
797.76        73.51704
798.18        73.97248
798.59        74.28491
799.00        74.37039
799.41        74.28257
799.82        74.10567
800.23        73.99522
800.64         74.0015
801.06        74.04861
801.47        74.13966
801.88        74.20374
802.29        74.21276
802.70        74.18124
803.11         74.1268
803.52        74.06924
803.93        74.03456
804.34        74.03688
804.75        74.03756
805.17        74.04425
805.58        74.09866
805.99        73.95252
806.40        73.74871
806.81        74.27254
807.22        75.28106
807.63        75.42677
808.04        74.76511
808.45        74.56366
808.86        74.89912
809.27        75.02616
809.68        74.85562
810.09        74.62963
810.50        74.36192
810.91        74.00599
811.32        73.69872
811.73        73.65013
812.14        73.89698
812.55         74.3894
812.96        74.97366
813.37         75.3461
813.78        75.40432
814.19         75.2359
814.60        74.95034
815.01        74.70878
815.42        74.56484
815.83        74.47072
816.24        74.42327
816.65        74.42579
817.05        74.47382
817.46         74.5395
817.87         74.6325
818.28        74.69793
818.69        74.72719
819.10           74.74
819.51        74.73096
819.92        74.70168
820.33        74.65805
820.74        74.57977
821.14        74.53852
821.55        74.65649
821.96        74.93851
822.37        75.36819
822.78        75.77389
823.19        75.84283
823.60        75.50046
824.00        74.83737
824.41        74.10831
824.82        73.74415
825.23        73.84123
825.64        74.29359
826.04        74.86889
826.45        75.06881
826.86        74.79096
827.27        74.19428
827.68         73.5382
828.08        73.25101
828.49        73.40273
828.90        73.89301
829.31        74.55955
829.72        75.12696
830.12        75.51434
830.53        75.71069
830.94        75.82448
831.35        75.99139
831.75        76.26212
832.16        76.50344
832.57        76.62983
832.97        76.47475
833.38        76.03572
833.79        75.45971
834.20        74.88131
834.60        74.46003
835.01        74.27805
835.42        74.25118
835.82        74.45595
836.23        74.94272
836.64        75.69139
837.04         76.6981
837.45        77.58764
837.86        77.89703
838.26         77.5211
838.67        76.60818
839.08        75.52232
839.48        74.82068
839.89        74.69522
840.29         74.9813
840.70        75.49683
841.11         75.9502
841.51        76.25285
841.92        76.45813
842.33         76.6023
842.73        76.72086
843.14        76.77932
843.54        76.77774
843.95        76.72573
844.35        76.72559
844.76        76.76857
845.17        76.81667
845.57        76.86544
845.98        76.86156
846.38        76.81104
846.79         76.7445
847.19         76.5868
847.60        76.16258
848.00        75.50365
848.41        74.68705
848.81        74.00389
849.22         73.8858
849.62         74.4358
850.03        75.48036
850.43        76.74019
850.84        77.48949
851.24        77.56728
851.65        77.06656
852.05        76.30067
852.46        75.75417
852.86        75.56934
853.27        75.65337
853.67        75.77593
854.07         75.8307
854.48        75.72594
854.88        75.54899
855.29         75.2978
855.69         75.1767
856.10        75.13765
856.50        75.22912
856.90        75.27291
857.31         75.0545
857.71        74.59302
858.12        73.92532
858.52        73.30827
858.92        73.10394
859.33        73.37753
859.73        74.06571
860.13        74.88932
860.54        75.39951
860.94        75.50967
861.34        75.24404
861.75        74.75724
862.15         74.3932
862.55        74.22407
862.96        74.18471
863.36        74.07114
863.76        73.58548
864.17        72.73064
864.57        71.67802
864.97        70.72237
865.38        70.24651
865.78        70.36106
866.18         70.9115
866.58        71.74117
866.99        72.49327
867.39         73.0397
867.79        73.44198
868.19        73.59895
868.60        73.37005
869.00        72.79013
869.40        71.87128
869.80        71.02655
870.21        70.96881
870.61        71.87216
871.01        73.48389
871.41        75.17074
871.81        75.91747
872.22        75.47783
872.62        74.14543
873.02        72.48119
873.42        71.43351
873.82          71.298
874.22        71.82957
874.63        72.60041
875.03        72.94798
875.43        72.70995
875.83        72.09544
876.23        71.51509
876.63          71.627
877.03        72.54663
877.44        73.96289
877.84         75.3931
878.24        75.97174
878.64        75.52015
879.04        74.39708
879.44        73.04755
879.84        72.11237
880.24        71.76563
880.64        71.77161
881.04        72.08954
881.44          72.648
881.84        73.36266
882.24        74.31295
882.65          75.133
883.05         75.3072
883.45        74.70242
883.85        73.50274
884.25          72.309
884.65        72.05476
885.05        72.89944
885.45        74.51446
885.85        76.38174
886.25        77.59472
886.65        77.83474
887.05         77.3919
887.45         76.4215
887.85        75.22197
888.25        74.03636
888.65        72.83737
889.04        71.86943
889.44        71.53474
889.84        71.80685
890.24        72.63908
890.64        73.72248
891.04        74.36126
891.44        74.32169
891.84         73.8159
892.24        73.17958
892.64         72.8952
893.04        73.06588
893.44        73.51244
893.83        74.15252
894.23        74.76573
894.63        75.26303
895.03         75.6993
895.43        75.99541
895.83        76.02462
896.23        75.78036
896.63        75.27285
897.02        74.64624
897.42        74.21737
897.82        74.05503
898.22        74.13541
898.62        74.28991
899.01        74.22546
899.41        73.87223
899.81        73.33313
900.21        72.85645
900.61        72.82068
901.00        73.28009
901.40        74.09479
901.80        74.92982
902.20        75.24739
902.59         74.9166
902.99        74.10928
903.39        73.15987
903.79        72.56742
904.18        72.46168
904.58        72.72931
904.98        73.13496
905.38        73.32379
905.77        73.18062
906.17        72.81106
906.57        72.42463
906.96        72.37433
907.36        72.69677
907.76        73.30487
908.15        73.89315
908.55        73.83891
908.95        73.10418
909.34        71.90459
909.74        70.80097
910.14        70.51028
910.53         71.2165
910.93        72.63025
911.33        74.39272
911.72        75.94203
912.12        76.96877
912.52         77.6142
912.91        77.94953
913.31        78.09284
913.70        78.11211
914.10        77.91742
914.49         77.4918
914.89        76.82225
915.29        75.97415
915.68        75.03931
916.08        74.23219
916.47         73.7187
916.87        73.58961
917.26        73.75542
917.66        74.13014
918.05        74.58356
918.45        74.98853
918.84        75.41373
919.24        75.70525
919.64        75.76643
920.03        75.59557
920.42        75.19345
920.82        74.75529
921.21        74.49742
921.61         74.4864
922.00        74.67613
922.40        74.95709
922.79        75.22121
923.19        75.37613
923.58        75.47338
923.98        75.49584
924.37        75.42539
924.77        75.27059
925.16        75.05303
925.55        74.81098
925.95        74.62029
926.34        74.52764
926.74        74.49403
927.13        74.53946
927.52        74.65011
927.92        74.81406
928.31         75.0185
928.70        75.18549
929.10        75.17717
929.49        74.96777
929.89        74.54832
930.28        74.07446
930.67        73.74704
931.07        73.62798
931.46        73.69585
931.85         73.7944
932.24        73.68056
932.64        73.33772
933.03        72.87852
933.42        72.50383
933.82         72.5333
934.21        73.05353
934.60        73.86935
934.99        74.83979
935.39        75.72106
935.78        76.44213
936.17         77.0358
936.56        77.23353
936.96        76.65578
937.35        75.35497
937.74        73.55246
938.13        71.87585
938.53         71.1234
938.92        71.37866
939.31        72.47079
939.70        73.92987
940.09        74.80927
940.49        74.77107
940.88         74.1045
941.27         73.2112
941.66        72.70838
942.05        72.76772
942.44        73.22359
942.84        73.81137
943.23        74.16139
943.62        74.09916
944.01        73.74179
944.40        73.42966
944.79        73.65223
945.18         74.4763
945.57        75.74086
945.97        76.87601
946.36        77.16129
946.75        76.32244
947.14        74.64849
947.53        72.81767
947.92        71.83707
948.31         71.9632
948.70         72.9556
949.09        74.28772
949.48        74.98528
949.87         74.7436
950.26        73.86066
950.65        72.87862
951.04        72.55329
951.43        73.04401
951.82        74.12556
952.21         75.3016
952.60        75.69672
952.99        75.07406
953.38         73.7415
953.77        72.35188
954.16        71.75204
954.55        72.10656
954.94        73.24689
955.33        74.59602
955.72        74.93734
956.11          73.903
956.50        71.94316
956.89        69.99561
957.28        69.25885
957.66        69.99659
958.05        71.80807
958.44         73.9892
958.83        75.10048
959.22         74.6583
959.61        73.16006
960.00        71.42201
960.39        70.48791
960.78        70.54443
961.16        71.28957
961.55        72.22547
961.94        72.48026
962.33        71.78927
962.72        70.60117
963.11        69.33741
963.49        68.51298
963.88           68.27
964.27        68.40541
964.66        68.95152
965.04        70.02456
965.43        71.45711
965.82        73.22411
966.21        74.89605
966.60        75.68069
966.98         75.4198
967.37        74.41568
967.76        73.13101
968.15        72.21609
968.53        71.81745
968.92        71.67442
969.31        71.88665
969.69        72.62883
970.08         73.7924
970.47         75.5051
970.86         76.9981
971.24        76.94785
971.63         75.1413
972.02        72.03891
972.40        69.03365
972.79        68.28557
973.17        70.12937
973.56         73.7984
973.95        77.96758
974.33        80.14299
974.72        79.45877
975.11        76.73264
975.49        73.20136
975.88        71.08996
976.26        71.00185
976.65        72.25555
977.04        74.14292
977.42         75.3765
977.81        75.34097
978.19         74.5926
978.58        73.59212
978.96        72.90186
979.35         72.7849
979.74        73.02973
980.12        73.55239
980.51        74.21172
980.89        74.97454
981.28        75.71099
981.66         76.6214
982.05        77.73555
982.43        79.10725
982.82        80.59935
983.20        81.65595
983.59        81.24609
983.97        79.29527
984.35        76.24906
984.74        73.28347
985.12        71.97969
985.51        72.58313
985.89        74.73827
986.28        77.37743
986.66        79.06158
987.04        79.13973
987.43        78.04307
987.81        76.36971
988.20        75.45597
988.58        75.61878
988.96        76.49416
989.35         77.1989
989.73        76.58794
990.12        74.40142
990.50        71.23299
990.88        68.02457
991.27        66.24252
991.65        66.23362
992.03        67.58554
992.42        69.70175
992.80        71.97477
993.18        74.00584
993.56        75.93076
993.95        77.52346
994.33        78.52621
994.71        78.75809
995.10        78.32074
995.48        77.41534
995.86        76.47601
996.24        75.69012
996.63        74.89802
997.01        74.50414
997.39        74.96873
997.77         76.2859
998.15        78.29748
998.54        80.20547
998.92        80.77833
999.30        79.74377
999.68        77.41833
1000.06        74.59493
1000.45        72.81895
1000.83        72.72675
1001.21        73.88981
1001.59        75.80536
1001.97        77.57858
1002.35        78.83543
1002.73        79.84872
1003.12        80.51711
1003.50        80.58491
1003.88         80.1315
1004.26        79.18771
1004.64        78.17249
1005.02        77.87648
1005.40        78.45667
1005.78        79.62801
1006.16        81.01656
1006.54        82.09982
1006.92        82.72789
1007.30        83.04615
1007.69        82.97115
1008.07        82.51093
1008.45        81.67122
1008.83          80.506
1009.21        79.26743
1009.59        78.39568
1009.97        78.01259
1010.35        77.97398
1010.73        78.28964
1011.11        78.90804
1011.49        79.69237
1011.86        80.70276
1012.24        81.27199
1012.62        80.59086
1013.00         78.4958
1013.38        75.05208
1013.76        71.15769
1014.14        68.82748
1014.52        68.83107
1014.90        70.76656
1015.28        73.27984
1015.66        74.09975
1016.04        72.68999
1016.41        69.82153
1016.79        66.57169
1017.17         65.1587
1017.55        66.10702
1017.93        68.19868
1018.31        70.67445
1018.69        73.19175
1019.06        75.96306
1019.44        79.41013
1019.82        83.34399
1020.20         85.7046
1020.58        84.93204
1020.95        81.43428
1021.33        77.17543
1021.71        73.90603
1022.09        71.63844
1022.46        69.82409
1022.84        68.36559
1023.22        66.55618
1023.60        64.74126
1023.97        63.62856
1024.35        63.59409
1024.73        64.92863
