SpectraSmart Spectrum 2.9.0.0
--------- Device Information -----------
Spectrum Name :  反射率_0
Saving Time :  2024/04/30 00:29:31
Spectro-Module Model Name : SE2030-DUVN
Spectro-Module Serial Number : OS361AC55029948
Wavelength Start : 200
Wavelength End : 1025
Wavelength Unit : Wavelength(nm)
Spectrum Unit : Reflectance(%)
-----------Spectrum Setting ------------
Integration Time : 20ms
Average : 10
Boxcar : 0
Background removal :  enabled
linearity correction :  enabled
SC :  disabled
Intensity correction :  disabled
DWT denoise :  enabled
savitzky-golay :  disabled
FFT :  disabled
Running average :  disabled
Kalman :  disabled
High pass :  disabled
---------------BEGIN--------------------
Wavelength(nm)             Reflectance(%)
200.29               0
200.75        92.96647
201.21        81.20409
201.67        70.43264
202.13        64.39455
202.58        64.92022
203.04        71.45985
203.50        82.60298
203.96        94.92995
204.42        105.0537
204.88        111.4399
205.34        111.8702
205.80        105.4202
206.26        95.24614
206.72        84.90837
207.18        75.34341
207.64        65.76215
208.10        55.48843
208.55        43.77217
209.01        33.31129
209.47        31.63533
209.93        39.36995
210.39        51.97546
210.85        63.20165
211.31        68.27555
211.77        67.16901
212.23        60.09436
212.69        48.78201
213.14        43.76107
213.60        49.94192
214.06        61.62428
214.52        71.49514
214.98        74.93613
215.44        72.92248
215.90        67.46132
216.36        61.49375
216.81        60.56055
217.27        67.55094
217.73        82.71687
218.19        104.2397
218.65        119.5055
219.11        119.4055
219.57        108.4532
220.02        95.97028
220.48        88.71366
220.94         85.5863
221.40        84.34196
221.86        82.32098
222.32        75.24888
222.77        64.88832
223.23        56.51203
223.69        51.24741
224.15        48.47768
224.61        47.23783
225.06        46.84704
225.52         47.5699
225.98        49.43581
226.44         51.7436
226.90        53.93617
227.36         55.3851
227.81        55.77574
228.27        55.34282
228.73        54.08955
229.19        52.59603
229.65        52.12378
230.10         52.8368
230.56        54.22604
231.02        55.32493
231.48        55.27742
231.93        54.06881
232.39        52.10842
232.85        50.05101
233.31        49.20452
233.77        49.99611
234.22        52.20189
234.68        54.92411
235.14        56.49373
235.60         56.4704
236.05        55.38303
236.51        54.44034
236.97        55.30152
237.43        58.54609
237.88        64.39494
238.34        72.24925
238.80        79.54334
239.26        83.75607
239.71        84.89327
240.17        84.22652
240.63         84.6727
241.08        87.70577
241.54        93.49506
242.00        103.1786
242.46        114.2546
242.91        121.4997
243.37         122.806
243.83        121.2689
244.28        122.5128
244.74        127.9339
245.20        135.6501
245.66        145.5407
246.11        156.5083
246.57          166.39
247.03         177.588
247.48        183.0249
247.94        169.7969
248.40        144.6528
248.85        118.2929
249.31        101.0571
249.77        96.09703
250.22         101.913
250.68        119.4534
251.14        148.1889
251.59        164.3574
252.05        151.5754
252.51        128.3381
252.96        110.6736
253.42        104.1805
253.88        105.3212
254.33        110.8665
254.79        117.9482
255.25        120.2937
255.70        116.8515
256.16        111.9419
256.62        108.1076
257.07        106.7959
257.53         107.918
257.99        109.9662
258.44        110.9103
258.90        109.1786
259.35         104.803
259.81        100.0835
260.27        96.08191
260.72        93.59899
261.18        92.68883
261.63        92.25352
262.09        91.98167
262.55        91.00652
263.00        89.19475
263.46        87.25822
263.91        85.15196
264.37        83.30679
264.83        81.60548
265.28        79.85756
265.74        78.28918
266.19        76.94685
266.65         75.9547
267.11        75.22378
267.56        74.53345
268.02         73.5998
268.47        72.29713
268.93        70.70662
269.38         68.9903
269.84        67.57088
270.30        66.55619
270.75         65.8195
271.21        65.14349
271.66        64.11604
272.12        62.67664
272.57        60.91195
273.03        59.08661
273.48        57.51395
273.94        56.36632
274.39        55.46732
274.85        54.71905
275.31        53.84117
275.76         52.7546
276.22        51.62601
276.67        50.50024
277.13        49.59285
277.58        48.86156
278.04        48.28149
278.49        47.72161
278.95        47.15614
279.40        46.49363
279.86         45.8443
280.31        45.13809
280.77        44.43439
281.22        43.69878
281.68        42.98321
282.13        42.32055
282.59        41.85016
283.04        41.53979
283.50        41.37345
283.95        41.21604
284.41        40.90311
284.86        40.39687
285.32        39.82103
285.77        39.25766
286.22        38.92586
286.68         38.8676
287.13        38.94688
287.59        39.12273
288.04        39.25454
288.50        39.31944
288.95        39.32108
289.41        39.25516
289.86        39.04268
290.32        38.73959
290.77        38.38358
291.22        38.09873
291.68        38.07333
292.13        38.34252
292.59        38.88578
293.04        39.66931
293.50        40.68995
293.95        41.90767
294.40         43.3327
294.86        44.84961
295.31        46.28722
295.77        47.60284
296.22        48.81514
296.68        50.05582
297.13        51.51422
297.58         53.2314
298.04        55.10526
298.49        57.00025
298.95         58.7281
299.40        60.22789
299.85        61.58397
300.31        62.88569
300.76        64.17439
301.21        65.53103
301.67        66.97677
302.12        68.50734
302.58        70.27045
303.03        72.22384
303.48        74.28611
303.94        76.41867
304.39        78.72639
304.84        80.78859
305.30        82.92649
305.75        84.92373
306.20        86.71513
306.66        88.31873
307.11        89.70339
307.57        91.02242
308.02        92.36369
308.47        93.80936
308.93        95.33162
309.38        96.85995
309.83        98.36762
310.29         99.8263
310.74        101.2225
311.19         102.489
311.65        103.5045
312.10        104.2502
312.55        104.8029
313.00        105.3399
313.46        106.1451
313.91        107.2575
314.36        108.5834
314.82        109.9733
315.27        111.2115
315.72        112.1841
316.18        112.9457
316.63        113.4728
317.08         113.749
317.53        113.8248
317.99        113.7551
318.44        113.6446
318.89        113.6815
319.35        113.9256
319.80        114.3397
320.25         114.943
320.70        115.7465
321.16        116.6762
321.61        117.7574
322.06        118.7634
322.51        119.3471
322.97        119.4217
323.42        119.0835
323.87        118.5758
324.32        118.3288
324.78        118.4451
325.23        118.9003
325.68         119.496
326.13        119.8877
326.59        119.9599
327.04        119.8569
327.49        119.7823
327.94        120.1175
328.39        120.9282
328.85        122.0199
329.30        123.1626
329.75         123.732
330.20        123.5749
330.66        122.8866
331.11         122.044
331.56        121.5675
332.01         121.653
332.46         122.167
332.92        122.9603
333.37        123.9382
333.82        124.9364
334.27        125.9928
334.72        127.0312
335.17        127.9205
335.63        128.5835
336.08        129.0767
336.53        129.3829
336.98        129.5903
337.43        129.7462
337.88        129.8463
338.34        129.9556
338.79        130.1888
339.24         130.566
339.69        131.0928
340.14         131.671
340.59        132.1117
341.05        132.3842
341.50        132.5533
341.95        132.7251
342.40        133.0975
342.85        133.6987
343.30        134.4109
343.75        135.1557
344.20        135.8138
344.66         136.343
345.11        136.8036
345.56        137.0864
346.01          137.01
346.46         136.607
346.91        135.9573
347.36        135.4213
347.81        135.5442
348.26        136.3939
348.72         137.763
349.17         139.262
349.62        140.1382
350.07        140.1806
350.52        139.6409
350.97        138.8246
351.42        138.2047
351.87        137.9421
352.32        137.8826
352.77        138.0128
353.22        138.3238
353.67        138.7439
354.13        139.2502
354.58        139.6661
355.03        139.6831
355.48        139.2258
355.93        138.3745
356.38        137.2544
356.83        136.0759
357.28        134.9329
357.73        133.8015
358.18         132.728
358.63        131.7716
359.08        130.9418
359.53        130.2452
359.98         129.623
360.43        128.9623
360.88        128.2309
361.33        127.4475
361.78        126.6454
362.23        125.8871
362.68        125.1839
363.13        124.5066
363.58        123.8244
364.03        123.0937
364.48         122.301
364.93        121.4601
365.38        120.5954
365.83        119.7495
366.28        118.9397
366.73        118.1587
367.18        117.3894
367.63        116.5979
368.08        115.7753
368.53        114.9391
368.98        114.1134
369.43        113.3294
369.88        112.6119
370.33        111.9734
370.78        111.4002
371.23        110.8751
371.68        110.3794
372.13        109.8721
372.58        109.4033
373.03        109.0578
373.48        108.8125
373.93         108.628
374.38          108.29
374.83        107.4645
375.28        106.1474
375.72        104.4825
376.17        102.8844
376.62        101.7701
377.07        101.2223
377.52        101.0849
377.97        101.1849
378.42        101.2339
378.87        101.1115
379.32        100.8895
379.77        100.5515
380.22        100.0724
380.67        99.45665
381.11        98.68591
381.56        97.84088
382.01        97.09872
382.46        96.52652
382.91        96.12114
383.36        95.78905
383.81        95.36263
384.26        94.80892
384.71        94.17292
385.15        93.57151
385.60        93.25271
386.05         93.2131
386.50        93.34915
386.95        93.46424
387.40        93.26401
387.85        92.71045
388.29        91.88548
388.74        91.06583
389.19         90.3881
389.64        89.89548
390.09        89.49538
390.54        89.20396
390.98        89.06017
391.43        89.08063
391.88        89.16734
392.33        89.13579
392.78        88.94528
393.23        88.52502
393.67        87.46091
394.12        86.12898
394.57        85.88995
395.02        85.57637
395.47        85.89326
395.91         86.2664
396.36        86.40482
396.81        86.20506
397.26        85.77505
397.71        85.26826
398.15        84.80387
398.60        84.52257
399.05        84.40565
399.50        84.34212
399.95        84.08493
400.39        83.40267
400.84        83.36526
401.29           83.77
401.74        83.80611
402.18         83.3791
402.63        82.79839
403.08        82.27379
403.53        82.02544
403.97         82.0846
404.42        82.31561
404.87        82.54218
405.32        82.49323
405.76        82.09637
406.21        81.58636
406.66        81.05537
407.11        80.44517
407.55        79.96547
408.00        79.99665
408.45        80.46619
408.90        80.96828
409.34        81.27165
409.79        81.09798
410.24        80.63245
410.68        80.54787
411.13        80.89341
411.58        81.25773
412.03        81.47001
412.47        81.44627
412.92        81.11304
413.37        80.55865
413.81        79.90891
414.26         79.4297
414.71        79.14742
415.15        79.01166
415.60        78.97582
416.05        79.00835
416.49        79.08727
416.94        79.22783
417.39        79.35808
417.83        79.33877
418.28        79.15502
418.73         78.8336
419.17        78.50639
419.62        78.40859
420.07        78.55478
420.51        78.84428
420.96        79.15257
421.41        79.15303
421.85        78.76604
422.30        78.42324
422.74        78.11747
423.19        77.42197
423.64        76.58817
424.08         76.7828
424.53        77.84195
424.98        78.32132
425.42        78.18936
425.87         78.2747
426.31        78.57226
426.76        78.09561
427.21        76.93668
427.65         76.9221
428.10         77.7635
428.54        77.60661
428.99        76.61313
429.44        76.12952
429.88        76.22601
430.33        76.63586
430.77        76.75967
431.22        77.08498
431.66        77.35214
432.11         77.1209
432.56        76.51836
433.00        76.22838
433.45        76.48428
433.89         76.8702
434.34        77.12579
434.78        78.61169
435.23        76.49141
435.67        75.76122
436.12        75.37218
436.57        75.40361
437.01        75.63802
437.46        76.55905
437.90        76.31777
438.35        76.26604
438.79        77.06925
439.24        77.16529
439.68        76.95367
440.13        76.85894
440.57        76.94585
441.02        76.99931
441.46         76.9867
441.91        77.05231
442.35        77.06794
442.80        77.16693
443.24         77.2289
443.69        76.94339
444.13        76.40262
444.58        76.09335
445.02        76.00646
445.47         75.9479
445.91        75.90765
446.36        75.98109
446.80        76.13364
447.24        76.35782
447.69        76.58039
448.13        76.65871
448.58        76.58822
449.02        76.38141
449.47        76.16238
449.91         76.0902
450.36        76.21304
450.80        76.46053
451.25        76.73103
451.69        76.82721
452.13        76.71307
452.58        76.47894
453.02        76.21519
453.47        76.05901
453.91         76.0278
454.36         76.2391
454.80        76.27641
455.24        76.43342
455.69        76.50595
456.13        76.42657
456.58        76.03349
457.02        75.67796
457.46        75.72263
457.91        75.67936
458.35        75.58724
458.79        75.54527
459.24        75.58694
459.68        75.56697
460.13        75.45922
460.57        75.68528
461.01        75.49714
461.46        75.33434
461.90        75.04401
462.34        75.21117
462.79        75.52876
463.23        75.32922
463.68        74.65498
464.12        74.26563
464.56        74.20523
465.01        74.09213
465.45        73.90539
465.89        73.85349
466.34        73.87814
466.78         74.3405
467.22        74.18122
467.67        74.16093
468.11        73.98975
468.55        73.63628
468.99        73.20686
469.44        72.90211
469.88        72.77804
470.32         72.7927
470.77        72.86208
471.21        72.86829
471.65        72.76247
472.10        72.59914
472.54        72.45025
472.98        72.43659
473.42        72.55991
473.87        72.86208
474.31        73.19357
474.75        73.11024
475.20        72.70786
475.64        72.66282
476.08        72.96875
476.52        72.83643
476.97        72.21217
477.41        72.18193
477.85        71.95229
478.29        71.24303
478.74          72.813
479.18        72.50123
479.62        71.48046
480.06        71.16188
480.50        71.62571
480.95        71.74776
481.39        72.57677
481.83        71.77054
482.27         72.5009
482.72        72.45644
483.16        72.33497
483.60         72.3773
484.04        72.52477
484.48        72.81175
484.93        73.00227
485.37         72.9415
485.81        71.42692
486.25        71.32633
486.69        72.33747
487.14        72.03686
487.58        71.17892
488.02        71.50334
488.46         71.6069
488.90        71.69293
489.34        71.45513
489.79        72.15939
490.23        71.05636
490.67         71.1252
491.11        71.44673
491.55        71.28598
491.99        70.71748
492.43        70.52113
492.88         70.7555
493.32        71.04292
493.76        71.27502
494.20        71.44122
494.64        71.49287
495.08        71.46199
495.52        71.38694
495.96        71.24671
496.41        71.09211
496.85        71.23866
497.29        71.27433
497.73        71.42601
498.17        70.87638
498.61        70.94782
499.05        70.38696
499.49        70.51019
499.93         70.8447
500.37        70.79219
500.82        70.39565
501.26        70.24084
501.70        70.34864
502.14        70.58346
502.58        70.49604
503.02        70.59084
503.46        70.73487
503.90        70.88646
504.34         71.0313
504.78        71.16358
505.22        71.27345
505.66        71.33985
506.10        71.34163
506.54        71.32623
506.98        71.31123
507.42        71.15451
507.86        70.80819
508.30         70.9948
508.74        70.43414
509.18        70.19199
509.62        69.97099
510.06        69.93619
510.50        70.09548
510.94        70.41386
511.38         70.7827
511.82        70.98394
512.26        70.96214
512.70        70.77651
513.14        70.51759
513.58        70.32996
514.02        70.25876
514.46        70.26135
514.90        70.30334
515.34        70.33216
515.78        70.32761
516.22        70.30984
516.66        70.29266
517.10        70.28941
517.54        70.30115
517.98        70.31805
518.42        70.31564
518.86        70.26031
519.30        70.15147
519.74        70.00681
520.18         69.8704
520.62        69.80582
521.06        69.83095
521.50        69.93421
521.93        70.08277
522.37        70.19669
522.81        70.26087
523.25        70.28382
523.69        70.30213
524.13        70.37719
524.57        70.51321
525.01        70.68018
525.45        70.81458
525.89        70.81689
526.32        70.66125
526.76         70.4132
527.20        70.13552
527.64        69.92917
528.08        69.82357
528.52        69.78654
528.96        69.80278
529.40        69.84552
529.83        69.89198
530.27          69.961
530.71        70.01288
531.15        69.99005
531.59        69.88696
532.03        69.71848
532.46        69.53585
532.90        69.45296
533.34         69.4846
533.78        69.60091
534.22        69.74544
534.66        69.82863
535.09         69.8232
535.53        69.77264
535.97        69.70103
536.41        69.66987
536.85        69.69012
537.28        69.71674
537.72         69.7304
538.16        69.74985
538.60        69.64477
539.04        69.59175
539.47        69.53013
539.91        69.33428
540.35        69.06599
540.79        69.05904
541.22        69.26714
541.66        69.34795
542.10        69.27666
542.54         69.2479
542.97        69.28371
543.41        69.35497
543.85        69.45515
544.29         69.5988
544.72        69.71336
545.16        69.72626
545.60        69.62289
546.04        69.39835
546.47        69.15169
546.91        69.15176
547.35          69.384
547.79        69.56801
548.22        69.61372
548.66        69.75607
549.10        69.98222
549.53        69.93922
549.97        69.54622
550.41        70.11361
550.84         69.5565
551.28        69.45343
551.72        69.19055
552.15        69.39148
552.59         69.1946
553.03        69.26987
553.46        69.34884
553.90        69.41803
554.34        69.44745
554.77        69.49133
555.21        69.53608
555.65        69.43874
556.08        69.24258
556.52        69.17966
556.96         69.2454
557.39        69.33968
557.83        69.43938
558.27        69.47105
558.70        69.45039
559.14        69.49979
559.57        69.57319
560.01        69.60115
560.45        69.58759
560.88        69.35939
561.32        69.31084
561.75         69.3433
562.19        69.51825
562.63        69.42329
563.06        69.10265
563.50        69.09998
563.93         69.3858
564.37        69.28448
564.80        69.33842
565.24        69.31182
565.68        69.35307
566.11        69.34727
566.55        69.31173
566.98        69.22099
567.42        69.18022
567.85        69.18546
568.29        69.23145
568.72        69.51978
569.16        70.11009
569.60        69.52756
570.03         69.8855
570.47        70.09196
570.90         69.8741
571.34        69.71765
571.77        69.80177
572.21        69.85642
572.64        69.95795
573.08         69.8321
573.51        69.51766
573.95         69.6828
574.38         70.2631
574.82        69.76081
575.25        70.02776
575.69        70.08252
576.12        69.37296
576.56        69.33636
576.99        69.48084
577.42        69.66918
577.86        69.25357
578.29        69.26767
578.73        70.03622
579.16        69.27238
579.60        69.71357
580.03        69.33062
580.47         69.7816
580.90        70.19638
581.33        69.38402
581.77        69.56606
582.20        69.85592
582.64        70.15372
583.07        69.63454
583.51         69.2561
583.94          69.123
584.37        68.89225
584.81        68.80092
585.24        69.22343
585.68        69.79383
586.11        70.41955
586.54        69.24193
586.98         69.2821
587.41        69.84306
587.85        70.40936
588.28        70.05981
588.71        70.15821
589.15        69.73219
589.58        69.77402
590.01         69.0614
590.45        69.09846
590.88        69.56455
591.31        69.92606
591.75        69.89572
592.18        69.83101
592.61        70.02996
593.05        68.85299
593.48        69.50385
593.91        70.56277
594.35        68.99736
594.78        68.88035
595.21        69.00208
595.65        69.35889
596.08        68.67551
596.51        68.93787
596.94        69.40101
597.38         69.6293
597.81        69.40987
598.24        69.40218
598.68        69.13361
599.11        68.86852
599.54        69.56081
599.97        69.84196
600.41        68.76414
600.84        69.14503
601.27         69.0071
601.70        69.34574
602.14        69.49453
602.57        69.21378
603.00        68.61935
603.43        68.54082
603.87        68.79191
604.30         69.1144
604.73        68.94039
605.16         68.9083
605.60        69.00193
606.03        69.04485
606.46        69.01148
606.89        69.14852
607.32        69.05108
607.76        69.07845
608.19        69.17634
608.62        69.06528
609.05        68.77855
609.48        69.32198
609.92        69.36067
610.35        69.23429
610.78        69.41863
611.21        68.60626
611.64        68.67616
612.07        68.83678
612.50        69.08384
612.94        69.14995
613.37        69.39836
613.80        69.22783
614.23        69.53172
614.66        69.47571
615.09        69.50855
615.52        69.38998
615.96        69.15002
616.39        69.18052
616.82        69.18497
617.25        68.61605
617.68        68.37151
618.11        68.45584
618.54        68.98198
618.97        69.02029
619.40        68.66458
619.84        68.39581
620.27        68.79707
620.70        69.12525
621.13        69.46386
621.56        68.99606
621.99        69.15652
622.42        68.64931
622.85         69.1521
623.28        68.57665
623.71        69.66601
624.14        68.55521
624.57         69.0041
625.00        68.76151
625.43        68.73745
625.86        68.60081
626.29        68.49635
626.72        68.46183
627.15        68.50031
627.58          68.738
628.01        69.04411
628.44        68.91122
628.87        68.47066
629.30        68.47293
629.73        68.86137
630.16        69.28651
630.59        68.93799
631.02        69.04955
631.45        69.08817
631.88        69.11473
632.31        69.02908
632.74        68.91303
633.17        68.78667
633.60        68.66985
634.03        68.57951
634.46        68.49061
634.89        68.42889
635.32        68.44855
635.75        68.54797
636.18        68.70216
636.61        68.84833
637.04        68.89894
637.47        68.85127
637.89        68.69012
638.32        68.44284
638.75        68.36716
639.18        68.52586
639.61        68.17459
640.04        68.52187
640.47        68.54247
640.90        68.58861
641.33        68.65682
641.76         68.7201
642.18        68.71078
642.61        68.58846
643.04        68.38597
643.47        68.20151
643.90         68.1735
644.33         68.3191
644.76        68.68156
645.18        69.10522
645.61        69.14005
646.04        68.68029
646.47        68.59686
646.90        68.82875
647.33        68.81989
647.75        68.55637
648.18        68.38953
648.61        68.37926
649.04        68.42275
649.47        68.52747
649.89        68.83128
650.32         69.1828
650.75        69.21792
651.18        68.99902
651.61        68.86391
652.03        68.91648
652.46        69.22023
652.89        69.53587
653.32        69.44054
653.74        69.09415
654.17        68.50027
654.60        67.99583
655.03        69.66714
655.46        67.61655
655.88        68.98296
656.31        71.26001
656.74        72.54042
657.16        71.27316
657.59        68.76055
658.02        68.64674
658.45        69.74589
658.87        69.89283
659.30        68.97902
659.73        69.30154
660.15        69.57018
660.58        69.13995
661.01        69.10872
661.44        69.03331
661.86        68.61285
662.29        67.99577
662.72        68.13446
663.14        68.88837
663.57        68.86347
664.00        68.15903
664.42        67.96592
664.85        68.33408
665.27        68.56836
665.70        68.60308
666.13        68.69185
666.55        68.83064
666.98        68.93795
667.41        69.00644
667.83        69.02389
668.26        68.97742
668.69        68.88033
669.11        68.78137
669.54        68.72909
669.96        68.73143
670.39        68.86514
670.82        69.04296
671.24        68.91575
671.67        68.55466
672.09        68.48397
672.52        68.71162
672.94        68.89778
673.37        68.50426
673.80        68.98405
674.22        68.78674
674.65         68.9704
675.07        69.09364
675.50        69.07655
675.92        68.95911
676.35        68.91818
676.77        68.98685
677.20        69.04694
677.62        69.07609
678.05        69.07793
678.47        69.04359
678.90        68.99013
679.32        68.91859
679.75        68.84054
680.17        68.75629
680.60        68.67068
681.02        68.61616
681.45        68.62329
681.87        68.69408
682.30        68.88055
682.72        69.12971
683.15        69.10342
683.57        68.89485
684.00        69.00305
684.42        69.36718
684.85        69.51489
685.27        69.42782
685.70        69.27054
686.12        69.14776
686.54         69.4155
686.97        69.94309
687.39        70.14114
687.82        69.94061
688.24        69.82767
688.66        69.80759
689.09        69.57841
689.51        69.20768
689.94        68.98077
690.36        68.93571
690.78        68.95705
691.21        69.02734
691.63        69.21603
692.06        69.45085
692.48        69.53573
692.90        69.47295
693.33        69.44752
693.75        69.47059
694.17        69.40772
694.60        69.29436
695.02        69.25217
695.44        69.28822
695.87        69.43027
696.29        69.61089
696.71        69.54024
697.14        69.27302
697.56        69.16781
697.98        69.25385
698.41        69.29482
698.83        69.28164
699.25        69.37342
699.68        69.51598
700.10        69.59058
700.52        69.55875
700.94        69.46925
701.37        69.33363
701.79        69.18807
702.21         69.0471
702.64        68.92033
703.06        68.83615
703.48        68.84995
703.90         68.9703
704.33        69.18935
704.75        69.44004
705.17        69.67715
705.59        69.84808
706.01        69.96381
706.44        70.02363
706.86        70.03469
707.28          70.005
707.70        69.94542
708.12         69.8918
708.55        69.86968
708.97        69.89687
709.39        69.99306
709.81        70.14198
710.23        70.29515
710.66        70.42612
711.08        70.56904
711.50        70.68703
711.92        70.75051
712.34        70.75719
712.76        70.71135
713.19        70.62679
713.61        70.57985
714.03        70.56926
714.45        70.58522
714.87        70.61771
715.29        70.64603
715.71        70.66107
716.13        70.66846
716.56        70.64642
716.98        70.64811
717.40         70.6484
717.82         70.6403
718.24        70.62319
718.66        70.59818
719.08        70.56617
719.50        70.53084
719.92          70.492
720.34        70.44666
720.76        70.39797
721.19        70.34258
721.61        70.30418
722.03        70.29362
722.45        70.31212
722.87        70.35001
723.29        70.39785
723.71        70.44073
724.13         70.4705
724.55         70.4901
724.97        70.49125
725.39        70.46026
725.81        70.40256
726.23        70.33115
726.65         70.2677
727.07        70.24775
727.49        70.27803
727.91        70.33883
728.33        70.42975
728.75        70.54761
729.17        70.67973
729.59        70.82891
730.01        70.93943
730.43        70.92161
730.85        70.77293
731.27        70.53101
731.69        70.30233
732.10        70.25799
732.52        70.43295
732.94        70.77483
733.36        71.18828
733.78        71.50577
734.20        71.66274
734.62        71.67934
735.04        71.61385
735.46        71.61111
735.88        71.68246
736.30        71.68195
736.72        71.59132
737.13        71.54506
737.55        71.47861
737.97        71.24607
738.39         70.9332
738.81        70.73558
739.23        70.72827
739.65        71.02281
740.06        71.44215
740.48        71.60503
740.90         71.4474
741.32        71.15982
741.74        70.86276
742.16        70.71959
742.57        70.80305
742.99        70.97011
743.41        71.16878
743.83         71.4865
744.25        71.80247
744.67        71.72326
745.08        71.35854
745.50        71.25929
745.92        71.48518
746.34        71.71992
746.75        71.89244
747.17        72.02007
747.59        72.07743
748.01        72.08195
748.42        72.03566
748.84        71.91886
749.26        71.77246
749.68        71.57207
750.09        71.37431
750.51        71.43281
750.93        71.66827
751.35        71.70278
751.76        71.55594
752.18        71.56054
752.60         71.7214
753.01        71.84182
753.43        71.87006
753.85        71.85847
754.27        71.81799
754.68        71.76808
755.10         71.7338
755.52        71.77364
755.93        71.87205
756.35         71.9873
756.77         72.1618
757.18        72.36378
757.60        72.56628
758.02        73.06413
758.43        73.61024
758.85        73.14716
759.26        71.96956
759.68        71.70707
760.10        72.36406
760.51        72.65779
760.93        72.51802
761.34        72.62657
761.76        72.90619
762.18         73.0191
762.59        72.90171
763.01         72.3526
763.42        71.60425
763.84        71.23775
764.26        71.35107
764.67         71.6405
765.09        71.99152
765.50        72.29121
765.92        72.47103
766.33        72.50886
766.75        72.37604
767.16        72.31783
767.58        72.33427
768.00        72.25405
768.41        72.11752
768.83        72.27328
769.24        72.59798
769.66        72.51328
770.07        72.10593
770.49        72.01868
770.90        72.28919
771.32        72.61501
771.73        72.90112
772.15        72.99699
772.56        72.87196
772.97        72.83968
773.39        72.48297
773.80        72.45422
774.22         72.6078
774.63        72.93956
775.05        73.26964
775.46        73.40589
775.88        73.26917
776.29        72.96743
776.70         72.6093
777.12        72.38959
777.53        72.37147
777.95        72.47548
778.36        72.67358
778.77        72.88426
779.19        73.06751
779.60        73.34906
780.02        73.63171
780.43        73.68451
780.84        73.56895
781.26        73.51569
781.67        73.59769
782.09        73.97221
782.50        74.45837
782.91        74.34296
783.33         73.6932
783.74        73.34611
784.15        73.35979
784.57        73.25518
784.98         73.0438
785.39        72.98317
785.81        73.08994
786.22        73.28914
786.63        73.56506
787.04        73.89283
787.46        74.24461
787.87        74.58568
788.28        74.88734
788.70        75.10227
789.11        75.20602
789.52        75.22816
789.93        75.15517
790.35        74.96467
790.76        74.69563
791.17        74.37588
791.58        74.11328
792.00         74.0527
792.41        74.24004
792.82        74.61758
793.23        75.07957
793.65        75.42249
794.06        75.59238
794.47        75.67007
794.88        75.65058
795.29         75.4928
795.71        75.18663
796.12        74.79447
796.53        74.44494
796.94           74.38
797.35        74.65825
797.76        75.21277
798.18        75.84327
798.59        76.26181
799.00        76.35712
799.41        76.21159
799.82        75.92348
800.23           75.67
800.64         75.5259
801.06        75.42134
801.47        75.39526
801.88        75.43337
802.29        75.51821
802.70        75.64346
803.11        75.79651
803.52        75.94151
803.93        76.06829
804.34        76.19057
804.75        76.23536
805.17        76.14793
805.58        75.97236
805.99        75.53535
806.40        75.04111
806.81        75.26505
807.22        76.04809
807.63        76.26588
808.04        75.91711
808.45        75.94147
808.86        76.36413
809.27        76.59998
809.68         76.5752
810.09        76.48836
810.50        76.34777
810.91        76.09181
811.32          75.843
811.73        75.80466
812.14        76.01043
812.55        76.41753
812.96        76.87064
813.37         77.0634
813.78        76.92032
814.19        76.56371
814.60        76.13554
815.01        75.83386
815.42        75.71614
815.83        75.70853
816.24        75.82453
816.65        76.08488
817.05        76.45197
817.46        76.87054
817.87        77.22421
818.28        77.28143
818.69        77.01424
819.10        76.48988
819.51         75.8745
819.92        75.49531
820.33        75.46384
820.74        75.67493
821.14         76.0413
821.55        76.42678
821.96        76.76008
822.37        77.09904
822.78        77.34177
823.19        77.30408
823.60        76.96015
824.00        76.34447
824.41        75.68301
824.82        75.37537
825.23        75.50382
825.64        75.98487
826.04        76.58231
826.45        76.77647
826.86        76.46749
827.27         75.8194
827.68        75.11369
828.08        74.81928
828.49        75.01195
828.90         75.5741
829.31        76.33052
829.72        76.97949
830.12        77.43044
830.53        77.68764
830.94        77.83502
831.35         77.9669
831.75        78.13372
832.16        78.20259
832.57        78.17477
832.97        78.03322
833.38         77.7908
833.79        77.53403
834.20        77.25883
834.60        76.91625
835.01        76.55482
835.42        76.16893
835.82        75.94317
836.23        76.10773
836.64        76.71489
837.04        77.71678
837.45        78.72127
837.86        79.23203
838.26        79.10194
838.67        78.46716
839.08         77.6431
839.48        77.10999
839.89        77.04305
840.29        77.30263
840.70        77.70039
841.11        77.94745
841.51        77.98143
841.92        77.86027
842.33        77.73998
842.73        77.85141
843.14        78.19213
843.54        78.70787
843.95         79.2188
844.35        79.51656
844.76        79.51552
845.17        79.25978
845.57        78.91096
845.98        78.69623
846.38        78.69923
846.79        78.85973
847.19        78.98719
847.60        78.70956
848.00        77.99866
848.41        77.00896
848.81        76.10052
849.22        75.79534
849.62        76.23476
850.03        77.22147
850.43        78.46733
850.84        79.23442
851.24        79.35162
851.65        78.90024
852.05        78.21599
852.46        77.81005
852.86        77.80298
853.27        78.08131
853.67        78.31647
854.07        78.27862
854.48        77.86849
854.88        77.21356
855.29        76.44194
855.69         76.0484
856.10        76.09079
856.50        76.53226
856.90        77.05214
857.31        77.21134
857.71        76.95311
858.12        76.37315
858.52        75.73548
858.92        75.41577
859.33        75.50714
859.73         75.9408
860.13        76.50952
860.54        76.89405
860.94        77.04474
861.34        76.96688
861.75        76.75388
862.15        76.62602
862.55        76.60332
862.96        76.64293
863.36         76.5567
863.76        76.07974
864.17        75.22923
864.57        74.16219
864.97        73.17524
865.38         72.6558
865.78        72.72233
866.18        73.23224
866.58        74.04291
866.99         74.8175
867.39        75.43115
867.79         75.9208
868.19        76.17645
868.60        76.04723
869.00        75.55896
869.40        74.73328
869.80        73.93227
870.21        73.78592
870.61         74.4688
871.01        75.75854
871.41        77.14278
871.81        77.79764
872.22        77.50769
872.62        76.50115
873.02        75.20421
873.42        74.33702
873.82        74.13515
874.22        74.43469
874.63         74.8912
875.03        74.97096
875.43        74.56036
875.83        73.82611
876.23        73.19915
876.63        73.37068
877.03        74.45337
877.44        76.14291
877.84        77.87003
878.24        78.61601
878.64        78.16779
879.04        76.91218
879.44        75.41222
879.84        74.49395
880.24         74.3604
880.64        74.71811
881.04        75.38943
881.44        76.07803
881.84          76.642
882.24        77.22317
882.65        77.59783
883.05        77.50966
883.45        76.89895
883.85         75.8666
884.25        74.87335
884.65        74.64441
885.05        75.28519
885.45        76.53195
885.85        77.95905
886.25        78.81414
886.65        78.83919
887.05        78.29103
887.45        77.27293
887.85        75.99743
888.25        74.69561
888.65        73.38507
889.04        72.36716
889.44          72.118
889.84        72.61861
890.24        73.78809
890.64        75.25453
891.04        76.18664
891.44         76.2778
891.84        75.76273
892.24        75.02276
892.64        74.60939
893.04        74.65232
893.44        74.96504
893.83        75.46594
894.23        75.93743
894.63        76.31018
895.03        76.66246
895.43        76.94953
895.83        77.08611
896.23        77.06516
896.63        76.87051
897.02        76.59971
897.42        76.49403
897.82        76.58834
898.22        76.86554
898.62        77.15015
899.01        77.14912
899.41        76.79808
899.81        76.19612
900.21        75.62606
900.61        75.52228
901.00        75.95358
901.40        76.77682
901.80         77.6238
902.20        77.89348
902.59        77.44698
902.99        76.48467
903.39         75.3883
903.79        74.72783
904.18        74.64407
904.58        74.99341
904.98        75.50637
905.38        75.77265
905.77         75.6628
906.17        75.31155
906.57        74.92644
906.96        74.85798
907.36        75.15021
907.76        75.70431
908.15        76.27322
908.55        76.33553
908.95        75.85329
909.34        74.99474
909.74        74.19906
910.14        73.98993
910.53        74.52615
910.93        75.60567
911.33          76.971
911.72        78.22915
912.12        79.12764
912.52         79.7392
912.91        80.16771
913.31        80.57645
913.70        80.99538
914.10        81.31123
914.49        81.29383
914.89        80.60487
915.29        79.27953
915.68        77.52993
916.08        75.85051
916.47        74.85159
916.87        74.73481
917.26        75.28096
917.66        76.21363
918.05        77.07858
918.45        77.63278
918.84        78.03544
919.24        78.19696
919.64        78.13813
920.03        77.90194
920.42        77.43156
920.82        76.91228
921.21        76.55806
921.61          76.438
922.00        76.53896
922.40        76.75431
922.79        76.96426
923.19        77.08624
923.58        77.17812
923.98        77.25372
924.37        77.34866
924.77        77.46168
925.16        77.56596
925.55         77.6474
925.95        77.69444
926.34        77.72942
926.74        77.76208
927.13        77.77817
927.52        77.71668
927.92        77.58241
928.31        77.35982
928.70        77.16725
929.10        77.18388
929.49        77.42767
929.89        77.80826
930.28        78.13779
930.67        78.00809
931.07        77.36252
931.46        76.40792
931.85        75.40515
932.24        74.73149
932.64        74.51485
933.03        74.66675
933.42        75.15768
933.82        75.90633
934.21        76.82635
934.60        77.81602
934.99        78.76893
935.39        79.49762
935.78        79.98132
936.17        80.23455
936.56        80.01261
936.96        79.01859
937.35        77.36187
937.74        75.27602
938.13        73.47479
938.53        72.84614
938.92        73.46902
939.31        75.16782
939.70        77.27607
940.09        78.46099
940.49        78.27367
940.88        77.09059
941.27        75.62506
941.66        74.96568
942.05        75.36493
942.44         76.5223
942.84        77.85757
943.23         78.4197
943.62        77.87509
944.01        76.57566
944.40        75.20452
944.79        74.73237
945.18        75.35849
945.57        76.78059
945.97        78.31559
946.36        79.03614
946.75        78.56303
947.14        77.24418
947.53        75.72999
947.92        74.98902
948.31        75.26985
948.70        76.28845
949.09        77.55733
949.48        78.20815
949.87        77.95845
950.26        77.09348
950.65        76.07466
951.04        75.51819
951.43         75.5759
951.82        76.08979
952.21        76.70261
952.60        76.80383
952.99        76.24077
953.38         75.2203
953.77        74.27718
954.16        74.11072
954.55        74.84715
954.94         76.3765
955.33        78.07702
955.72          78.614
956.11        77.58983
956.50        75.47697
956.89        73.36788
957.28        72.69656
957.66         73.7725
958.05         76.1334
958.44        78.95698
958.83        80.52591
959.22        80.23329
959.61        78.66507
960.00        76.72166
960.39        75.55143
960.78        75.38521
961.16        75.89848
961.55        76.62671
961.94        76.80315
962.33        76.18884
962.72        75.19527
963.11        74.18724
963.49        73.59592
963.88        73.52916
964.27        73.78958
964.66        74.35011
965.04        75.23647
965.43        76.26665
965.82        77.45071
966.21        78.48087
966.60        78.79877
966.98        78.32902
967.37        77.32226
967.76         76.1558
968.15        75.34453
968.53        74.99221
968.92        74.87851
969.31         75.0868
969.69        75.76622
970.08        76.80338
970.47        78.31441
970.86        79.60732
971.24        79.50528
971.63        77.82419
972.02        74.98817
972.40        72.27202
972.79        71.66798
973.17        73.48398
973.56        77.00733
973.95        81.02261
974.33        83.22288
974.72        82.79745
975.11        80.51173
975.49         77.4891
975.88        75.78557
976.26        75.94387
976.65        77.27478
977.04        79.16776
977.42        80.51287
977.81         80.7205
978.19        80.31491
978.58        79.51955
978.96        78.52551
979.35        77.56505
979.74        76.57168
980.12         75.8765
980.51         76.0496
980.89         77.2356
981.28        79.06983
981.66        81.34781
982.05        83.37231
982.43        84.96436
982.82        86.22234
983.20        86.69336
983.59        85.56202
983.97        82.92339
984.35        79.10921
984.74        75.64762
985.12        74.64654
985.51        76.35303
985.89        80.28151
986.28        84.68124
986.66         86.9306
987.04        86.10788
987.43        82.96138
987.81        78.90143
988.20        76.73186
988.58        77.25015
988.96        79.69254
989.35        82.49945
989.73        83.37424
990.12        81.63583
990.50         78.1731
990.88        74.24488
991.27        71.83716
991.65        71.47885
992.03        72.59183
992.42         74.3763
992.80        75.92758
993.18        76.81973
993.56        77.36306
993.95        77.71391
994.33        78.28957
994.71        79.09163
995.10        79.93813
995.48        80.59483
995.86        80.89385
996.24        80.82537
996.63        80.36031
997.01        79.89356
997.39        79.88922
997.77        80.43748
998.15        81.41917
998.54         82.2877
998.92        82.19765
999.30         80.9782
999.68        78.89693
1000.06        76.65311
1000.45        75.53079
1000.83        76.01649
1001.21        77.70174
1001.59        79.97541
1001.97        81.80598
1002.35         82.8039
1002.73        83.25513
1003.12        83.23344
1003.50        82.77067
1003.88        82.06305
1004.26        81.15045
1004.64        80.34624
1005.02        80.24457
1005.40        80.91962
1005.78        82.05356
1006.16          83.493
1006.54        85.04797
1006.92         86.6136
1007.30        88.33022
1007.69        89.53028
1008.07        89.06049
1008.45        86.56421
1008.83        82.37808
1009.21        77.98498
1009.59        75.88226
1009.97        76.68233
1010.35        79.65257
1010.73        83.47688
1011.11        85.88591
1011.49        86.16167
1011.86        85.09905
1012.24        82.99337
1012.62        80.48617
1013.00        77.88145
1013.38        74.84084
1013.76        71.95036
1014.14        70.59219
1014.52        71.21426
1014.90        73.62286
1015.28        76.61612
1015.66        78.15147
1016.04        77.71575
1016.41        75.88414
1016.79        73.37488
1017.17        71.84981
1017.55        71.91432
1017.93        72.87345
1018.31        74.33372
1018.69        76.18636
1019.06        78.63827
1019.44        81.95246
1019.82        86.27113
1020.20        90.18076
1020.58        92.00138
1020.95        91.51506
1021.33        89.58475
1021.71        87.19583
1022.09        84.42422
1022.46        80.67268
1022.84        76.27192
1023.22         72.5779
1023.60        71.00376
1023.97        71.52377
1024.35        73.17693
1024.73        74.76617
