SpectraSmart Spectrum 2.9.0.0
--------- Device Information -----------
Spectrum Name :  反射率_0
Saving Time :  2024/04/30 00:25:13
Spectro-Module Model Name : SE2030-DUVN
Spectro-Module Serial Number : OS361AC55029948
Wavelength Start : 200
Wavelength End : 1025
Wavelength Unit : Wavelength(nm)
Spectrum Unit : Reflectance(%)
-----------Spectrum Setting ------------
Integration Time : 20ms
Average : 10
Boxcar : 0
Background removal :  enabled
linearity correction :  enabled
SC :  disabled
Intensity correction :  disabled
DWT denoise :  enabled
savitzky-golay :  disabled
FFT :  disabled
Running average :  disabled
Kalman :  disabled
High pass :  disabled
---------------BEGIN--------------------
Wavelength(nm)             Reflectance(%)
200.29               0
200.75        84.19324
201.21        73.55393
201.67        64.02256
202.13        60.70425
202.58        65.71864
203.04        78.34001
203.50         95.4127
203.96        109.5507
204.42        116.0546
204.88        115.1301
205.34         107.257
205.80        96.04321
206.26        85.20176
206.72        75.57475
207.18        67.97203
207.64        61.97985
208.10        56.62977
208.55        51.64328
209.01        46.64166
209.47        42.56809
209.93        40.41985
210.39        40.17501
210.85          40.821
211.31        41.40909
211.77        41.82338
212.23        42.03812
212.69        43.33521
213.14        48.62884
213.60        56.08631
214.06        63.15403
214.52        67.28038
214.98        67.35022
215.44        64.32879
215.90        58.94423
216.36        53.35968
216.81        51.94802
217.27         57.1104
217.73        69.36758
218.19        88.12839
218.65        104.1274
219.11        109.1389
219.57        105.0607
220.02        98.25035
220.48        94.61273
220.94        93.87678
221.40        94.44729
221.86        94.39391
222.32         90.1107
222.77        82.28581
223.23        75.35842
223.69        70.52107
224.15        67.35125
224.61        65.10564
225.06        63.43212
225.52        62.39375
225.98        62.18026
226.44         62.7846
226.90        63.73621
227.36        64.96355
227.81        66.66594
228.27        68.93835
228.73        71.60964
229.19        74.01962
229.65        74.61459
230.10        73.18649
230.56        71.02601
231.02        68.78556
231.48        66.95098
231.93        65.41776
232.39        63.98268
232.85         62.9541
233.31        63.06507
233.77        64.44456
234.22        67.11537
234.68        69.87906
235.14        70.56967
235.60        68.76024
236.05         65.1273
236.51        61.59253
236.97        60.68931
237.43        63.05277
237.88        68.71674
238.34        76.54005
238.80        82.60043
239.26        83.93203
239.71        81.35037
240.17        76.94366
240.63        74.05225
241.08        73.75521
241.54        75.36061
242.00        79.85987
242.46        87.47155
242.91         96.3282
243.37        104.4264
243.83        109.7431
244.28        112.3335
244.74        112.9001
245.20        110.1393
245.66        105.7979
246.11        104.8674
246.57        109.3215
247.03        119.5108
247.48         129.218
247.94        124.9584
248.40          109.25
248.85        91.46368
249.31        79.32777
249.77        75.13747
250.22        77.93546
250.68         87.6732
251.14        105.0746
251.59        118.7963
252.05        117.5412
252.51         108.916
252.96        101.1069
253.42        98.18849
253.88        98.62759
254.33        100.5915
254.79        103.0259
255.25        103.3441
255.70         101.151
256.16        98.77887
256.62        96.97015
257.07        95.97099
257.53        96.07877
257.99        96.62354
258.44        96.72395
258.90        96.16496
259.35        94.53082
259.81        92.76841
260.27        91.16607
260.72        89.99467
261.18        89.41827
261.63        88.76483
262.09        87.84019
262.55        85.91219
263.00        83.05793
263.46        80.06377
263.91        77.11613
264.37        74.84988
264.83        73.15144
265.28        71.74385
265.74        70.71288
266.19        69.90997
266.65         69.3557
267.11        68.97193
267.56         68.5639
268.02        67.88936
268.47        66.83727
268.93        65.47614
269.38        63.88031
269.84        62.34181
270.30        60.98213
270.75         59.7617
271.21        58.68134
271.66         57.6354
272.12        56.59878
272.57         55.5611
273.03        54.56282
273.48        53.55744
273.94        52.61805
274.39        51.68184
274.85        50.80175
275.31        49.92872
275.76        49.02713
276.22        48.16091
276.67        47.29562
277.13        46.52885
277.58         45.8054
278.04        45.16691
278.49        44.51933
278.95        43.86902
279.40        43.14838
279.86        42.44524
280.31        41.73528
280.77        41.13765
281.22        40.61581
281.68        40.19421
282.13        39.80988
282.59        39.46021
283.04        39.09804
283.50        38.74071
283.95        38.36865
284.41        37.99331
284.86        37.60251
285.32        37.25176
285.77        36.89603
286.22         36.5629
286.68        36.27671
287.13         35.9942
287.59        35.79337
288.04        35.71886
288.50        35.78712
288.95        35.92423
289.41        36.06881
289.86        36.06913
290.32        35.93922
290.77        35.73922
291.22        35.53782
291.68        35.43395
292.13        35.46688
292.59        35.65175
293.04        36.06514
293.50        36.86506
293.95        38.04676
294.40         39.5723
294.86        41.25105
295.31        42.78715
295.77         44.0962
296.22        45.23099
296.68         46.3595
297.13        47.72724
297.58        49.39909
298.04        51.26551
298.49        53.16827
298.95        54.88403
299.40        56.35464
299.85        57.67737
300.31        59.00391
300.76        60.47145
301.21         62.1561
301.67        64.02524
302.12        65.96814
302.58         67.9734
303.03        69.97368
303.48        71.94493
303.94        73.93069
304.39        76.19016
304.84        78.30163
305.30        80.58821
305.75        82.80498
306.20         84.8599
306.66        86.74437
307.11        88.42246
307.57        90.02847
308.02        91.62466
308.47        93.28346
308.93        94.98118
309.38        96.62682
309.83        98.16742
310.29        99.58139
310.74        100.8698
311.19        102.0302
311.65        103.0391
312.10        103.8949
312.55        104.6466
313.00        105.3982
313.46        106.3163
313.91        107.4095
314.36        108.6143
314.82        109.8457
315.27        110.9921
315.72        111.9714
316.18        112.8166
316.63        113.4418
317.08        113.7323
317.53        113.7208
317.99        113.4925
318.44        113.2425
318.89        113.2996
319.35        113.7428
319.80          114.48
320.25        115.4052
320.70         116.332
321.16         117.135
321.61        117.8957
322.06        118.5003
322.51        118.7971
322.97        118.7669
323.42        118.4611
323.87        118.0404
324.32        117.8009
324.78        117.8079
325.23        118.0743
325.68        118.4819
326.13        118.8168
326.59        118.9924
327.04        119.1084
327.49        119.2508
327.94        119.6156
328.39        120.2268
328.85        120.9423
329.30        121.6689
329.75        122.0289
330.20         121.935
330.66        121.4985
331.11        120.9615
331.56        120.6245
332.01        120.6218
332.46        120.9015
332.92         121.369
333.37        122.0246
333.82        122.7567
334.27        123.5603
334.72        124.4236
335.17        125.3272
335.63        126.1955
336.08        127.0574
336.53        127.7227
336.98        127.9767
337.43        127.8019
337.88         127.288
338.34        126.6978
338.79        126.4671
339.24        126.7065
339.69        127.3307
340.14        128.1304
340.59         128.727
341.05        129.0162
341.50        129.1147
341.95        129.1625
342.40        129.4046
342.85         129.887
343.30        130.4715
343.75        131.0597
344.20        131.5113
344.66        131.7958
345.11         132.003
345.56        132.0859
346.01        131.9518
346.46         131.644
346.91        131.1983
347.36        130.9095
347.81        131.2274
348.26        132.1854
348.72         133.594
349.17        135.0612
349.62        135.8407
350.07        135.7363
350.52        135.0047
350.97        133.9853
351.42         133.201
351.87        132.8284
352.32        132.7115
352.77        132.8233
353.22        133.1266
353.67        133.5362
354.13        134.0282
354.58        134.4301
355.03        134.4418
355.48        133.9844
355.93         133.132
356.38        131.9831
356.83        130.7097
357.28        129.4093
357.73        128.0824
358.18        126.8216
358.63        125.7593
359.08        124.9167
359.53        124.2646
359.98        123.7178
360.43        123.1205
360.88        122.4185
361.33        121.6475
361.78        120.8043
362.23        119.8937
362.68        118.9357
363.13        117.9297
363.58        116.9429
364.03        116.0878
364.48        115.3822
364.93        114.7903
365.38        114.2467
365.83        113.6416
366.28        112.9437
366.73        112.1887
367.18        111.3906
367.63        110.5705
368.08        109.7389
368.53        108.8818
368.98        108.0388
369.43        107.2739
369.88        106.6103
370.33        106.0588
370.78        105.5479
371.23        104.9597
371.68         104.262
372.13         103.452
372.58         102.665
373.03        102.1215
373.48         101.837
373.93        101.7372
374.38        101.5511
374.83        100.8463
375.28        99.58286
375.72        97.93204
376.17        96.32961
376.62        95.23438
377.07         94.7373
377.52        94.66174
377.97        94.81157
378.42        94.86691
378.87        94.70181
379.32        94.40446
379.77        93.98494
380.22        93.45304
380.67        92.82264
381.11         92.0676
381.56        91.25301
382.01        90.52776
382.46        89.95191
382.91        89.53105
383.36        89.18793
383.81        88.77972
384.26        88.27528
384.71        87.70531
385.15        87.16805
385.60        86.88065
386.05        86.83401
386.50        86.93777
386.95        87.00468
387.40         86.7545
387.85        86.15835
388.29        85.30047
388.74        84.45811
389.19        83.78187
389.64        83.31182
390.09        82.95481
390.54        82.71015
390.98        82.56787
391.43        82.52962
391.88        82.57335
392.33        82.53574
392.78        82.24131
393.23        81.69335
393.67        80.82341
394.12        79.88796
394.57        79.61874
395.02        79.18695
395.47        79.20837
395.91        79.32103
396.36        79.33425
396.81        79.19599
397.26        78.94988
397.71        78.64048
398.15        78.32627
398.60        78.07568
399.05        77.71667
399.50        77.29732
399.95        77.00679
400.39        76.62381
400.84         76.8213
401.29        77.30666
401.74        77.31118
402.18        76.74818
402.63        75.99607
403.08        75.33283
403.53        75.01077
403.97        75.08009
404.42        75.42495
404.87        75.83041
405.32        75.90494
405.76        75.55373
406.21        75.10293
406.66        74.60647
407.11        73.89162
407.55        73.23041
408.00         73.0723
408.45        73.41968
408.90        74.19464
409.34        74.98238
409.79        74.68484
410.24        73.59103
410.68        73.25433
411.13         73.7692
411.58        74.21576
412.03        74.37765
412.47        74.35216
412.92           74.06
413.37        73.52969
413.81        72.91507
414.26         72.5206
414.71        72.37465
415.15        72.41665
415.60        72.54624
416.05         72.6332
416.49        72.63503
416.94         72.6003
417.39        72.52953
417.83         72.4016
418.28        72.23207
418.73         72.0137
419.17        71.82411
419.62        71.80899
420.07        71.96866
420.51        72.23809
420.96         72.5183
421.41        72.56989
421.85        72.32475
422.30        72.04578
422.74         71.7524
423.19        71.31889
423.64        70.87093
424.08        71.02673
424.53        71.50148
424.98        71.81231
425.42        71.80981
425.87        71.77946
426.31        71.75694
426.76         71.6031
427.21        71.23588
427.65        71.26777
428.10         71.5061
428.54        71.28157
428.99        70.69926
429.44        70.23704
429.88        70.05534
430.33        70.25406
430.77        70.66692
431.22        71.26115
431.66        71.85406
432.11        71.68554
432.56        70.84336
433.00         70.5867
433.45        71.29075
433.89        70.83627
434.34        71.74274
434.78        73.04884
435.23        70.49786
435.67        69.82535
436.12        69.82319
436.57        69.86234
437.01        69.71707
437.46        70.89433
437.90        70.43042
438.35        71.00494
438.79        71.62794
439.24        71.85797
439.68        71.69003
440.13        71.57274
440.57        71.62389
441.02        71.65095
441.46        71.64103
441.91        71.85773
442.35        72.07639
442.80        71.99915
443.24        72.44658
443.69        72.10552
444.13         71.4133
444.58        71.04771
445.02        71.00462
445.47        71.01685
445.91        71.03625
446.36        71.01109
446.80        70.87094
447.24        71.25546
447.69         71.1107
448.13        71.15876
448.58        71.25723
449.02        71.28362
449.47        71.31884
449.91        71.40104
450.36         71.5519
450.80        71.71887
451.25         71.8679
451.69        71.91217
452.13        71.84904
452.58        71.74849
453.02        71.62328
453.47        71.50798
453.91        71.40391
454.36        71.38367
454.80        71.17931
455.24        71.40422
455.69        71.83356
456.13        71.97482
456.58        71.80272
457.02        71.42312
457.46        70.99628
457.91        70.87154
458.35        70.95226
458.79        70.84882
459.24        70.61288
459.68        70.41405
460.13        70.26298
460.57        70.39647
461.01        70.63037
461.46        70.16993
461.90        70.22689
462.34        70.63383
462.79        70.81655
463.23        70.53071
463.68        69.69755
464.12        69.28757
464.56        69.36152
465.01        69.34691
465.45        69.21748
465.89        69.46497
466.34        69.92796
466.78        70.17318
467.22         69.7738
467.67        69.55342
468.11        69.44788
468.55         69.1153
468.99        68.64473
469.44        68.33431
469.88        68.22866
470.32        68.26571
470.77        68.36777
471.21        68.42249
471.65        68.37974
472.10        68.29302
472.54        68.20679
472.98        68.21085
473.42        68.30872
473.87        68.51032
474.31        68.71257
474.75        68.65723
475.20        68.39084
475.64        68.29588
476.08        68.40101
476.52        68.19556
476.97        67.63592
477.41        67.63071
477.85        67.58463
478.29        66.72648
478.74        67.83142
479.18         67.7341
479.62           67.42
480.06        67.34764
480.50        67.52573
480.95        67.49373
481.39        68.35733
481.83        67.17104
482.27        68.04047
482.72        68.16164
483.16        68.06525
483.60        68.21175
484.04        68.46236
484.48        68.62344
484.93        68.52605
485.37        68.87491
485.81        68.02979
486.25        67.40401
486.69        68.83073
487.14        68.17372
487.58        67.27371
488.02        67.78524
488.46        68.45898
488.90        68.17539
489.34        67.45203
489.79        68.40456
490.23        67.34438
490.67        67.58678
491.11        67.83674
491.55        67.66002
491.99        67.12646
492.43        66.96421
492.88        67.24031
493.32        67.54269
493.76         67.7878
494.20        68.02454
494.64        68.20122
495.08        68.36449
495.52        68.50063
495.96        68.42104
496.41        68.09685
496.85        68.33352
497.29        67.60672
497.73        67.80255
498.17        68.03001
498.61        68.02601
499.05        67.70004
499.49        67.55859
499.93        67.62003
500.37        67.68263
500.82        67.73917
501.26        67.70645
501.70        67.54183
502.14        67.88956
502.58        67.65848
503.02        67.79621
503.46        67.97401
503.90        68.21008
504.34        68.41695
504.78        68.49182
505.22         68.4223
505.66        68.16241
506.10        67.80989
506.54        67.72762
506.98        67.91164
507.42        67.87964
507.86        67.54784
508.30        67.80704
508.74        67.41362
509.18        67.23234
509.62        67.00034
510.06        66.99019
510.50         67.2197
510.94        67.62035
511.38        68.04662
511.82        68.22701
512.26        68.10047
512.70        67.75314
513.14        67.34073
513.58        67.10473
514.02        67.10944
514.46        67.27883
514.90        67.50812
515.34        67.65316
515.78         67.6201
516.22        67.49921
516.66        67.34972
517.10         67.2787
517.54        67.31157
517.98        67.40668
518.42        67.50202
518.86        67.50533
519.30         67.3959
519.74        67.20969
520.18        67.01195
520.62         66.8945
521.06        66.88588
521.50        66.97269
521.93        67.10785
522.37        67.17042
522.81        67.13744
523.25        67.06561
523.69        67.04671
524.13        67.01201
524.57         67.3115
525.01        67.62541
525.45        67.90935
525.89        67.92349
526.32        67.62251
526.76        67.11256
527.20        66.56442
527.64        66.25115
528.08        66.23624
528.52        66.43604
528.96        66.73143
529.40        66.92993
529.83        66.96641
530.27        66.90759
530.71        66.80293
531.15        66.73536
531.59        66.72991
532.03        66.74949
532.46        66.75953
532.90        66.74326
533.34        66.68713
533.78        66.60947
534.22        66.53083
534.66        66.47505
535.09        66.44323
535.53        66.44408
535.97        66.45085
536.41        66.43662
536.85        66.39516
537.28        66.32959
537.72        66.26804
538.16        66.24911
538.60        66.27589
539.04        66.33424
539.47         66.3718
539.91        66.36433
540.35        66.29018
540.79        66.17992
541.22        66.06419
541.66        66.00481
542.10        66.01311
542.54        66.07011
542.97        66.16177
543.41        66.28468
543.85        66.41903
544.29        66.58167
544.72         66.7038
545.16        66.71441
545.60        66.60316
546.04        66.36202
546.47         66.1104
546.91        66.14668
547.35        66.45885
547.79        66.76258
548.22        66.92612
548.66        67.10761
549.10        67.28555
549.53        67.14325
549.97        66.64423
550.41        67.12595
550.84        66.61517
551.28        66.55518
551.72        66.34082
552.15        66.64775
552.59        66.58575
553.03        66.57818
553.46         66.4295
553.90        66.42071
554.34        66.54516
554.77        66.70326
555.21        66.84869
555.65        66.83405
556.08        66.68924
556.52          66.685
556.96        66.81779
557.39        66.91853
557.83         66.9873
558.27        67.08241
558.70        67.19851
559.14        67.28474
559.57        67.30504
560.01        67.34862
560.45        67.39795
560.88        67.15919
561.32        67.02602
561.75        66.95083
562.19         67.0207
562.63        66.95948
563.06         66.7804
563.50        66.74564
563.93        66.81705
564.37        66.84222
564.80        66.79533
565.24        66.77215
565.68        66.75867
566.11        66.77013
566.55        66.81252
566.98        66.72482
567.42        66.63288
567.85         66.7326
568.29        66.95518
568.72        67.20581
569.16         67.6024
569.60        66.98599
570.03        67.39512
570.47        67.84839
570.90        67.69846
571.34        67.54341
571.77        67.67839
572.21        67.67764
572.64        67.73015
573.08        67.59264
573.51        67.30251
573.95        67.79237
574.38        68.10561
574.82        67.87575
575.25        67.93948
575.69        67.67742
576.12        67.49462
576.56        67.03056
576.99        67.17814
577.42        67.51193
577.86        67.12511
578.29        67.20061
578.73        67.90408
579.16        67.35975
579.60        67.47432
580.03        67.39149
580.47         67.7857
580.90        67.79951
581.33        67.49739
581.77        67.12811
582.20         67.6279
582.64        68.02576
583.07        67.34792
583.51         66.9902
583.94        66.78394
584.37        66.53874
584.81        66.42295
585.24        66.99327
585.68        67.59109
586.11         68.0159
586.54        67.01568
586.98        66.68243
587.41        67.63823
587.85        67.70744
588.28        67.57001
588.71        67.90401
589.15        67.13069
589.58        67.10477
590.01        66.32904
590.45          66.332
590.88        66.81673
591.31        67.15228
591.75        67.23935
592.18        67.45927
592.61        67.67512
593.05         66.4168
593.48        67.37022
593.91        68.21243
594.35        66.86565
594.78        66.60596
595.21        66.72521
595.65        66.82666
596.08        66.53469
596.51        66.72942
596.94        67.23302
597.38        67.34908
597.81        66.91604
598.24        67.31812
598.68        67.15158
599.11        66.56635
599.54        67.41956
599.97        68.10921
600.41          66.492
600.84        66.68271
601.27         66.8345
601.70        67.07922
602.14        67.69228
602.57        66.91318
603.00        66.63747
603.43        66.54034
603.87        66.83011
604.30        67.32966
604.73        67.06629
605.16        66.79568
605.60        66.78468
606.03        66.96272
606.46        67.32355
606.89        67.35712
607.32        67.06675
607.76         66.9932
608.19        67.22874
608.62        67.04769
609.05        66.88747
609.48        67.19501
609.92        67.40849
610.35        67.11738
610.78        67.37644
611.21        66.78101
611.64        67.20461
612.07         67.2336
612.50        67.31642
612.94        67.19408
613.37         67.6759
613.80        67.30478
614.23        67.64989
614.66        67.64629
615.09        67.69751
615.52        67.75614
615.96        67.73737
616.39        67.83781
616.82        67.09958
617.25        67.27206
617.68        66.86202
618.11        67.04959
618.54        67.34369
618.97        67.33791
619.40        67.06165
619.84        67.00772
620.27        67.23949
620.70        67.40492
621.13        67.42518
621.56        67.51411
621.99        67.07361
622.42        67.06126
622.85        67.21468
623.28        66.74057
623.71        67.74448
624.14        66.86242
624.57        67.29443
625.00        67.02837
625.43        67.16612
625.86        66.93879
626.29        66.79275
626.72        66.93118
627.15        66.81543
627.58        66.99644
628.01        67.19324
628.44        67.15436
628.87        66.94123
629.30        66.90022
629.73        66.99761
630.16        67.39641
630.59        67.03753
631.02        67.15932
631.45        67.14323
631.88        67.12864
632.31        67.01604
632.74        66.86724
633.17        66.71785
633.60        66.60413
634.03        66.54459
634.46         66.5126
634.89          66.507
635.32        66.53623
635.75        66.59045
636.18        66.65771
636.61         66.7108
637.04        66.71992
637.47        66.69347
637.89        66.59805
638.32         66.4259
638.75        66.36955
639.18        66.47739
639.61        66.05274
640.04        66.29192
640.47        66.23917
640.90        66.24973
641.33        66.30593
641.76        66.38682
642.18        66.43668
642.61        66.40772
643.04        66.32283
643.47        66.24258
643.90        66.24578
644.33        66.33898
644.76        66.58352
645.18        66.85622
645.61         66.7709
646.04        66.24669
646.47        66.11169
646.90         66.3142
647.33        66.32829
647.75        66.13383
648.18        66.06664
648.61        66.14851
649.04        66.21648
649.47        66.26611
649.89         66.4613
650.32        66.69221
650.75        66.63756
651.18        66.38979
651.61        66.33625
652.03         66.5456
652.46        66.90591
652.89        67.15829
653.32        67.09897
653.74        66.91925
654.17        66.18484
654.60        65.67682
655.03         67.5836
655.46         65.6739
655.88        67.18254
656.31        70.00712
656.74        70.92161
657.16        69.91273
657.59        67.54427
658.02         66.4899
658.45        67.45598
658.87        67.53439
659.30         67.2878
659.73        67.49545
660.15        67.79039
660.58        67.25932
661.01        67.20157
661.44        67.21355
661.86        66.90495
662.29        66.39571
662.72        66.53922
663.14        67.21888
663.57        67.22844
664.00        66.65259
664.42        66.50414
664.85        66.82604
665.27         67.0198
665.70        67.02772
666.13        67.07061
666.55        67.14705
666.98        67.18767
667.41        67.18645
667.83        67.13201
668.26        67.01951
668.69        66.86904
669.11        66.73392
669.54        66.67944
669.96         66.7157
670.39        66.87664
670.82        67.08387
671.24        67.07949
671.67        66.89004
672.09        66.85956
672.52        67.00087
672.94        67.12537
673.37        66.71434
673.80         67.1153
674.22         66.8438
674.65        66.95429
675.07        67.05429
675.50        67.19197
675.92        67.32998
676.35        67.36433
676.77        67.29268
677.20        67.24317
677.62        67.06057
678.05        67.05137
678.47          67.163
678.90        67.36547
679.32        67.55945
679.75        67.60207
680.17        67.46259
680.60        67.20433
681.02        66.91785
681.45        66.75095
681.87        66.74901
682.30        66.84692
682.72        67.01902
683.15         67.1789
683.57        67.31493
684.00        67.45362
684.42         67.5684
684.85        67.64123
685.27        67.67184
685.70        67.57216
686.12        67.42917
686.54        67.65291
686.97         68.1357
687.39        68.36143
687.82        68.25985
688.24        68.19797
688.66        68.17815
689.09         67.9526
689.51        67.58393
689.94        67.40601
690.36        67.32462
690.78        67.32237
691.21         67.3597
691.63        67.57299
692.06        67.87592
692.48        67.98613
692.90        67.89649
693.33        67.84399
693.75        67.83689
694.17        67.70688
694.60        67.52295
695.02        67.43095
695.44        67.43774
695.87        67.67775
696.29         68.0657
696.71        67.82034
697.14        67.54283
697.56        67.55054
697.98        67.94707
698.41        68.08463
698.83        67.93686
699.25        67.87272
699.68        67.88818
700.10        67.86958
700.52        67.80554
700.94        67.74613
701.37        67.68521
701.79        67.62722
702.21        67.56869
702.64         67.5181
703.06        67.49549
703.48        67.54501
703.90        67.67213
704.33        67.87044
704.75        68.06875
705.17        68.21977
705.59        68.28064
706.01        68.26932
706.44        68.22135
706.86        68.20082
707.28        68.22206
707.70        68.26994
708.12         68.3343
708.55        68.38068
708.97        68.40511
709.39        68.42513
709.81        68.45367
710.23        68.52042
710.66        68.62183
711.08        68.75677
711.50         68.8959
711.92        69.02919
712.34        69.14713
712.76        69.24865
713.19        69.30114
713.61        69.29869
714.03        69.22497
714.45        69.09742
714.87         68.9626
715.29          68.888
715.71        68.88829
716.13        68.94565
716.56         69.0124
716.98        69.09053
717.40        69.13615
717.82        69.15963
718.24        69.16393
718.66        69.15475
719.08        69.13631
719.50        69.10314
719.92        69.06432
720.34        69.03696
720.76        69.02505
721.19        69.01904
721.61        69.02222
722.03        69.01078
722.45        68.97993
722.87        68.93517
723.29        68.88768
723.71        68.85517
724.13        68.84305
724.55        68.84794
724.97        68.86134
725.39         68.8671
725.81        68.86515
726.23        68.86623
726.65        68.87907
727.07        68.91991
727.49         68.9867
727.91        69.05667
728.33        69.13413
728.75        69.22698
729.17        69.32851
729.59         69.4458
730.01         69.5135
730.43         69.4268
730.85        69.18584
731.27        68.83435
731.69        68.51682
732.10        68.46417
732.52        68.73193
732.94        69.22474
733.36        69.77081
733.78        70.19401
734.20        70.42534
734.62        70.01342
735.04        69.93764
735.46        69.87458
735.88        70.08817
736.30        70.31149
736.72        70.42429
737.13        70.39832
737.55        70.16492
737.97        69.72179
738.39        69.25132
738.81        69.06131
739.23        69.21195
739.65        69.63614
740.06        70.09961
740.48        70.28692
740.90        70.11631
741.32        69.70264
741.74        69.20969
742.16        68.93434
742.57        68.97992
742.99        69.16256
743.41        69.41273
743.83        69.78999
744.25        70.15999
744.67        70.14759
745.08        69.84428
745.50        69.75758
745.92        69.94446
746.34        70.10912
746.75         70.1991
747.17        70.26209
747.59        70.28131
748.01        70.25597
748.42        70.20689
748.84        70.13679
749.26        70.06842
749.68        70.00404
750.09        69.94315
750.51         69.9174
750.93        69.91785
751.35        69.94283
751.76         69.9902
752.18        70.04453
752.60        70.09618
753.01        70.15855
753.43        70.20805
753.85        70.21832
754.27        70.19654
754.68        70.25842
755.10        70.25563
755.52        70.28506
755.93        70.28522
756.35        70.23799
756.77        70.24447
757.18        70.37194
757.60        70.61033
758.02        71.21603
758.43        71.88792
758.85        71.47758
759.26        70.28154
759.68        69.94376
760.10        70.45286
760.51        70.65459
760.93        70.57228
761.34        70.09815
761.76        70.72371
762.18        70.87731
762.59        70.92052
763.01        70.48446
763.42        69.77529
763.84         69.5283
764.26         69.8464
764.67        70.12813
765.09        70.20783
765.50         70.9309
765.92        70.98489
766.33        70.63815
766.75        70.77587
767.16        70.61395
767.58         70.5406
768.00        70.37493
768.41         70.1973
768.83        70.35581
769.24        70.71072
769.66        70.66375
770.07        70.27992
770.49        70.20248
770.90        70.46047
771.32        70.72633
771.73        70.93395
772.15        71.00378
772.56        70.91779
772.97        70.96272
773.39        70.69801
773.80        70.70506
774.22        70.82977
774.63        71.08379
775.05        71.33497
775.46        71.47034
775.88        71.42353
776.29        71.26559
776.70        71.05644
777.12        70.91026
777.53        70.87638
777.95        70.92037
778.36        71.01997
778.77        71.12442
779.19        71.21064
779.60         71.3148
780.02        71.43351
780.43        71.62126
780.84        71.85597
781.26        72.06589
781.67         72.2309
782.09        72.37894
782.50         72.4711
782.91         72.3745
783.33        72.09015
783.74        71.78041
784.15        71.47846
784.57        71.13189
784.98         70.8287
785.39        70.73814
785.81        70.89015
786.22        71.23228
786.63        71.68581
787.04        72.11811
787.46        72.47627
787.87        72.75623
788.28        72.96395
788.70        73.11366
789.11        73.20215
789.52        73.23357
789.93         73.1982
790.35        73.08295
790.76        72.91318
791.17        72.71077
791.58        72.54637
792.00        72.48022
792.41        72.54066
792.82        72.76389
793.23        73.07474
793.65        73.15791
794.06        73.07107
794.47        73.25708
794.88        73.60774
795.29        73.61774
795.71        73.23971
796.12        72.77203
796.53         72.3809
796.94        72.26747
797.35        72.50894
797.76        73.04738
798.18          73.672
798.59        74.08022
799.00        74.15836
799.41         73.9932
799.82        73.69554
800.23        73.46326
800.64        73.36943
801.06         73.3288
801.47        73.35767
801.88        73.40739
802.29        73.45381
802.70        73.51215
803.11        73.57524
803.52        73.61492
803.93        73.63431
804.34        73.64846
804.75        73.63707
805.17        73.61301
805.58        73.61972
805.99        73.50256
806.40        73.36895
806.81        73.71854
807.22         74.4143
807.63        74.65424
808.04        74.43492
808.45        74.44016
808.86        74.69305
809.27        74.75966
809.68        74.62149
810.09        74.48595
810.50        74.37547
810.91        74.24231
811.32        74.11634
811.73        74.04089
812.14        74.02188
812.55         74.0591
812.96        74.13076
813.37        74.17912
813.78        74.19018
814.19        74.19131
814.60        74.17924
815.01        74.15067
815.42        74.10987
815.83        74.03938
816.24        73.99791
816.65        74.09785
817.05        74.35262
817.46        74.68409
817.87        74.97654
818.28        75.00385
818.69        74.73138
819.10        74.22749
819.51        73.65951
819.92        73.34165
820.33        73.37523
820.74        73.66131
821.14        74.06529
821.55        74.38213
821.96        74.53516
822.37        74.59293
822.78        74.56303
823.19        74.46339
823.60        74.31508
824.00        74.09093
824.41        73.85347
824.82        73.74529
825.23        73.78733
825.64        73.96697
826.04        74.17891
826.45        74.14475
826.86        73.84479
827.27        73.37285
827.68        72.91646
828.08        72.79519
828.49        73.03782
828.90        73.57359
829.31        74.27563
829.72         74.9188
830.12         75.4339
830.53        75.79192
830.94        76.03305
831.35        76.18895
831.75        76.29385
832.16        76.24699
832.57        76.08981
832.97         75.8683
833.38        75.62136
833.79        75.41868
834.20        75.24036
834.60        75.01693
835.01        74.78055
835.42        74.51913
835.82        74.40907
836.23        74.66901
836.64        75.33822
837.04        76.36436
837.45        77.32836
837.86        77.69193
838.26        77.31931
838.67        76.38649
839.08        75.27556
839.48        74.56284
839.89        74.44579
840.29        74.74923
840.70        75.26891
841.11        75.68472
841.51        75.90515
841.92        75.99398
842.33        76.03313
842.73        76.13196
843.14        76.27402
843.54        76.44233
843.95         76.5849
844.35        76.70172
844.76        76.76256
845.17        76.75851
845.57        76.74833
845.98        76.78747
846.38        76.89833
846.79        77.05647
847.19        77.12786
847.60        76.83737
848.00        76.18597
848.41         75.3027
848.81        74.47397
849.22        74.11706
849.62        74.35441
850.03         75.0124
850.43        75.93707
850.84        76.63283
851.24        76.98406
851.65        77.01156
852.05        76.82346
852.46        76.55127
852.86        76.25809
853.27        75.98805
853.67        75.66646
854.07        75.38664
854.48         75.1056
854.88        74.83915
855.29        74.59858
855.69        74.61215
856.10         74.8156
856.50        75.25945
856.90        75.65289
857.31        75.60307
857.71        75.09789
858.12        74.20637
858.52        73.30614
858.92        72.98408
859.33        73.36441
859.73        74.31417
860.13        75.44414
860.54        76.11869
860.94        76.19346
861.34        75.75459
861.75        75.01521
862.15        74.42001
862.55        74.09013
862.96         73.9338
863.36        73.75597
863.76        73.27279
864.17         72.4818
864.57         71.5582
864.97        70.76153
865.38        70.41605
865.78        70.61943
866.18        71.22367
866.58        72.10052
866.99        72.95033
867.39        73.65314
867.79        74.23875
868.19        74.55805
868.60        74.40924
869.00        73.81351
869.40         72.7989
869.80        71.81112
870.21        71.62119
870.61        72.42231
871.01        73.94791
871.41        75.54127
871.81        76.14452
872.22        75.50973
872.62        73.96503
873.02        72.10046
873.42        70.90613
873.82        70.69772
874.22        71.21526
874.63        72.04294
875.03        72.53967
875.43        72.52917
875.83        72.20005
876.23        71.90192
876.63        72.18964
877.03        73.15343
877.44        74.51678
877.84        75.83173
878.24        76.30224
878.64        75.77563
879.04        74.57519
879.44        73.18703
879.84        72.31124
880.24        72.11483
880.64        72.35645
881.04        72.85983
881.44        73.32564
881.84        73.62736
882.24         73.9007
882.65        74.00041
883.05        73.80695
883.45        73.29655
883.85        72.54076
884.25        71.88423
884.65        71.87534
885.05        72.58057
885.45        73.77013
885.85        75.12143
886.25        76.06545
886.65        76.37498
887.05        76.23033
887.45        75.58968
887.85        74.42858
888.25         72.9407
888.65         71.2655
889.04        69.83882
889.44        69.29089
889.84         69.6472
890.24        70.77724
890.64        72.32756
891.04        73.49072
891.44        73.91943
891.84        73.80853
892.24         73.4296
892.64        73.19901
893.04        73.23119
893.44        73.37466
893.83        73.60481
894.23        73.82289
894.63        74.01514
895.03         74.2403
895.43        74.46049
895.83        74.59222
896.23        74.61791
896.63        74.52387
897.02        74.37103
897.42         74.3345
897.82        74.42512
898.22        74.62936
898.62        74.78786
899.01        74.64687
899.41        74.15666
899.81        73.40897
900.21        72.68471
900.61        72.40836
901.00        72.65656
901.40        73.31319
901.80        74.02136
902.20        74.19537
902.59        73.70174
902.99        72.71804
903.39        71.65595
903.79        71.13211
904.18         71.2751
904.58        71.91915
904.98        72.67477
905.38        72.94534
905.77        72.57392
906.17        71.75209
906.57        70.85913
906.96         70.5188
907.36        70.84535
907.76        71.67722
908.15        72.60737
908.55        72.83296
908.95        72.24521
909.34        71.10956
909.74        70.02393
910.14        69.76103
910.53        70.52538
910.93        72.00162
911.33        73.80984
911.72        75.36853
912.12         76.3616
912.52        76.93297
912.91        77.19466
913.31        77.32738
913.70        77.41005
914.10        77.34321
914.49        77.02264
914.89        76.29935
915.29        75.22767
915.68        73.94945
916.08        72.81418
916.47         72.2001
916.87        72.23673
917.26        72.76234
917.66         73.5531
918.05        74.24801
918.45        74.65395
918.84        74.90904
919.24        74.94765
919.64        74.83187
920.03        74.61407
920.42        74.23308
920.82        73.86356
921.21        73.69478
921.61        73.77585
922.00        74.09097
922.40        74.47701
922.79         74.7216
923.19         74.7299
923.58        74.58887
923.98        74.40177
924.37        74.34933
924.77        74.46191
925.16        74.66785
925.55        74.88938
925.95        75.00492
926.34        75.00193
926.74        74.93229
927.13         74.7999
927.52        74.57057
927.92        74.27253
928.31        73.88648
928.70        73.56886
929.10        73.56073
929.49         73.8924
929.89        74.46635
930.28         75.0454
930.67        75.13374
931.07        74.63362
931.46         73.7498
931.85        72.77374
932.24        72.14336
932.64        71.99053
933.03        72.19922
933.42         72.6827
933.82        73.26208
934.21        73.85048
934.60        74.42597
934.99        74.96103
935.39        75.39017
935.78        75.73535
936.17        75.95517
936.56        75.86815
936.96        75.26307
937.35         74.1899
937.74          72.808
938.13        71.56271
938.53        70.98537
938.92        71.12273
939.31        71.89723
939.70         72.9303
940.09        73.47865
940.49        73.29609
940.88        72.58578
941.27        71.79002
941.66         71.5928
942.05        72.14038
942.44        73.26572
942.84        74.46135
943.23        74.89662
943.62        74.30072
944.01        72.95187
944.40        71.56712
944.79        71.19275
945.18        72.02618
945.57        73.76009
945.97        75.59686
946.36         76.3912
946.75        75.70875
947.14        73.95131
947.53        71.92796
947.92        70.84354
948.31        71.01569
948.70        72.13873
949.09        73.59049
949.48         74.2503
949.87        73.79375
950.26        72.59651
950.65        71.36198
951.04        71.06172
951.43        71.88609
951.82         73.5367
952.21        75.34541
952.60        76.10653
952.99        75.46919
953.38        73.84355
953.77        72.04389
954.16        71.13171
954.55        71.33094
954.94        72.42711
955.33        73.79807
955.72        74.13864
956.11        73.05721
956.50        71.04756
956.89        69.12336
957.28        68.58161
957.66        69.69623
958.05        72.03054
958.44        74.75195
958.83         76.1589
959.22          75.677
959.61        73.89069
960.00        71.78731
960.39        70.63093
960.78        70.66369
961.16        71.54404
961.55        72.69454
961.94        73.08028
962.33        72.36696
962.72         71.0297
963.11        69.61002
963.49        68.79302
963.88        68.73191
964.27        69.16887
964.66        69.92474
965.04         70.7531
965.43        71.41725
965.82        72.02602
966.21        72.48264
966.60        72.59644
966.98        72.37673
967.37         71.9034
967.76        71.36026
968.15        71.01656
968.53        70.91373
968.92        70.91969
969.31        71.11423
969.69          71.634
970.08        72.40342
970.47        73.53029
970.86        74.47082
971.24        74.31267
971.63        72.92177
972.02        70.63263
972.40          68.528
972.79        68.31644
973.17        70.24532
973.56        73.68092
973.95        77.48418
974.33          79.492
974.72        78.95384
975.11         76.5825
975.49        73.49651
975.88        71.74715
976.26        71.87257
976.65         73.2291
977.04        75.16846
977.42        76.49679
977.81        76.61564
978.19        76.04755
978.58        75.12603
978.96        74.22813
979.35        73.59712
979.74        73.08717
980.12        72.83999
980.51        73.09734
980.89        73.93296
981.28        75.13309
981.66        76.64665
982.05        78.05453
982.43        79.28646
982.82        80.33862
983.20        80.88524
983.59        80.31376
983.97        78.65636
984.35        76.16151
984.74        73.84291
985.12         73.0744
985.51        74.02378
985.89        76.41614
986.28        79.11824
986.66        80.56898
987.04        80.12692
987.43        78.25484
987.81        75.77005
988.20        74.41135
988.58        74.61576
988.96        75.93337
989.35        77.26174
989.73         77.0582
990.12        74.92558
990.50        71.55111
990.88        67.97924
991.27        65.85999
991.65        65.60516
992.03        66.73952
992.42        68.63573
992.80        70.63858
993.18        72.35305
993.56        73.98569
993.95        75.35725
994.33        76.27486
994.71        76.58206
995.10        76.31308
995.48         75.7177
995.86        75.31416
996.24        75.28632
996.63        75.48593
997.01        76.02483
997.39        76.83104
997.77        77.76736
998.15        78.78098
998.54        79.63102
998.92        79.97019
999.30        79.71825
999.68        79.01296
1000.06        77.95451
1000.45        76.74516
1000.83          75.625
1001.21        74.55724
1001.59        73.95492
1001.97        74.41499
1002.35        75.95779
1002.73        78.40335
1003.12        80.89579
1003.50        81.99007
1003.88        81.44001
1004.26        79.66685
1004.64        77.55125
1005.02        76.65309
1005.40        77.35368
1005.78        79.03857
1006.16        81.06028
1006.54        82.56641
1006.92        83.30695
1007.30        83.55894
1007.69        83.26614
1008.07        82.47358
1008.45        81.23222
1008.83        79.55955
1009.21        77.79488
1009.59        76.53257
1009.97        75.94243
1010.35        75.90178
1010.73        76.32223
1011.11        76.95537
1011.49        77.62893
1011.86        78.45573
1012.24        78.92049
1012.62        78.46194
1013.00        76.97763
1013.38        74.48528
1013.76        71.70137
1014.14        70.23188
1014.52        70.65166
1014.90        72.59058
1015.28        74.91684
1015.66        75.78161
1016.04        74.72682
1016.41        72.35908
1016.79        69.49428
1017.17        67.88543
1017.55        68.10704
1017.93        69.38481
1018.31        71.12147
1018.69         72.9997
1019.06        75.21883
1019.44        78.09019
1019.82        81.86292
1020.20        85.60736
1020.58        87.92249
1020.95        88.30383
1021.33        87.40482
1021.71        86.19964
1022.09        84.83654
1022.46        82.87231
1022.84        80.21866
1023.22        76.85673
1023.60        73.71983
1023.97        71.54442
1024.35        70.51012
1024.73        70.31316
