SpectraSmart Spectrum 2.9.0.0
--------- Device Information -----------
Spectrum Name :  反射率_0
Saving Time :  2024/04/30 00:20:51
Spectro-Module Model Name : SE2030-DUVN
Spectro-Module Serial Number : OS361AC55029948
Wavelength Start : 200
Wavelength End : 1025
Wavelength Unit : Wavelength(nm)
Spectrum Unit : Reflectance(%)
-----------Spectrum Setting ------------
Integration Time : 20ms
Average : 10
Boxcar : 0
Background removal :  enabled
linearity correction :  enabled
SC :  disabled
Intensity correction :  disabled
DWT denoise :  enabled
savitzky-golay :  disabled
FFT :  disabled
Running average :  disabled
Kalman :  disabled
High pass :  disabled
---------------BEGIN--------------------
Wavelength(nm)             Reflectance(%)
200.29               0
200.75        69.40836
201.21        62.15234
201.67        54.81572
202.13        49.15512
202.58        46.20551
203.04        45.72141
203.50         48.5083
203.96         56.2938
204.42        68.12075
204.88        81.48915
205.34        91.13181
205.80        90.57749
206.26        81.99687
206.72         71.3565
207.18        61.04305
207.64        51.36778
208.10        41.81543
208.55        31.09167
209.01        22.21814
209.47        23.02496
209.93        33.42108
210.39        48.33469
210.85        60.94106
211.31        66.01259
211.77        63.48422
212.23        53.37405
212.69        37.12963
213.14        27.07485
213.60        30.80577
214.06        42.37122
214.52        53.44757
214.98         58.4879
215.44        58.23615
215.90        54.90234
216.36        51.11649
216.81        51.64255
217.27        58.94038
217.73        73.02368
218.19        91.60095
218.65         102.524
219.11        98.39986
219.57        84.93668
220.02        71.31147
220.48        63.15615
220.94        59.20221
221.40        57.40729
221.86        56.24182
222.32        53.19975
222.77         48.7527
223.23         45.6071
223.69        44.08918
224.15        44.04782
224.61        45.08975
225.06        46.71018
225.52        48.87423
225.98        50.73645
226.44        51.69639
226.90        52.10915
227.36        51.91985
227.81        50.99987
228.27        49.49129
228.73        47.28134
229.19        45.21937
229.65         45.1261
230.10        46.99523
230.56        49.72272
231.02        51.90155
231.48        52.33614
231.93        51.04338
232.39        48.61633
232.85        45.66312
233.31          43.433
233.77        42.48402
234.22        42.64479
234.68        43.54546
235.14        44.48634
235.60        45.20287
236.05        45.82206
236.51        46.84081
236.97        49.00565
237.43        52.63022
237.88        58.06637
238.34        64.45713
238.80        69.01247
239.26        69.64754
239.71        66.89888
240.17        62.80601
240.63         60.5992
241.08        61.38785
241.54        65.23325
242.00        73.62121
242.46        85.78714
242.91        97.48359
243.37        105.3328
243.83        108.5002
244.28        109.5829
244.74        109.8439
245.20        107.6477
245.66        103.9456
246.11        101.9042
246.57        102.9525
247.03        108.0528
247.48          113.74
247.94        111.5136
248.40        102.7199
248.85        92.61025
249.31        86.21546
249.77        85.19056
250.22        89.25906
250.68        98.69462
251.14        113.7752
251.59        123.7813
252.05        119.6264
252.51        109.4782
252.96        100.4344
253.42        95.22649
253.88        92.12717
254.33        89.60246
254.79        87.74709
255.25        86.70007
255.70        86.12214
256.16        86.17605
256.62        86.26642
257.07        85.89302
257.53        85.42881
257.99        84.66819
258.44        83.06424
258.90        80.87955
259.35        78.10468
259.81        75.57494
260.27        73.49182
260.72         72.0072
261.18        71.18766
261.63        70.48711
262.09         69.8009
262.55         68.6115
263.00        66.89857
263.46        65.15913
263.91        63.38852
264.37        61.93826
264.83        60.70643
265.28        59.51328
265.74        58.51492
266.19        57.70227
266.65        57.13303
267.11        56.73335
267.56         56.2899
268.02         55.5055
268.47        54.29114
268.93        52.74392
269.38        51.05283
269.84        49.69061
270.30        48.77781
270.75        48.17223
271.21         47.6801
271.66        46.94918
272.12        45.90643
272.57         44.6552
273.03        43.32561
273.48        42.03172
273.94        40.91794
274.39        39.90155
274.85        39.08136
275.31        38.50261
275.76        38.10913
276.22        37.89411
276.67        37.69287
277.13        37.37701
277.58        36.86381
278.04         36.2519
278.49        35.54977
278.95        34.88997
279.40        34.25547
279.86        33.68245
280.31        33.13416
280.77         32.6919
281.22         32.3106
281.68         32.0123
282.13        31.74544
282.59        31.49089
283.04        31.21622
283.50        30.94798
283.95        30.65526
284.41          30.316
284.86        29.93457
285.32        29.57078
285.77        29.26088
286.22        29.13769
286.68        29.21774
287.13        29.40095
287.59        29.64974
288.04        29.84008
288.50        29.94845
288.95        29.97665
289.41        29.92185
289.86        29.73049
290.32        29.45489
290.77        29.13276
291.22        28.87457
291.68        28.84519
292.13        29.08016
292.59        29.56407
293.04        30.27978
293.50        31.23164
293.95        32.39193
294.40        33.76748
294.86        35.24664
295.31         36.6645
295.77         37.9784
296.22        39.20761
296.68        40.48152
297.13        41.98807
297.58         43.7644
298.04        45.70516
298.49        47.66992
298.95        49.45615
299.40        51.00534
299.85        52.40343
300.31        53.74509
300.76        55.09118
301.21        56.52153
301.67         58.0448
302.12        59.65608
302.58        61.49663
303.03        63.52919
303.48        65.65548
303.94        67.81975
304.39         70.2025
304.84        72.22875
305.30        74.33684
305.75        76.29679
306.20        78.09085
306.66        79.72698
307.11        81.15199
307.57        82.46779
308.02        83.69852
308.47        84.91562
308.93         86.1333
309.38        87.30748
309.83        88.44419
310.29        89.54444
310.74        90.59533
311.19        91.58609
311.65        92.48331
312.10        93.26391
312.55        93.95295
313.00        94.62058
313.46        95.38039
313.91        96.23268
314.36        97.14592
314.82        98.02708
315.27         98.7562
315.72        99.27861
316.18        99.63781
316.63        99.87268
317.08        100.0597
317.53        100.2477
317.99        100.4522
318.44        100.6689
318.89        100.9051
319.35        101.1637
319.80        101.4419
320.25        101.8061
320.70        102.3574
321.16        103.0627
321.61        103.9221
322.06        104.7189
322.51        105.1207
322.97        105.0533
323.42        104.6306
323.87        104.0944
324.32        103.8563
324.78        104.0077
325.23        104.4998
325.68        105.1391
326.13        105.5927
326.59        105.7388
327.04        105.7147
327.49        105.6601
327.94        105.8503
328.39        106.3423
328.85        106.9806
329.30         107.666
329.75        108.0345
330.20        107.9965
330.66         107.671
331.11        107.2602
331.56         107.007
332.01         107.024
332.46         107.253
332.92        107.6485
333.37        108.2802
333.82        109.0654
334.27        109.9964
334.72        110.9722
335.17        111.8216
335.63        112.4525
336.08        112.9317
336.53        113.2545
336.98        113.5089
337.43        113.7309
337.88        113.8979
338.34        114.0333
338.79        114.1959
339.24         114.401
339.69        114.6795
340.14        114.9888
340.59        115.2349
341.05        115.4166
341.50        115.5706
341.95        115.7827
342.40        116.2114
342.85        116.8636
343.30        117.6343
343.75        118.4152
344.20        119.0366
344.66         119.456
345.11        119.7519
345.56        119.8745
346.01         119.743
346.46        119.4089
346.91         118.912
347.36         118.566
347.81        118.8454
348.26        119.7953
348.72         121.236
349.17        122.7594
349.62        123.5951
350.07        123.5377
350.52        122.8375
350.97        121.8644
351.42        121.1912
351.87         120.995
352.32        121.1051
352.77        121.4181
353.22        121.7715
353.67        122.0711
354.13        122.3524
354.58        122.5587
355.03        122.5764
355.48        122.3657
355.93        121.9211
356.38        121.2631
356.83        120.4472
357.28        119.5189
357.73        118.5065
358.18        117.4658
358.63        116.4718
359.08        115.5568
359.53        114.7168
359.98        113.9651
360.43        113.3069
360.88        112.7292
361.33        112.2275
361.78        111.7275
362.23        111.1119
362.68        110.3575
363.13        109.4888
363.58        108.5972
364.03        107.8353
364.48        107.2333
364.93        106.7415
365.38        106.2707
365.83        105.6796
366.28        104.9399
366.73        104.1099
367.18        103.2579
367.63        102.4858
368.08        101.8155
368.53        101.2012
368.98        100.6241
369.43        100.0529
369.88        99.48138
370.33        98.94994
370.78        98.40974
371.23        97.78159
371.68        97.05733
372.13        96.22684
372.58        95.44912
373.03        94.98447
373.48         94.8504
373.93        94.95789
374.38        95.00222
374.83        94.48618
375.28        93.34824
375.72        91.78176
376.17         90.2177
376.62        89.12315
377.07        88.59973
377.52        88.46254
377.97        88.56633
378.42        88.67487
378.87        88.66979
379.32        88.61551
379.77        88.42674
380.22        87.96872
380.67        87.23593
381.11        86.24993
381.56         85.1852
382.01        84.37252
382.46        83.91326
382.91        83.74605
383.36        83.69684
383.81        83.47752
384.26        83.01735
384.71        82.39629
385.15        81.75748
385.60        81.38156
386.05        81.29047
386.50         81.3791
386.95        81.45625
387.40        81.24207
387.85        80.69718
388.29        79.89455
388.74        79.11623
389.19        78.53177
389.64        78.17694
390.09        77.95998
390.54        77.80542
390.98        77.59173
391.43         77.3229
391.88          77.016
392.33        76.65625
392.78        76.33077
393.23        76.04108
393.67        75.51585
394.12        74.89474
394.57        74.96407
395.02        74.64576
395.47        74.70646
395.91        74.77876
396.36        74.79433
396.81        74.72636
397.26        74.60733
397.71        74.42503
398.15        74.10914
398.60        73.76402
399.05        73.34822
399.50        72.93242
399.95        72.76672
400.39        72.57951
400.84        72.68718
401.29        72.87819
401.74        72.91146
402.18        72.68922
402.63        72.13252
403.08        71.44419
403.53         71.0606
403.97        71.03584
404.42        71.15853
404.87        71.32155
405.32        71.37596
405.76        71.24997
406.21        71.14278
406.66        71.03416
407.11        70.63338
407.55        70.11639
408.00        70.05512
408.45         70.4173
408.90        70.66334
409.34        70.66917
409.79        70.50203
410.24        70.27626
410.68        70.26701
411.13        70.49864
411.58        70.77214
412.03         70.9878
412.47        71.08482
412.92        71.00005
413.37        70.78111
413.81        70.47264
414.26        70.22729
414.71        70.05025
415.15        69.91886
415.60        69.82427
416.05        69.79889
416.49        69.84693
416.94        69.96938
417.39        70.09767
417.83        70.09735
418.28        69.95634
418.73         69.7145
419.17        69.48978
419.62        69.48685
420.07        69.71472
420.51        70.07243
420.96        70.45998
421.41        70.60301
421.85        70.42426
422.30        70.30683
422.74        70.19772
423.19        69.64218
423.64        68.86806
424.08        68.96377
424.53         69.8492
424.98        70.33692
425.42        70.29153
425.87        70.65945
426.31        71.35048
426.76        70.85661
427.21        70.03613
427.65        69.99854
428.10         70.7781
428.54        70.62888
428.99        69.72784
429.44        69.48815
429.88        69.87626
430.33        70.07215
430.77        70.00457
431.22        70.21143
431.66         70.6155
432.11        70.68669
432.56        70.44526
433.00        70.31039
433.45        70.51909
433.89        70.67155
434.34        71.48951
434.78        72.58463
435.23        70.94186
435.67        70.44228
436.12        70.31639
436.57         70.4252
437.01        70.68574
437.46        70.84968
437.90        70.92525
438.35        71.22278
438.79        71.68401
439.24        71.90102
439.68        71.89011
440.13        72.01025
440.57        72.27644
441.02        72.43633
441.46         72.4433
441.91         72.5687
442.35        72.65623
442.80        72.52438
443.24        72.18398
443.69        71.97188
444.13        71.92107
444.58        71.86864
445.02        71.77271
445.47        71.84256
445.91        72.06481
446.36        72.18539
446.80        72.12703
447.24        72.68414
447.69        72.52714
448.13        72.64597
448.58         72.6668
449.02        72.60947
449.47        72.53231
449.91        72.51788
450.36        72.61089
450.80        72.76308
451.25        72.93522
451.69        73.02608
452.13        73.01821
452.58        72.96508
453.02        72.91207
453.47        72.91551
453.91        72.97038
454.36        73.23898
454.80        73.31848
455.24        73.44475
455.69          73.493
456.13        73.42464
456.58        73.28545
457.02        73.12137
457.46        72.97075
457.91        72.82605
458.35        72.68027
458.79        72.59281
459.24         72.5883
459.68        72.67348
460.13        72.85188
460.57        72.76534
461.01        72.92142
461.46        72.81723
461.90        72.64114
462.34        72.68776
462.79        72.84353
463.23        72.63032
463.68        72.11244
464.12        71.83581
464.56        71.85802
465.01        71.81277
465.45        71.66467
465.89        71.84531
466.34        72.24627
466.78        72.26073
467.22         72.0244
467.67        71.80686
468.11        71.70733
468.55        71.43649
468.99        71.06784
469.44        70.82447
469.88        70.73621
470.32        70.76932
470.77        70.85099
471.21        70.88113
471.65        70.81431
472.10        70.69414
472.54         70.5869
472.98        70.60332
473.42        70.74362
473.87        71.06079
474.31        71.39797
474.75        71.29499
475.20        70.85046
475.64         70.7439
476.08        70.98141
476.52        70.85725
476.97        70.33595
477.41         70.3932
477.85        70.13239
478.29        69.86201
478.74         70.9558
479.18        70.83202
479.62        70.16425
480.06        69.97721
480.50        70.33461
480.95         70.4362
481.39        70.85046
481.83        70.41531
482.27        71.08015
482.72        70.78595
483.16        71.04871
483.60        71.03541
484.04        71.04893
484.48        71.06328
484.93        71.08117
485.37        70.86058
485.81        70.55637
486.25        69.99535
486.69         71.1275
487.14         70.3516
487.58         69.7701
488.02        70.13799
488.46        70.77435
488.90        70.74564
489.34        70.27697
489.79        70.86942
490.23        70.25014
490.67        70.30383
491.11        70.27513
491.55        70.01863
491.99         69.6166
492.43        69.48211
492.88        69.66147
493.32        69.95854
493.76        70.26411
494.20        70.49377
494.64        70.59507
495.08         70.6056
495.52        70.55031
495.96        70.42514
496.41         70.3303
496.85        70.40371
497.29        70.49385
497.73        70.74766
498.17        70.32144
498.61        69.85921
499.05        69.34666
499.49         69.4772
499.93        70.07874
500.37        70.20599
500.82        69.89084
501.26        69.72386
501.70        69.93394
502.14        70.33211
502.58        70.05901
503.02        70.08545
503.46        70.14996
503.90         70.2043
504.34        70.24107
504.78        70.28164
505.22        70.32636
505.66        70.36362
506.10        70.38316
506.54        70.39882
506.98        70.41437
507.42        70.44833
507.86        70.14597
508.30        70.39962
508.74         69.8459
509.18        69.55386
509.62        69.26405
510.06        69.20546
510.50        69.40164
510.94        69.79939
511.38        70.24567
511.82        70.44656
512.26        70.33497
512.70        70.00383
513.14        69.60233
513.58        69.36282
514.02        69.35107
514.46        69.49364
514.90        69.71609
515.34         69.8997
515.78         69.9962
516.22        70.03915
516.66        70.04904
517.10        70.05129
517.54        70.05497
517.98        70.04711
518.42        70.00548
518.86        69.90454
519.30        69.74928
519.74        69.55942
520.18        69.39491
520.62        69.33871
521.06        69.41087
521.50        69.59767
521.93        69.83238
522.37        69.97945
522.81        70.01105
523.25        69.94574
523.69        69.87154
524.13        69.93062
524.57        70.14151
525.01          70.453
525.45        70.73194
525.89        70.76508
526.32        70.50571
526.76        70.05885
527.20        69.57732
527.64        69.29745
528.08        69.27557
528.52        69.43606
528.96        69.67768
529.40        69.83756
529.83        69.85914
530.27        69.80315
530.71        69.70322
531.15        69.61792
531.59        69.56778
532.03        69.52435
532.46        69.47687
532.90        69.44415
533.34        69.42056
533.78        69.41748
534.22        69.42229
534.66         69.4091
535.09        69.36897
535.53        69.31995
535.97        69.28115
536.41        69.30122
536.85        69.38219
537.28        69.49744
537.72        69.60146
538.16        69.61714
538.60        69.52848
539.04        69.36752
539.47        69.15871
539.91        68.99564
540.35        68.88604
540.79        68.82433
541.22        68.80228
541.66        68.81726
542.10        68.85941
542.54        68.93549
542.97        69.03469
543.41        69.15845
543.85        69.28983
544.29        69.43234
544.72         69.5372
545.16        69.57186
545.60        69.52749
546.04        69.38628
546.47        69.21951
546.91        69.25026
547.35         69.4567
547.79        69.58038
548.22        69.55734
548.66        69.65945
549.10        69.88562
549.53        69.87029
549.97        69.52856
550.41        70.16769
550.84        69.69188
551.28          69.666
551.72        69.45764
552.15        69.68516
552.59        69.48116
553.03         69.4549
553.46        69.37489
553.90        69.33434
554.34        69.32098
554.77        69.34692
555.21        69.39701
555.65        69.32848
556.08        69.17955
556.52        69.21348
556.96        69.40751
557.39        69.57455
557.83        69.68321
558.27         69.8299
558.70        69.78962
559.14         69.9266
559.57        70.11008
560.01        70.16832
560.45        70.10115
560.88        69.89905
561.32         69.9111
561.75        69.74798
562.19        69.55277
562.63        69.33946
563.06        69.17679
563.50         69.2834
563.93        69.56259
564.37        69.72343
564.80        69.71078
565.24        69.70144
565.68        69.70366
566.11        69.71153
566.55        69.73277
566.98        69.66322
567.42        69.60719
567.85        69.58103
568.29         69.5805
568.72        69.85643
569.16        70.48498
569.60        69.85531
570.03        70.07347
570.47        70.48145
570.90         70.2448
571.34        69.93857
571.77        70.22012
572.21        70.26662
572.64        70.31845
573.08        70.27548
573.51        70.20551
573.95        70.12613
574.38        70.50459
574.82        70.31193
575.25        70.28156
575.69        70.18752
576.12         69.8272
576.56        69.42982
576.99        69.73222
577.42        69.93556
577.86        69.60307
578.29        69.52697
578.73        70.15785
579.16         69.7927
579.60        70.08617
580.03        69.82583
580.47        70.29096
580.90        70.21226
581.33        69.70652
581.77        69.78698
582.20        70.09802
582.64        70.23515
583.07        70.04533
583.51        69.70831
583.94        69.50232
584.37        69.24224
584.81        69.17258
585.24        69.69942
585.68          70.098
586.11        70.60944
586.54        69.71732
586.98        69.32722
587.41        70.12746
587.85        70.66555
588.28        70.51854
588.71        70.51738
589.15        69.83578
589.58        69.98524
590.01        69.45358
590.45        69.56176
590.88        69.93655
591.31        70.34341
591.75        70.46455
592.18        70.58175
592.61        70.94344
593.05        69.14857
593.48        70.24059
593.91        70.74007
594.35        69.47425
594.78        69.30961
595.21        69.42135
595.65         70.1682
596.08        69.59436
596.51        69.96399
596.94        70.00295
597.38        70.09414
597.81        69.98079
598.24          69.992
598.68        70.00095
599.11        69.61798
599.54         70.4214
599.97        70.66947
600.41        69.21407
600.84        69.95914
601.27        69.69985
601.70        69.97252
602.14        70.36792
602.57        70.11307
603.00        69.54899
603.43        69.55614
603.87        69.87047
604.30        70.52197
604.73        70.14097
605.16        69.82199
605.60        69.74982
606.03        69.92796
606.46        70.29793
606.89        70.59836
607.32        70.18806
607.76        70.13207
608.19        70.28322
608.62        70.22661
609.05        70.05574
609.48         70.1076
609.92         70.2821
610.35        70.50892
610.78        70.61047
611.21        69.88935
611.64        69.95168
612.07        70.04306
612.50        70.32555
612.94        70.21917
613.37        70.53312
613.80        70.43306
614.23        70.67895
614.66        70.72427
615.09        70.73991
615.52        70.63735
615.96        70.35002
616.39        70.59222
616.82        69.88363
617.25        69.95673
617.68        69.78603
618.11        70.02472
618.54        70.34942
618.97        70.31252
619.40        70.00631
619.84        69.93014
620.27         70.1468
620.70        70.47194
621.13        70.78248
621.56        70.39841
621.99        70.14466
622.42        69.74316
622.85        70.44164
623.28        70.13982
623.71        70.56275
624.14        69.72314
624.57        70.27472
625.00        70.21752
625.43        70.21696
625.86        70.02702
626.29        69.98406
626.72        70.13213
627.15        70.06474
627.58        70.30592
628.01        70.59716
628.44        70.40936
628.87          69.868
629.30        69.83612
629.73        70.29623
630.16        70.45512
630.59        70.27347
631.02          70.376
631.45        70.43961
631.88         70.4865
632.31        70.41164
632.74        70.29195
633.17        70.14818
633.60         70.0246
634.03        69.94112
634.46        69.86843
634.89        69.81864
635.32        69.82486
635.75        69.88266
636.18        69.97319
636.61        70.06052
637.04        70.09912
637.47        70.09308
637.89        70.01561
638.32        69.85638
638.75        69.80894
639.18        69.92275
639.61        69.48508
640.04         69.7279
640.47         69.7039
640.90        69.77686
641.33        69.92313
641.76         70.0884
642.18        70.16048
642.61        70.07941
643.04        69.88636
643.47        69.68909
643.90        69.64124
644.33        69.76559
644.76        70.10347
645.18        70.48743
645.61        70.44926
646.04        69.88489
646.47         69.6852
646.90        69.81821
647.33        69.77707
647.75        69.56188
648.18        69.49225
648.61        69.57801
649.04        69.70969
649.47        69.85787
649.89        69.99551
650.32        70.06358
650.75        70.12115
651.18        70.19658
651.61        70.16457
652.03        70.11665
652.46         70.4483
652.89         70.9314
653.32        70.88166
653.74        70.44252
654.17        69.86875
654.60        69.57174
655.03        70.84909
655.46        69.18051
655.88        70.26169
656.31         72.6101
656.74        73.17683
657.16        72.13718
657.59        70.09599
658.02         69.5373
658.45        71.10307
658.87        71.00934
659.30        70.60644
659.73        70.75742
660.15        71.01485
660.58        70.89085
661.01        70.81164
661.44        70.53737
661.86        70.07114
662.29        69.57982
662.72        69.72038
663.14        70.37728
663.57        70.44942
664.00        69.98177
664.42        69.87992
664.85        70.17648
665.27        70.30408
665.70        70.23215
666.13        70.22826
666.55        70.30552
666.98        70.37263
667.41        70.42024
667.83        70.43356
668.26        70.39982
668.69        70.34161
669.11        70.28237
669.54        70.24984
669.96        70.25066
670.39        70.29963
670.82        70.36861
671.24        70.35635
671.67        70.27336
672.09        70.28167
672.52        70.38643
672.94        70.52484
673.37        70.14876
673.80        70.58842
674.22        70.28938
674.65        70.42097
675.07        70.57738
675.50         70.7751
675.92        70.96371
676.35        71.05565
676.77        71.05037
677.20        70.94383
677.62        70.80743
678.05        70.76936
678.47        70.84422
678.90        70.97765
679.32        71.09341
679.75        71.10479
680.17        70.98276
680.60        70.76302
681.02        70.52457
681.45        70.38878
681.87        70.38696
682.30        70.50772
682.72        70.70339
683.15        70.72923
683.57        70.63593
684.00        70.73938
684.42         70.9912
684.85        71.10998
685.27        71.08702
685.70        70.94795
686.12        70.80944
686.54        71.15598
686.97        71.83406
687.39        72.10752
687.82        71.89877
688.24        71.80244
688.66         71.8211
689.09        71.57912
689.51        71.16113
689.94        70.90266
690.36        70.84824
690.78         70.9106
691.21        71.03558
691.63        71.15101
692.06        71.21311
692.48        71.22418
692.90        71.21067
693.33         71.2152
693.75        71.24266
694.17        71.30355
694.60        71.37198
695.02        71.28471
695.44        71.09248
695.87        71.18013
696.29        71.48232
696.71        71.42316
697.14        71.06441
697.56        70.96111
697.98         71.1487
698.41        71.28917
698.83        71.36579
699.25        71.57898
699.68        71.83366
700.10        71.93256
700.52        71.82639
700.94        71.58549
701.37        71.28789
701.79        71.08241
702.21        71.00731
702.64        71.03325
703.06        71.12859
703.48        71.25527
703.90        71.39268
704.33        71.55949
704.75        71.71088
705.17        71.84255
705.59        71.92112
706.01        71.94801
706.44        71.92554
706.86        71.86777
707.28        71.78584
707.70        71.69412
708.12        71.62922
708.55         71.6172
708.97        71.66956
709.39        71.79105
709.81        71.96156
710.23        72.13864
710.66        72.29449
711.08        72.45866
711.50        72.59189
711.92        72.66748
712.34        72.68494
712.76        72.64565
713.19        72.57799
713.61        72.58266
714.03        72.65903
714.45        72.78963
714.87        72.93173
715.29        73.01641
715.71        73.02481
716.13        72.97161
716.56        72.87353
716.98        72.85406
717.40        72.90515
717.82         73.0033
718.24        73.09404
718.66        73.09267
719.08        72.98267
719.50        72.79295
719.92        72.59032
720.34        72.47865
720.76        72.48335
721.19        72.56709
721.61        72.67966
722.03        72.71004
722.45        72.63232
722.87        72.48141
723.29        72.32027
723.71        72.24952
724.13        72.29491
724.55        72.42222
724.97        72.58081
725.39        72.68813
725.81        72.72218
726.23        72.71426
726.65        72.69303
727.07        72.70495
727.49         72.7609
727.91        72.82967
728.33        72.91008
728.75        73.00907
729.17        73.12756
729.59        73.24266
730.01        73.28744
730.43        73.25766
730.85        73.17045
731.27        72.64331
731.69        72.51687
732.10        72.41515
732.52        72.59358
732.94        72.98611
733.36        73.45581
733.78        73.77483
734.20        73.86202
734.62        73.68344
735.04        73.40857
735.46        73.51786
735.88        73.98005
736.30        74.23153
736.72        74.16044
737.13        74.15462
737.55        74.13471
737.97        73.59888
738.39        72.80058
738.81        72.67268
739.23        73.18974
739.65        73.54955
740.06        73.58326
740.48        73.63776
740.90        73.65919
741.32        73.41757
741.74        73.02242
742.16        72.84126
742.57        72.95496
742.99        73.14877
743.41        73.37901
743.83        73.75595
744.25        74.15208
744.67        74.16886
745.08        73.87165
745.50        73.74124
745.92        73.83234
746.34        73.85709
746.75        73.82555
747.17        73.87334
747.59          73.994
748.01        74.18987
748.42        74.40011
748.84        74.40062
749.26        74.22264
749.68        74.11023
750.09        74.07667
750.51        74.00929
750.93        73.91117
751.35        73.87334
751.76        73.91605
752.18        74.00938
752.60        74.14567
753.01        74.34329
753.43        74.52438
753.85        74.59106
754.27        74.53773
754.68         74.4201
755.10        74.29895
755.52        74.27541
755.93        74.35047
756.35        74.46133
756.77        74.64375
757.18        74.85547
757.60         75.0654
758.02        75.58298
758.43        76.14259
758.85        75.64864
759.26        74.39211
759.68        74.01871
760.10         74.5774
760.51        74.82319
760.93         74.6854
761.34        74.91373
761.76         75.3578
762.18         75.3528
762.59        74.92102
763.01        74.40303
763.42        74.00549
763.84        73.82598
764.26         73.9423
764.67        74.23987
765.09        74.65621
765.50        75.21182
765.92        75.75758
766.33        75.87723
766.75        75.51626
767.16         75.2868
767.58        75.20625
768.00        74.87532
768.41        74.42895
768.83        74.44326
769.24        74.76092
769.66        75.06944
770.07        74.48146
770.49        74.51559
770.90        74.88943
771.32        75.10924
771.73        75.14716
772.15        75.19432
772.56        75.27467
772.97        75.47842
773.39         75.2566
773.80         75.5893
774.22        75.56804
774.63        75.80174
775.05        75.96239
775.46         75.9856
775.88        75.82547
776.29         75.5735
776.70        75.30196
777.12        75.12471
777.53        75.07832
777.95        75.10267
778.36        75.21724
778.77        75.37132
779.19        75.53123
779.60        75.93504
780.02        76.39976
780.43        76.26852
780.84        75.72192
781.26        75.67742
781.67        76.17365
782.09        76.75916
782.50        77.20016
782.91          77.077
783.33        76.46857
783.74        76.10593
784.15        76.04537
784.57        75.89926
784.98        75.56171
785.39        75.43461
785.81         75.5676
786.22        75.81362
786.63        76.15949
787.04        76.55715
787.46        76.97048
787.87        77.37099
788.28        77.72134
788.70        77.96188
789.11        78.06739
789.52        78.06546
789.93        77.96723
790.35        77.79157
790.76        77.57789
791.17        77.34155
791.58        77.15077
792.00        77.05274
792.41        77.07625
792.82        77.28917
793.23        77.62586
793.65        77.72143
794.06        77.65955
794.47        78.00306
794.88        78.58537
795.29        78.70673
795.71        78.30061
796.12        77.76905
796.53        77.30842
796.94        77.11717
797.35        77.30515
797.76        77.86582
798.18        78.56767
798.59        79.02649
799.00        79.11467
799.41        78.95782
799.82        78.68102
800.23        78.48876
800.64         78.4566
801.06        78.49213
801.47         78.5896
801.88        78.66269
802.29          78.679
802.70        78.66134
803.11         78.6372
803.52        78.63918
803.93        78.68559
804.34        78.77112
804.75        78.83321
805.17        78.83038
805.58        78.79433
805.99        78.54115
806.40        78.21503
806.81        78.49833
807.22        79.21339
807.63        79.25614
808.04        78.68671
808.45          78.562
808.86        78.94515
809.27        79.21889
809.68         79.2825
810.09        79.28339
810.50        79.20667
810.91        79.01059
811.32        78.80801
811.73        78.78351
812.14        78.97247
812.55         79.3308
812.96        79.73153
813.37         79.9285
813.78        79.85214
814.19        79.59132
814.60        79.25531
815.01        78.99534
815.42        78.85435
815.83        78.78092
816.24        78.76645
816.65        78.79865
817.05        78.86479
817.46        78.94298
817.87        79.01836
818.28         78.9994
818.69        78.87828
819.10        78.67957
819.51        78.48144
819.92        78.43563
820.33        78.57897
820.74        78.84492
821.14        79.16975
821.55        79.46604
821.96         79.6894
822.37        79.87443
822.78        79.96657
823.19        79.87581
823.60        79.59844
824.00        79.15546
824.41         78.6934
824.82        78.47593
825.23        78.55483
825.64        78.88323
826.04        79.29344
826.45        79.38798
826.86        79.10722
827.27        78.57177
827.68        78.01595
828.08        77.83647
828.49        78.08208
828.90        78.66086
829.31         79.4041
829.72        80.01826
830.12        80.42329
830.53        80.61458
830.94        80.69659
831.35        80.80061
831.75        80.98768
832.16        81.11855
832.57        81.17358
832.97        81.09109
833.38        80.87094
833.79        80.61379
834.20        80.33025
834.60        79.99535
835.01        79.66367
835.42        79.31223
835.82        79.12306
836.23        79.32436
836.64        79.95806
837.04        80.97173
837.45        81.94874
837.86        82.35389
838.26        82.04811
838.67        81.21063
839.08        80.18151
839.48        79.47379
839.89        79.27986
840.29        79.43562
840.70        79.81909
841.11        80.24918
841.51        80.65668
841.92        81.05742
842.33        81.41325
842.73        81.62688
843.14        81.62769
843.54        81.47224
843.95        81.22163
844.35         81.0625
844.76        81.02223
845.17        81.03578
845.57        81.12212
845.98         81.2674
846.38        81.46418
846.79        81.71629
847.19        81.86501
847.60        81.58131
848.00        80.86474
848.41        79.85218
848.81        78.89351
849.22        78.51442
849.62        78.85897
850.03        79.71862
850.43        80.88251
850.84        81.72776
851.24        82.10425
851.65        82.07378
852.05        81.77381
852.46        81.38751
852.86        81.00274
853.27        80.64111
853.67        80.26745
854.07        80.04827
854.48         79.9373
854.88        79.95511
855.29        79.98993
855.69        80.03972
856.10         79.9669
856.50        79.89742
856.90        79.75135
857.31        79.46288
857.71        79.09227
858.12        78.62247
858.52        78.24606
858.92        78.21873
859.33        78.56689
859.73        79.25941
860.13        80.06493
860.54        80.61261
860.94        80.83675
861.34        80.72516
861.75        80.37304
862.15         80.0352
862.55         79.7626
862.96        79.53912
863.36        79.21268
863.76        78.56163
864.17        77.62028
864.57        76.53595
864.97        75.61096
865.38        75.23676
865.78        75.51873
866.18        76.30379
866.58        77.38141
866.99        78.27892
867.39        78.83182
867.79        79.11272
868.19        79.08937
868.60        78.73177
869.00         78.1062
869.40        77.20692
869.80        76.40263
870.21        76.32946
870.61        77.14563
871.01        78.62048
871.41        80.18723
871.81        80.92891
872.22        80.61464
872.62        79.50832
873.02        78.06715
873.42        77.07506
873.82        76.79247
874.22        77.02168
874.63        77.46838
875.03        77.67276
875.43        77.51967
875.83        77.16915
876.23        76.89303
876.63        77.11327
877.03        77.89214
877.44        78.99379
877.84        80.10246
878.24        80.62294
878.64        80.42137
879.04        79.73201
879.44        78.83936
879.84        78.15594
880.24        77.80539
880.64        77.64748
881.04        77.69168
881.44         77.9467
881.84         78.3753
882.24        79.01818
882.65        79.60579
883.05        79.79874
883.45        79.47601
883.85        78.77273
884.25        78.06872
884.65        77.96445
885.05        78.55666
885.45        79.59743
885.85        80.79295
886.25        81.63218
886.65        81.91346
887.05        81.82583
887.45        81.31097
887.85        80.30104
888.25        78.95807
888.65        77.39993
889.04        76.07587
889.44        75.66158
889.84        76.17981
890.24        77.50008
890.64        79.17296
891.04        80.21613
891.44        80.26917
891.84        79.61607
892.24         78.7367
892.64        78.31151
893.04         78.4853
893.44        79.02621
893.83        79.74492
894.23        80.23666
894.63        80.39724
895.03         80.3808
895.43        80.27473
895.83        80.19167
896.23        80.16837
896.63        80.11661
897.02        80.05323
897.42        80.08569
897.82        80.19606
898.22        80.40726
898.62        80.54488
899.01        80.31716
899.41         79.6859
899.81        78.76449
900.21        77.89185
900.61        77.58958
901.00        77.94661
901.40        78.79695
901.80        79.75442
902.20        80.17618
902.59        79.89417
902.99        79.11395
903.39        78.17247
903.79        77.57336
904.18        77.45779
904.58        77.70697
904.98        78.11668
905.38        78.39255
905.77        78.42027
906.17        78.27308
906.57        78.12087
906.96        78.25311
907.36        78.68288
907.76         79.3477
908.15        79.92063
908.55        79.74467
908.95        78.79494
909.34        77.29712
909.74        75.91689
910.14        75.52847
910.53        76.34222
910.93        78.03412
911.33        80.10492
911.72        81.75975
912.12         82.6301
912.52        82.91523
912.91        82.84926
913.31        82.82864
913.70        82.99609
914.10        83.17283
914.49        83.15903
914.89        82.66707
915.29        81.70319
915.68        80.45396
916.08        79.29786
916.47        78.64631
916.87        78.65405
917.26         79.1572
917.66        79.93315
918.05        80.63894
918.45        81.07506
918.84        81.35988
919.24        81.45947
919.64        81.48826
920.03        81.49313
920.42        81.40763
920.82        81.25509
921.21        80.99063
921.61        80.64387
922.00         80.2646
922.40        79.96278
922.79        80.00292
923.19        80.38049
923.58        81.01544
923.98        81.66765
924.37        81.97512
924.77        81.84623
925.16        81.39964
925.55        80.79395
925.95         80.2992
926.34        80.04535
926.74        79.95496
927.13        79.98777
927.52        80.04526
927.92        80.08552
928.31        80.09988
928.70        80.13456
929.10        80.23331
929.49        80.39645
929.89        80.58636
930.28        80.65812
930.67        80.29738
931.07        79.49661
931.46        78.41428
931.85        77.41895
932.24        77.05058
932.64        77.42518
933.03        78.41218
933.42        79.68632
933.82        80.64632
934.21        81.09544
934.60        81.07886
934.99        80.88837
935.39        81.01042
935.78        81.61617
936.17        82.53403
936.56        83.21436
936.96         82.8117
937.35        81.25302
937.74        78.95737
938.13        76.80749
938.53        75.90753
938.92        76.39905
939.31        78.02256
939.70        80.09039
940.09        81.26043
940.49        81.07357
940.88        79.92807
941.27        78.53186
941.66        77.94838
942.05        78.42564
942.44        79.66995
942.84        81.07699
943.23        81.66547
943.62        81.09741
944.01        79.73462
944.40        78.32422
944.79        77.93559
945.18        78.78342
945.57         80.5341
945.97         82.4168
946.36        83.35616
946.75         82.9092
947.14        81.44248
947.53        79.68733
947.92        78.73594
948.31        78.87544
948.70        79.82023
949.09        80.98726
949.48        81.34561
949.87        80.61787
950.26        79.17606
950.65        77.71594
951.04        77.17274
951.43        77.73798
951.82        79.15574
952.21        80.79245
952.60        81.50144
952.99        80.94852
953.38        79.49371
953.77        77.95881
954.16        77.44073
954.55        78.16497
954.94        79.92966
955.33        81.96407
955.72        82.62402
956.11        81.40205
956.50        78.88489
956.89        76.38257
957.28        75.59859
957.66        76.88145
958.05        79.68727
958.44        82.96601
958.83        84.56986
959.22        83.79321
959.61        81.40907
960.00        78.63604
960.39        77.01146
960.78        76.83073
961.16         77.6641
961.55        78.87775
961.94        79.35484
962.33         78.7198
962.72         77.5033
963.11        76.21707
963.49        75.49403
963.88        75.49472
964.27         75.9463
964.66        76.75844
965.04        77.86064
965.43        79.02549
965.82        80.29652
966.21        81.38898
966.60        81.77714
966.98        81.38664
967.37         80.4412
967.76        79.30116
968.15        78.46364
968.53        78.03982
968.92        77.83858
969.31        77.94773
969.69        78.52848
970.08        79.47235
970.47        80.87276
970.86        82.11678
971.24        82.15517
971.63        80.80189
972.02        78.44295
972.40        76.13022
972.79        75.54503
973.17        76.96746
973.56        79.77846
973.95        83.05463
974.33        85.01825
974.72        84.98897
975.11        83.55431
975.49        81.51892
975.88        80.42052
976.26        80.65605
976.65        81.68807
977.04        83.05064
977.42        83.91693
977.81        83.82359
978.19        83.18523
978.58        82.27917
978.96        81.39423
979.35        80.73762
979.74        80.24667
980.12        80.02337
980.51        80.19996
980.89        80.85059
981.28         81.7602
981.66        83.03984
982.05        84.54533
982.43        86.26952
982.82         88.1196
983.20        89.52538
983.59        89.41412
983.97        87.68947
984.35        84.73118
984.74        81.81001
985.12        80.65962
985.51        81.55039
985.89        84.11707
986.28        87.09577
986.66        88.70959
987.04        88.26056
987.43        86.28765
987.81        83.75208
988.20        82.60621
988.58        83.33485
988.96        85.36366
989.35        87.41088
989.73        87.66631
990.12        85.64513
990.50        82.13827
990.88        78.24313
991.27        75.71165
991.65        75.02725
992.03        75.68064
992.42        77.18559
992.80        79.10103
993.18          81.056
993.56        83.22964
993.95        85.16108
994.33        86.13876
994.71        85.86414
995.10        84.54747
995.48         82.8134
995.86        81.73952
996.24        81.61699
996.63        82.10456
997.01        83.09801
997.39            84.1
997.77        84.84196
998.15        85.48506
998.54        85.84797
998.92          85.647
999.30        84.87482
999.68        83.60809
1000.06        82.26624
1000.45        81.63657
1000.83        82.06329
1001.21        83.32973
1001.59        85.14423
1001.97        86.97868
1002.35        88.54523
1002.73        89.86931
1003.12        90.78964
1003.50        91.00803
1003.88        90.55689
1004.26        89.56275
1004.64        88.20521
1005.02        86.87591
1005.40        85.78812
1005.78        84.86996
1006.16        84.33279
1006.54        84.41663
1006.92        85.09623
1007.30         86.4025
1007.69        87.71233
1008.07         87.8808
1008.45        86.47699
1008.83        83.81713
1009.21        80.98192
1009.59        79.82767
1009.97        80.83117
1010.35        83.39028
1010.73        86.60812
1011.11        88.98324
1011.49        89.98418
1011.86        90.11697
1012.24        89.47028
1012.62         88.3802
1013.00        87.02396
1013.38        85.20422
1013.76        83.26172
1014.14        82.05305
1014.52        81.87499
1014.90        82.61168
1015.28        83.67316
1015.66        83.97849
1016.04        83.25286
1016.41        81.89291
1016.79        80.17484
1017.17        78.87876
1017.55        78.42123
1017.93        78.52927
1018.31         79.1602
1018.69        80.45014
1019.06        82.61415
1019.44        85.81461
1019.82        90.12867
1020.20        94.04311
1020.58        95.80872
1020.95        95.16171
1021.33        93.23378
1021.71        91.33132
1022.09        89.58654
1022.46        87.52836
1022.84        84.83897
1023.22        81.04868
1023.60        77.11874
1023.97        74.10826
1024.35        72.73006
1024.73        73.26295
