SpectraSmart Spectrum 2.9.0.0
--------- Device Information -----------
Spectrum Name :  反射率_0
Saving Time :  2024/04/30 00:31:13
Spectro-Module Model Name : SE2030-DUVN
Spectro-Module Serial Number : OS361AC55029948
Wavelength Start : 200
Wavelength End : 1025
Wavelength Unit : Wavelength(nm)
Spectrum Unit : Reflectance(%)
-----------Spectrum Setting ------------
Integration Time : 20ms
Average : 10
Boxcar : 0
Background removal :  enabled
linearity correction :  enabled
SC :  disabled
Intensity correction :  disabled
DWT denoise :  enabled
savitzky-golay :  disabled
FFT :  disabled
Running average :  disabled
Kalman :  disabled
High pass :  disabled
---------------BEGIN--------------------
Wavelength(nm)             Reflectance(%)
200.29               0
200.75        71.04835
201.21        54.63296
201.67        38.63505
202.13        29.77941
202.58        31.09147
203.04        41.38812
203.50        58.73503
203.96        77.79911
204.42        93.92422
204.88        106.4482
205.34        110.4658
205.80        101.9519
206.26        86.16895
206.72        69.14267
207.18        55.89136
207.64        48.98908
208.10        47.08528
208.55        48.40914
209.01        52.07423
209.47        56.30434
209.93        59.54554
210.39        62.15102
210.85         63.5079
211.31        63.15086
211.77        61.05948
212.23        56.41937
212.69        50.04844
213.14        47.74858
213.60        51.61717
214.06        58.84676
214.52        65.03926
214.98        67.28915
215.44         66.2939
215.90        63.30976
216.36        60.17561
216.81        60.47099
217.27         66.1305
217.73         77.2534
218.19        93.19341
218.65        106.2594
219.11        109.6062
219.57        105.0653
220.02        97.82463
220.48        92.29526
220.94        87.79656
221.40        82.58356
221.86        75.64587
222.32        68.10931
222.77        62.72316
223.23        60.74423
223.69        60.24583
224.15        59.37821
224.61        57.77066
225.06        55.44302
225.52        53.43424
225.98        53.75092
226.44        56.28484
226.90        59.48317
227.36         61.7839
227.81        62.13098
228.27        60.81827
228.73        58.19005
229.19        55.19258
229.65        53.93276
230.10         54.8207
230.56        56.83015
231.02        58.71397
231.48        59.46299
231.93        59.01732
232.39        57.86634
232.85        56.43782
233.31        55.58781
233.77        55.62459
234.22        56.40709
234.68        57.37428
235.14        57.59812
235.60         56.8936
236.05        55.60346
236.51        54.58966
236.97        54.92539
237.43         56.9174
237.88        60.73623
238.34        65.67565
238.80        69.62984
239.26        70.86631
239.71         69.7448
240.17         67.3801
240.63        65.77911
241.08        65.65534
241.54        66.69505
242.00         69.6918
242.46        75.16108
242.91        82.20901
243.37        88.90313
243.83        93.92439
244.28        97.95547
244.74        101.6051
245.20        103.9563
245.66        105.1764
246.11        105.8672
246.57         106.187
247.03        107.7279
247.48        107.5149
247.94        99.98758
248.40        88.52552
248.85        77.37856
249.31        71.65849
249.77        73.60562
250.22        83.41074
250.68        103.4836
251.14        133.4402
251.59        149.3058
252.05        135.0719
252.51        109.9512
252.96         90.8225
253.42        83.13738
253.88        83.11862
254.33        87.37746
254.79        93.27299
255.25        95.07943
255.70        91.89598
256.16        87.60912
256.62        84.16403
257.07        82.55835
257.53        82.75864
257.99        83.60224
258.44        83.84714
258.90        82.80255
259.35        80.29856
259.81        77.69493
260.27        75.43482
260.72        73.84423
261.18        73.03808
261.63        72.36562
262.09        71.77546
262.55        70.82764
263.00        69.44624
263.46        68.07452
263.91        66.60093
264.37        65.26369
264.83        63.97358
265.28        62.63473
265.74        61.45629
266.19        60.50149
266.65        59.86488
267.11        59.42876
267.56        59.04753
268.02        58.53381
268.47        57.78572
268.93        56.86969
269.38        55.77704
269.84          54.629
270.30         53.4862
270.75        52.34272
271.21        51.26466
271.66        50.26944
272.12        49.35822
272.57        48.49265
273.03        47.66609
273.48        46.76794
273.94        45.85511
274.39        44.90664
274.85        44.01909
275.31        43.21687
275.76        42.47427
276.22        41.81298
276.67         41.1573
277.13        40.52742
277.58        39.86477
278.04        39.23388
278.49        38.58285
278.95        37.95676
279.40        37.31169
279.86        36.71951
280.31        36.15171
280.77        35.70668
281.22        35.34411
281.68        35.07686
282.13        34.85684
282.59         34.6896
283.04        34.52826
283.50        34.37498
283.95        34.17426
284.41        33.87501
284.86        33.46476
285.32        33.02247
285.77        32.56145
286.22        32.18401
286.68        31.92785
287.13        31.72723
287.59        31.62374
288.04        31.61043
288.50        31.68663
288.95        31.80262
289.41        31.90491
289.86        31.86069
290.32        31.68609
290.77        31.43011
291.22        31.17053
291.68         31.0245
292.13         31.0337
292.59        31.20947
293.04        31.59984
293.50         32.3094
293.95        33.33278
294.40        34.65002
294.86        36.11988
295.31         37.5265
295.77        38.80175
296.22        39.97181
296.68        41.15771
297.13        42.53199
297.58        44.13715
298.04        45.88341
298.49        47.63669
298.95        49.20873
299.40        50.55316
299.85        51.74919
300.31        52.94032
300.76        54.25908
301.21        55.78015
301.67         57.4817
302.12        59.24928
302.58         61.0596
303.03        62.85405
303.48        64.59144
303.94        66.34009
304.39        68.48951
304.84        70.48163
305.30        72.72551
305.75        74.88666
306.20        76.79484
306.66        78.42462
307.11        79.77788
307.57        81.03712
308.02        82.34565
308.47        83.79029
308.93        85.32833
309.38        86.83836
309.83        88.21197
310.29        89.41674
310.74        90.47614
311.19        91.42582
311.65        92.30151
312.10        93.10854
312.55        93.86179
313.00        94.61244
313.46        95.44607
313.91        96.35666
314.36        97.31764
314.82         98.2766
315.27        99.17374
315.72        99.95406
316.18        100.6344
316.63        101.1575
317.08        101.4533
317.53         101.545
317.99        101.4938
318.44        101.4147
318.89        101.5063
319.35        101.8193
319.80        102.2991
320.25        102.9085
320.70        103.5762
321.16        104.2246
321.61        104.9098
322.06        105.5031
322.51        105.8189
322.97        105.8229
323.42        105.5735
323.87        105.2433
324.32        105.1397
324.78        105.3263
325.23        105.7986
325.68        106.3913
326.13        106.8158
326.59        106.9704
327.04        106.9669
327.49        106.9666
327.94        107.2859
328.39        107.9791
328.85        108.8808
329.30        109.8122
329.75        110.2632
330.20        110.1105
330.66        109.5167
331.11        108.7918
331.56        108.3523
332.01         108.364
332.46        108.7311
332.92          109.34
333.37        110.1378
333.82        110.9933
334.27        111.9239
334.72        112.8778
335.17        113.7653
335.63        114.5133
336.08        115.1642
336.53        115.6346
336.98        115.8884
337.43        115.9473
337.88        115.8445
338.34        115.7294
338.79        115.8556
339.24        116.2769
339.69        116.9497
340.14        117.7201
340.59        118.3074
341.05        118.6385
341.50        118.7982
341.95         118.899
342.40        119.1445
342.85         119.582
343.30        120.1149
343.75          120.68
344.20        121.1821
344.66        121.6039
345.11        122.0098
345.56        122.3514
346.01        122.5359
346.46        122.5786
346.91        122.4916
347.36        122.5083
347.81         122.993
348.26        123.9744
348.72        125.3069
349.17        126.6488
349.62        127.3459
350.07        127.2435
350.52        126.5738
350.97        125.7006
351.42        125.1823
351.87        125.1795
352.32        125.5161
352.77        126.0684
353.22        126.6382
353.67        127.1088
354.13        127.5131
354.58        127.7667
355.03        127.7193
355.48        127.3432
355.93        126.6653
356.38        125.7737
356.83        124.8246
357.28        123.8871
357.73        122.9573
358.18        122.0642
358.63        121.2349
359.08        120.4763
359.53        119.7978
359.98        119.1736
360.43        118.5485
360.88        117.9059
361.33        117.2544
361.78        116.5986
362.23        115.9514
362.68        115.3159
363.13        114.6814
363.58        114.0516
364.03        113.4352
364.48        112.8283
364.93        112.2228
365.38        111.6084
365.83        110.9725
366.28         110.315
366.73         109.645
367.18        108.9625
367.63        108.2637
368.08        107.5483
368.53        106.8187
368.98        106.0992
369.43        105.4232
369.88        104.8121
370.33        104.2829
370.78        103.8004
371.23        103.3077
371.68        102.7866
372.13        102.2158
372.58        101.6886
373.03        101.3604
373.48        101.2225
373.93        101.2056
374.38        101.0675
374.83         100.425
375.28        99.24812
375.72        97.69736
376.17        96.15807
376.62        95.01623
377.07        94.36167
377.52        94.04902
377.97        93.97574
378.42        93.97286
378.87        93.94346
379.32        93.92297
379.77        93.81103
380.22        93.45387
380.67        92.83028
381.11        91.96408
381.56        90.99793
382.01        90.21146
382.46        89.69862
382.91        89.41376
383.36        89.22758
383.81        88.92243
384.26        88.44662
384.71        87.86491
385.15        87.29337
385.60        86.96904
386.05        86.90166
386.50        87.00243
386.95        87.09835
387.40         86.9342
387.85        86.47443
388.29        85.77428
388.74        85.10445
389.19        84.61159
389.64        84.32413
390.09        84.14773
390.54        84.01871
390.98        83.83025
391.43        83.58763
391.88         83.3085
392.33        82.94106
392.78        82.50934
393.23        82.02401
393.67        81.26944
394.12        80.44625
394.57        80.39541
395.02        79.99856
395.47        80.18546
395.91        80.48002
396.36        80.56884
396.81        80.38562
397.26        80.06106
397.71        79.70169
398.15        79.35886
398.60        79.14931
399.05        79.03765
399.50        78.94814
399.95        78.75799
400.39        78.22615
400.84        78.18423
401.29        78.42548
401.74        78.34509
402.18        77.85519
402.63        77.09503
403.08        76.35558
403.53        76.09673
403.97        76.36106
404.42        76.91438
404.87        77.49104
405.32        77.64098
405.76        77.23612
406.21        76.70577
406.66        76.17551
407.11        75.27971
407.55        74.41167
408.00        74.76383
408.45        76.09364
408.90        76.85735
409.34        76.75778
409.79        76.29673
410.24        75.74881
410.68        75.50775
411.13        75.65854
411.58        75.92924
412.03         76.1478
412.47        76.16814
412.92        75.90688
413.37        75.46146
413.81        74.94485
414.26        74.60245
414.71        74.45306
415.15        74.43666
415.60        74.49554
416.05        74.58537
416.49         74.6825
416.94        74.80764
417.39         74.9073
417.83         74.8765
418.28        74.70922
418.73        74.42015
419.17        74.14041
419.62        74.10135
420.07        74.31933
420.51        74.70034
420.96        75.08992
421.41        75.15525
421.85        74.82108
422.30         74.4068
422.74        73.97749
423.19        73.47043
423.64        73.03379
424.08        73.21939
424.53        73.90445
424.98         74.3501
425.42        74.43995
425.87        74.71182
426.31        74.99329
426.76        74.73039
427.21        73.89449
427.65        73.64665
428.10        73.87113
428.54        73.73009
428.99        73.27023
429.44        72.82758
429.88        72.56921
430.33        72.82949
430.77         73.3942
431.22        73.96636
431.66        74.39034
432.11        74.16312
432.56        73.40902
433.00        73.27511
433.45         74.0299
433.89        73.81174
434.34        74.11143
434.78        75.63313
435.23        73.51498
435.67        73.00468
436.12        72.75375
436.57        72.85734
437.01        73.21452
437.46        73.52009
437.90        73.71362
438.35        74.20234
438.79        74.83323
439.24        75.03688
439.68        74.80602
440.13        74.61294
440.57         74.5992
441.02        74.57167
441.46        74.50086
441.91        75.17322
442.35        75.25944
442.80        75.42035
443.24        75.27645
443.69        74.96268
444.13        74.59081
444.58        74.33885
445.02        74.17912
445.47        74.21675
445.91        74.41901
446.36        74.36028
446.80        73.91837
447.24        74.71458
447.69         74.0794
448.13        74.18827
448.58        74.26656
449.02        74.33778
449.47          74.399
449.91        74.46539
450.36        74.56831
450.80        74.66026
451.25        74.73163
451.69        74.72844
452.13        74.65287
452.58        74.55111
453.02        74.45349
453.47        74.40188
453.91        74.39272
454.36        74.55328
454.80        74.52936
455.24        74.65993
455.69        75.02654
456.13        74.85502
456.58        74.36152
457.02        74.07051
457.46        74.06533
457.91        74.14708
458.35        74.18683
458.79        74.13645
459.24        74.00893
459.68        73.81655
460.13        73.63472
460.57        73.61697
461.01        73.66882
461.46         73.6966
461.90        73.63161
462.34        73.92797
462.79        74.07563
463.23        73.81739
463.68        73.14841
464.12        72.70004
464.56        72.51491
465.01        72.33304
465.45        72.18238
465.89        72.16047
466.34        72.14564
466.78        73.10258
467.22         72.7657
467.67         72.7552
468.11        72.46352
468.55        72.07316
468.99        71.67451
469.44        71.30936
469.88        71.05019
470.32        70.95452
470.77        70.97884
471.21        71.00706
471.65        70.99008
472.10        70.97931
472.54        70.98549
472.98         71.0175
473.42         71.0584
473.87        71.22099
474.31         71.4063
474.75        71.17448
475.20        70.69156
475.64        70.75337
476.08        71.25616
476.52        71.26181
476.97        70.71748
477.41        70.40384
477.85        70.05302
478.29        69.66896
478.74        70.57692
479.18        70.49833
479.62        69.98642
480.06        69.88377
480.50        70.22642
480.95        70.19824
481.39        70.88425
481.83         70.0285
482.27        70.89518
482.72        70.47028
483.16        70.62325
483.60        70.63605
484.04         70.8425
484.48        70.97876
484.93        70.87421
485.37        71.41051
485.81        70.13134
486.25         69.8205
486.69        71.56946
487.14          70.661
487.58        70.11137
488.02         70.0138
488.46        70.66466
488.90        70.71749
489.34        70.15414
489.79         70.4072
490.23        69.80045
490.67        69.86674
491.11        70.01662
491.55        69.87846
491.99        69.50024
492.43        69.37793
492.88        69.54288
493.32        69.73585
493.76         69.8839
494.20         70.0132
494.64        70.09386
495.08        70.11494
495.52        70.09854
495.96        70.04611
496.41        69.95973
496.85        70.01418
497.29        69.91553
497.73        69.80627
498.17        69.60306
498.61         69.5293
499.05        69.17167
499.49        69.19542
499.93        69.37881
500.37        69.29013
500.82        68.96438
501.26        68.85778
501.70        68.99227
502.14        69.09636
502.58         69.1644
503.02        69.30721
503.46        69.51274
503.90        69.73923
504.34        69.93677
504.78        70.02078
505.22        69.96889
505.66        69.81321
506.10        69.59924
506.54        69.37804
506.98        69.35694
507.42        69.24867
507.86         69.0219
508.30         69.3223
508.74         68.8746
509.18        68.71973
509.62        68.57352
510.06        68.61385
510.50        68.84669
510.94        69.22925
511.38        69.61607
511.82        69.73569
512.26        69.53466
512.70        69.10182
513.14        68.60828
513.58        68.31773
514.02        68.30058
514.46        68.48129
514.90         68.7512
515.34        68.93118
515.78        68.96036
516.22        68.88849
516.66        68.78041
517.10        68.73225
517.54        68.76796
517.98        68.85257
518.42        68.91697
518.86        68.86047
519.30        68.66957
519.74        68.38713
520.18        68.11832
520.62         68.0157
521.06        68.11497
521.50        68.37982
521.93          68.702
522.37        68.87901
522.81        68.86705
523.25        68.70912
523.69        68.53186
524.13         68.5356
524.57        68.75139
525.01        69.10552
525.45        69.43935
525.89        69.49794
526.32        69.22461
526.76        68.74602
527.20        68.22303
527.64        67.90189
528.08        67.84675
528.52        67.97446
528.96        68.20708
529.40          68.421
529.83        68.55804
530.27        68.66155
530.71        68.71295
531.15        68.68718
531.59         68.5895
532.03         68.4222
532.46        68.22317
532.90        68.08725
533.34         68.0282
533.78        68.04582
534.22        68.11765
534.66        68.15658
535.09        68.13169
535.53        68.25282
535.97        68.20085
536.41        68.24121
536.85        68.27798
537.28        68.30157
537.72        68.30049
538.16        68.26224
538.60        68.18707
539.04        68.08404
539.47        67.94741
539.91        67.82109
540.35        67.70087
540.79        67.59915
541.22        67.52164
541.66        67.48817
542.10        67.49631
542.54        67.54037
542.97        67.61443
543.41        67.72791
543.85        67.86327
544.29        68.02726
544.72        68.14748
545.16        68.15131
545.60        68.02597
546.04        67.76785
546.47        67.49556
546.91        67.49836
547.35        67.77461
547.79        68.06271
548.22        68.22839
548.66        68.43283
549.10        68.65438
549.53        68.52152
549.97        68.02084
550.41        68.64538
550.84        68.31672
551.28        68.30501
551.72        67.98093
552.15        68.11511
552.59        67.86386
553.03        67.80762
553.46        67.70959
553.90        67.65553
554.34        67.62744
554.77        67.67671
555.21        67.78646
555.65        67.71731
556.08        67.56989
556.52        67.66516
556.96        67.95102
557.39         68.0638
557.83        68.01556
558.27        67.97787
558.70        67.99843
559.14        68.08526
559.57        68.19051
560.01        68.27185
560.45        68.29528
560.88        68.08723
561.32        68.01762
561.75        67.85697
562.19         67.7487
562.63        67.67039
563.06        67.63036
563.50        67.69412
563.93        67.79662
564.37        67.85705
564.80        67.83642
565.24        67.79282
565.68        67.74937
566.11        67.72525
566.55        67.83409
566.98        67.85616
567.42        67.88931
567.85        67.95036
568.29        68.03161
568.72        68.22247
569.16        68.64429
569.60         68.1051
570.03        68.65062
570.47        68.64944
570.90         68.7751
571.34        68.13253
571.77        68.65675
572.21        68.73615
572.64        68.87607
573.08        68.80679
573.51        68.54212
573.95        68.62314
574.38        69.29202
574.82        68.57975
575.25        68.60539
575.69        68.97469
576.12        68.32044
576.56        68.13104
576.99        68.12719
577.42        68.29011
577.86        68.20714
578.29        68.22823
578.73        69.08191
579.16        68.73746
579.60        68.30454
580.03        68.23175
580.47        68.68091
580.90        68.72391
581.33        68.45248
581.77        68.51034
582.20        68.89522
582.64        69.02966
583.07        68.50183
583.51        68.11292
583.94        68.02542
584.37        67.60567
584.81        67.17039
585.24        67.69915
585.68        68.42019
586.11        69.20803
586.54        68.34966
586.98        68.10777
587.41         68.7062
587.85        69.07985
588.28        68.87507
588.71        69.24997
589.15        68.33688
589.58        68.12974
590.01        67.63051
590.45        67.75154
590.88        68.29999
591.31        68.64922
591.75        68.50125
592.18        68.68021
592.61        69.02895
593.05        67.44455
593.48        68.24825
593.91        69.01519
594.35        68.07183
594.78        67.53827
595.21         67.4237
595.65        67.85696
596.08        67.42255
596.51        67.75527
596.94        68.09396
597.38        68.21264
597.81         67.8777
598.24        68.27647
598.68        68.12717
599.11        67.52007
599.54        68.27859
599.97        68.86942
600.41        67.55147
600.84        67.93117
601.27        67.87375
601.70        68.19286
602.14        68.44539
602.57        68.06801
603.00        67.28336
603.43        67.19841
603.87         67.6334
604.30        67.83235
604.73        67.71795
605.16        67.70171
605.60        67.77439
606.03        67.93945
606.46        68.05749
606.89        68.19877
607.32        67.85213
607.76        67.83717
608.19        67.88926
608.62        67.84391
609.05         67.6508
609.48        67.96774
609.92         67.9103
610.35        67.78719
610.78        68.26765
611.21        67.61114
611.64        67.58147
612.07        68.02612
612.50        67.90144
612.94        67.61654
613.37        68.24348
613.80        67.85433
614.23        68.23808
614.66        68.23872
615.09        68.28614
615.52        68.33959
615.96        68.29629
616.39        68.27719
616.82        67.57372
617.25        67.43503
617.68        67.49512
618.11        67.63685
618.54        67.70418
618.97        67.70406
619.40        67.49271
619.84        67.47472
620.27        67.60214
620.70        67.86535
621.13        68.16884
621.56        67.80708
621.99        67.23407
622.42        67.44303
622.85        67.49155
623.28        67.43787
623.71        67.94003
624.14        66.87672
624.57        67.61048
625.00        67.53902
625.43        67.58822
625.86        67.47393
626.29        67.20553
626.72        67.57846
627.15        67.34374
627.58        67.53504
628.01         67.7109
628.44        67.62819
628.87        67.34711
629.30         67.3281
629.73        67.57432
630.16        67.69343
630.59        67.56419
631.02        67.67617
631.45        67.68133
631.88        67.68397
632.31        67.58502
632.74        67.43736
633.17        67.26967
633.60        67.13472
634.03        67.05381
634.46        67.00288
634.89         66.9791
635.32        66.98669
635.75        67.01807
636.18        67.06271
636.61        67.11066
637.04        67.15937
637.47        67.21683
637.89        67.23501
638.32        67.17184
638.75         67.1666
639.18        67.25542
639.61        66.75364
640.04        66.89575
640.47        66.75709
640.90        66.71236
641.33        66.73243
641.76        66.80413
642.18        66.88161
642.61        66.91551
643.04        66.93151
643.47        66.95827
643.90        67.02227
644.33        67.11851
644.76        67.31454
645.18         67.5321
645.61        67.46233
646.04        67.03524
646.47        67.06052
646.90        67.42023
647.33        67.46812
647.75        67.16457
648.18        66.89775
648.61        66.75959
649.04        66.70427
649.47        66.75642
649.89        67.00511
650.32        67.31667
650.75        67.40054
651.18        67.28437
651.61        67.22409
652.03         67.3164
652.46        67.52042
652.89        67.62023
653.32         67.5207
653.74        67.48364
654.17        66.33939
654.60        66.49378
655.03        67.89962
655.46        66.32153
655.88        67.55648
656.31        70.42972
656.74        72.06216
657.16        70.91872
657.59        68.37923
658.02        67.10639
658.45        68.15272
658.87        67.98433
659.30        67.30696
659.73        67.90057
660.15        67.72104
660.58        67.88526
661.01        67.80018
661.44        67.61343
661.86        67.15232
662.29        66.59293
662.72        66.80902
663.14        67.61393
663.57        67.56734
664.00        66.78204
664.42        66.56402
664.85        66.96551
665.27        67.20853
665.70        67.21854
666.13        67.28145
666.55        67.38998
666.98        67.44913
667.41        67.45431
667.83        67.40175
668.26         67.2896
668.69        67.13934
669.11        66.99796
669.54         66.9339
669.96        66.96039
670.39        67.06982
670.82        67.20518
671.24        67.24616
671.67        67.17458
672.09        67.09538
672.52        67.05453
672.94        67.11301
673.37        66.76669
673.80        67.22669
674.22        66.99238
674.65        67.16183
675.07        67.33586
675.50        67.53361
675.92        67.71507
676.35        67.80625
676.77         67.8101
677.20        67.72492
677.62        67.60627
678.05        67.54857
678.47        67.56808
678.90        67.63992
679.32        67.71428
679.75        67.72102
680.17        67.64091
680.60        67.51859
681.02        67.38042
681.45        67.27343
681.87        67.21819
682.30        67.17329
682.72        67.17903
683.15         67.2602
683.57        67.43701
684.00        67.70596
684.42        67.96568
684.85        68.09858
685.27        68.08321
685.70        67.80943
686.12        67.45644
686.54        67.70372
686.97        68.40925
687.39        68.71669
687.82        68.51855
688.24        68.42228
688.66        68.42131
689.09        68.12933
689.51        67.64555
689.94        67.35408
690.36        67.30846
690.78         67.3643
691.21        67.48779
691.63        67.71583
692.06        67.97018
692.48        68.08411
692.90        68.05287
693.33        68.03368
693.75         68.0333
694.17        67.92608
694.60        67.77909
695.02        67.72571
695.44        67.76883
695.87        68.03968
696.29        68.41656
696.71        68.22842
697.14        67.64166
697.56        67.70728
697.98        68.33029
698.41        68.45509
698.83        68.08535
699.25        67.98978
699.68        68.17621
700.10        68.24693
700.52        68.17614
700.94        68.16489
701.37        68.17219
701.79        68.08096
702.21        67.88289
702.64        67.62525
703.06        67.39597
703.48        67.34732
703.90        67.50848
704.33        67.83762
704.75         68.2072
705.17        68.47354
705.59         68.5625
706.01        68.52138
706.44        68.41329
706.86        68.35493
707.28        68.38097
707.70        68.43643
708.12        68.51385
708.55         68.6413
708.97        68.78551
709.39        68.83678
709.81        68.82297
710.23        68.90871
710.66        69.09618
711.08        69.30827
711.50        69.47591
711.92        69.56345
712.34        69.55898
712.76         69.4756
713.19        69.34842
713.61        69.28566
714.03        69.29459
714.45        69.35117
714.87         69.4332
715.29        69.50269
715.71        69.54355
716.13         69.5681
716.56          69.548
716.98        69.52309
717.40        69.47024
717.82         69.3879
718.24        69.29742
718.66        69.23489
719.08        69.20935
719.50        69.21539
719.92        69.23306
720.34        69.22644
720.76        69.18708
721.19        69.11739
721.61        69.05107
722.03        69.01688
722.45        69.02138
722.87        69.05058
723.29         69.0836
723.71        69.08761
724.13        69.05471
724.55        68.99907
724.97        68.93645
725.39        68.88931
725.81        68.87093
726.23        68.88145
726.65        68.91901
727.07        68.98305
727.49        69.06653
727.91        69.15423
728.33        69.25478
728.75        69.38147
729.17        69.52693
729.59        69.69106
730.01        69.80484
730.43        69.75801
730.85         69.5491
731.27        69.22764
731.69        68.92973
732.10        68.86751
732.52         69.0789
732.94        69.49878
733.36         69.9993
733.78        70.33018
734.20        70.40366
734.62        70.33816
735.04        70.21649
735.46        70.03545
735.88        69.89585
736.30        70.07868
736.72         70.4697
737.13        70.58032
737.55        70.28306
737.97        70.03439
738.39        69.49087
738.81        69.30663
739.23        69.40641
739.65        69.80096
740.06        70.26662
740.48        70.46496
740.90        70.32219
741.32        69.97447
741.74        69.56744
742.16        69.34164
742.57        69.38843
742.99        69.54675
743.41        69.74651
743.83        70.04682
744.25        70.31955
744.67        70.18472
745.08        69.77918
745.50        69.68333
745.92        69.96332
746.34        70.30818
746.75        70.59491
747.17        70.72044
747.59        70.63654
748.01        70.45367
748.42        70.29996
748.84        69.96387
749.26         70.1273
749.68        70.23724
750.09          70.394
750.51        70.48376
750.93        70.46833
751.35        70.38461
751.76         70.2744
752.18        70.20882
752.60        70.20783
753.01        70.25368
753.43        70.30727
753.85        70.34064
754.27        70.35459
754.68        70.38931
755.10        70.43934
755.52        70.49268
755.93        70.53194
756.35        70.53036
756.77        70.57268
757.18        70.74086
757.60        71.03896
758.02        71.62298
758.43        72.21865
758.85        72.05834
759.26        71.15679
759.68        70.73158
760.10        70.86761
760.51         71.0413
760.93        71.16187
761.34        71.32495
761.76        71.41758
762.18        71.31905
762.59        71.03989
763.01        70.53588
763.42        69.99945
763.84        69.72842
764.26         69.8009
764.67        70.05537
765.09        70.41104
765.50        70.80936
765.92        71.14377
766.33        71.19471
766.75        70.93412
767.16        70.80908
767.58        70.83572
768.00        70.71133
768.41        70.49684
768.83        70.63071
769.24           70.99
769.66        70.99306
770.07        70.68407
770.49        70.56981
770.90        70.70991
771.32        70.99409
771.73        71.32491
772.15         71.3924
772.56        71.16589
772.97        71.05386
773.39        70.67284
773.80        70.64518
774.22        70.83293
774.63        71.23531
775.05        71.65383
775.46        71.86087
775.88        71.76517
776.29        71.47871
776.70        71.11589
777.12        70.88461
777.53        70.85499
777.95        70.94547
778.36        71.13049
778.77        71.33661
779.19        71.52416
779.60        71.80802
780.02        72.09502
780.43        72.16741
780.84        72.07236
781.26        72.02765
781.67        72.09975
782.09        72.39561
782.50        72.77294
782.91        72.68587
783.33        72.18729
783.74        71.87225
784.15        71.77516
784.57        71.65287
784.98        71.55083
785.39        71.16293
785.81        71.40846
786.22        71.49339
786.63        71.70302
787.04        72.04176
787.46        72.49227
787.87        73.00348
788.28        73.45443
788.70        73.67552
789.11        73.62337
789.52        73.36439
789.93        73.01647
790.35        72.77036
790.76        72.70127
791.17        72.76617
791.58        72.91792
792.00        73.03056
792.41        73.08136
792.82        73.16144
793.23        73.28484
793.65        73.28915
794.06        73.27397
794.47         73.6236
794.88        74.15441
795.29        74.25931
795.71        73.86732
796.12         73.3128
796.53        72.80492
796.94        72.62135
797.35        72.86729
797.76        73.45725
798.18        74.14942
798.59        74.59355
799.00        74.66076
799.41         74.4585
799.82        74.10857
800.23        73.82343
800.64         73.6862
801.06        73.60475
801.47         73.6049
801.88           73.66
802.29        73.74203
802.70        73.84853
803.11         73.9576
803.52        74.01577
803.93        74.02605
804.34        74.02516
804.75        73.96533
805.17        73.86598
805.58        73.79605
805.99        73.44478
806.40        73.02448
806.81        73.61714
807.22        74.89938
807.63        75.03757
808.04        74.10821
808.45        73.85022
808.86         74.3676
809.27         74.6199
809.68        74.51184
810.09        74.42928
810.50         74.3758
810.91        74.24285
811.32        74.11768
811.73        74.13968
812.14        74.32936
812.55        74.67034
812.96        75.03526
813.37        75.17131
813.78         75.0207
814.19        74.67695
814.60        74.28878
815.01        74.06579
815.42        74.05777
815.83        74.19895
816.24        74.42505
816.65        74.60817
817.05         74.6899
817.46        74.67524
817.87        74.60299
818.28        74.46916
818.69        74.29269
819.10         74.0798
819.51         73.8816
819.92        73.80214
820.33        73.86919
820.74        74.03967
821.14        74.29094
821.55        74.59263
821.96        74.91052
822.37        75.25889
822.78        75.53128
823.19        75.54525
823.60        75.26328
824.00        74.72563
824.41        74.12965
824.82        73.81968
825.23        73.87077
825.64        74.21945
826.04        74.65583
826.45        74.71606
826.86        74.32539
827.27        73.63425
827.68        72.93768
828.08        72.72329
828.49        73.05904
828.90        73.81796
829.31        74.76879
829.72        75.51133
830.12        75.92791
830.53        76.04874
830.94        76.01266
831.35        76.01452
831.75        76.14397
832.16        76.25253
832.57         76.3238
832.97        76.30394
833.38        76.18475
833.79        76.05553
834.20        75.90958
834.60        75.69756
835.01        75.45924
835.42        75.17329
835.82        75.00108
836.23        75.14201
836.64        75.64209
837.04        76.47002
837.45        77.25811
837.86        77.54852
838.26        77.22861
838.67        76.45226
839.08        75.55273
839.48        75.02908
839.89        75.04946
840.29         75.4469
840.70        76.02773
841.11         76.4959
841.51        76.76212
841.92        76.87207
842.33        76.88901
842.73        76.89725
843.14        76.88132
843.54        76.84832
843.95        76.77274
844.35        76.69168
844.76        76.59001
845.17        76.45226
845.57        76.35192
845.98        76.35783
846.38        76.49837
846.79        76.76665
847.19        76.97752
847.60        76.76991
848.00        76.12239
848.41        75.15674
848.81        74.27686
849.22        74.09266
849.62        74.75168
850.03        76.03461
850.43        77.55299
850.84        78.38483
851.24        78.30939
851.65        77.47383
852.05        76.33159
852.46        75.59483
852.86        75.45992
853.27        75.76173
853.67        76.11787
854.07        76.22029
854.48        75.94474
854.88        75.43199
855.29        74.82048
855.69        74.59808
856.10        74.80573
856.50        75.38954
856.90        75.97447
857.31        76.05371
857.71        75.57414
858.12         74.6604
858.52        73.68973
858.92        73.23219
859.33        73.42867
859.73        74.15077
860.13        75.07197
860.54        75.66919
860.94        75.82091
861.34        75.58076
861.75        75.10004
862.15        74.70419
862.55        74.47101
862.96        74.34648
863.36        74.13715
863.76        73.56887
864.17        72.65843
864.57        71.57014
864.97        70.63663
865.38        70.29896
865.78        70.67242
866.18        71.59172
866.58        72.80743
866.99        73.77048
867.39         74.2839
867.79        74.44906
868.19          74.292
868.60        73.86903
869.00        73.26923
869.40        72.46577
869.80        71.78144
870.21        71.77364
870.61        72.57536
871.01        73.97722
871.41        75.46272
871.81        76.19463
872.22        75.95646
872.62        74.98331
873.02        73.66965
873.42        72.69624
873.82         72.3094
874.22        72.36211
874.63        72.62823
875.03        72.75231
875.43        72.64572
875.83        72.42673
876.23         72.3474
876.63        72.79773
877.03        73.80544
877.44         75.1311
877.84        76.39674
878.24        76.91061
878.64        76.53661
879.04        75.56026
879.44        74.34576
879.84        73.42301
880.24        72.95007
880.64        72.75265
881.04        72.84557
881.44        73.23999
881.84        73.88178
882.24        74.81425
882.65        75.68011
883.05          75.978
883.45        75.55133
883.85        74.57192
884.25        73.54857
884.65        73.27825
885.05        73.90477
885.45        75.14056
885.85        76.58048
886.25           77.52
886.65        77.70288
887.05        77.36272
887.45        76.57863
887.85         75.5125
888.25         74.3551
888.65        73.12167
889.04        72.07659
889.44        71.63987
889.84        71.79959
890.24        72.50784
890.64        73.46552
891.04        74.01678
891.44        73.94337
891.84        73.43118
892.24        72.84537
892.64        72.70911
893.04        73.11253
893.44        73.86808
893.83        74.75984
894.23          75.333
894.63        75.47184
895.03        75.33096
895.43        75.05176
895.83        74.84287
896.23        74.77226
896.63        74.74412
897.02        74.74825
897.42         74.8406
897.82        74.98829
898.22        75.22778
898.62        75.41927
899.01        75.32375
899.41        74.90265
899.81        74.23672
900.21        73.59412
900.61        73.39634
901.00        73.71378
901.40        74.41297
901.80        75.17584
902.20        75.47539
902.59        75.17869
902.99         74.4563
903.39        73.59624
903.79        73.02716
904.18        72.86408
904.58         73.0037
904.98        73.26921
905.38        73.40484
905.77        73.31316
906.17        73.07147
906.57        72.81465
906.96        72.77251
907.36        72.96423
907.76        73.35647
908.15         73.7274
908.55        73.59757
908.95        72.96175
909.34        71.96205
909.74        71.11604
910.14        71.07933
910.53        71.99406
910.93        73.58893
911.33        75.42165
911.72        76.79365
912.12        77.39227
912.52        77.41148
912.91        77.09927
913.31        76.88667
913.70        76.92877
914.10         77.0431
914.49        77.07026
914.89        76.76187
915.29        76.10668
915.68        75.26958
916.08        74.47359
916.47        73.89971
916.87        73.66412
917.26        73.65631
917.66        73.87432
918.05        74.34251
918.45        74.95683
918.84         75.7434
919.24        76.42094
919.64        76.66044
920.03        76.40103
920.42        75.72805
920.82        74.93801
921.21        74.40016
921.61        74.23763
922.00        74.36188
922.40        74.67826
922.79        75.09975
923.19        75.51649
923.58        75.96914
923.98        76.35437
924.37        76.52035
924.77        76.43586
925.16         76.1303
925.55        75.70879
925.95        75.37254
926.34        75.20332
926.74         75.1407
927.13        75.12619
927.52        75.01413
927.92        74.78548
928.31          74.497
928.70        74.20936
929.10        73.99619
929.49         73.8793
929.89        73.77859
930.28        73.73398
930.67        73.73958
931.07         73.7794
931.46        73.89193
931.85        73.95174
932.24        73.76849
932.64         73.3574
933.03        72.80491
933.42        72.36642
933.82        72.46653
934.21        73.20035
934.60        74.33553
934.99        75.62871
935.39        76.65979
935.78        77.30647
936.17         77.6526
936.56        77.48545
936.96        76.53565
937.35        74.92953
937.74        72.89213
938.13        71.08197
938.53         70.3254
938.92         70.7115
939.31        72.07787
939.70        73.92925
940.09        75.24431
940.49        75.61037
940.88         75.2587
941.27        74.60045
941.66        74.30576
942.05        74.54647
942.44        75.14577
942.84        75.69786
943.23        75.60508
943.62        74.69878
944.01         73.2402
944.40        71.88387
944.79        71.54343
945.18        72.37435
945.57        74.11414
945.97        75.97729
946.36        76.83078
946.75        76.24667
947.14        74.60456
947.53        72.70849
947.92        71.78197
948.31        72.13141
948.70        73.41412
949.09         75.0082
949.48        75.78875
949.87        75.41532
950.26        74.28493
950.65        73.00671
951.04         72.4046
951.43        72.67284
951.82        73.56207
952.21        74.65325
952.60        75.20625
952.99        74.97751
953.38        74.20145
953.77        73.35403
954.16        73.05575
954.55         73.4343
954.94         74.3716
955.33        75.39013
955.72        75.50859
956.11        74.46965
956.50        72.66521
956.89        70.95283
957.28        70.42754
957.66        71.32405
958.05        73.26302
958.44        75.56673
958.83        76.82565
959.22        76.53638
959.61        75.16272
960.00        73.44308
960.39        72.31712
960.78        71.96906
961.16        72.14352
961.55        72.46124
961.94         72.3203
962.33        71.57546
962.72        70.59496
963.11        69.70654
963.49        69.29542
963.88        69.43743
964.27        69.93645
964.66        70.75453
965.04        71.88541
965.43        73.12952
965.82         74.4984
966.21        75.61465
966.60        75.82062
966.98        75.05264
967.37        73.61156
967.76        72.05511
968.15        71.13268
968.53        70.98544
968.92         71.3558
969.31        72.14802
969.69         73.1572
970.08        74.15222
970.47        75.31079
970.86        76.17602
971.24        75.99567
971.63        74.67542
972.02        72.47308
972.40        70.36356
972.79        69.92155
973.17        71.38735
973.56        74.19984
973.95        77.38052
974.33        79.03939
974.72        78.51931
975.11        76.46711
975.49        73.85132
975.88        72.47842
976.26        72.80096
976.65        74.21013
977.04        76.14524
977.42        77.57497
977.81        77.93841
978.19        77.70181
978.58        77.04327
978.96         76.1152
979.35        75.12627
979.74        74.00143
980.12        73.12408
980.51        73.14145
980.89        74.23579
981.28        76.09502
981.66        78.36755
982.05        80.11246
982.43        81.10549
982.82        81.46153
983.20        81.16547
983.59        80.16414
983.97        78.65276
984.35        76.70094
984.74        75.00624
985.12        74.48808
985.51        75.22626
985.89        77.10516
986.28        79.24554
986.66        80.49274
987.04        80.32552
987.43        79.08701
987.81        77.37148
988.20        76.52984
988.58        76.85999
988.96        77.99236
989.35        79.02291
989.73        78.74695
990.12        76.85136
990.50        73.91851
990.88        70.75603
991.27        68.63989
991.65        67.92171
992.03        68.28124
992.42        69.37436
992.80        70.97294
993.18         72.7746
993.56        74.83772
993.95        76.78197
994.33        78.02138
994.71        78.25933
995.10        77.70361
995.48        76.65512
995.86        75.69802
996.24        75.06618
996.63        74.53439
997.01        74.49532
997.39        75.38744
997.77        77.17641
998.15        79.71944
998.54        82.15767
998.92          83.185
999.30        82.50114
999.68        80.36563
1000.06        77.66321
1000.45        76.11995
1000.83        76.39144
1001.21        78.01733
1001.59        80.14752
1001.97        81.33511
1002.35        81.14928
1002.73        80.06539
1003.12        78.62607
1003.50        77.55684
1003.88        77.15083
1004.26        77.18357
1004.64        77.44131
1005.02        77.60992
1005.40        77.60164
1005.78         77.5469
1006.16        77.66203
1006.54        78.24591
1006.92        79.33495
1007.30        80.81003
1007.69        82.30695
1008.07         83.2035
1008.45        83.14825
1008.83        82.32164
1009.21        81.01891
1009.59        79.80122
1009.97        78.89553
1010.35        78.10771
1010.73        77.60002
1011.11        77.60696
1011.49         78.0785
1011.86        79.05798
1012.24        79.78866
1012.62        79.26457
1013.00        77.27972
1013.38         73.9913
1013.76        70.29996
1014.14        68.22565
1014.52        68.51827
1014.90        70.64385
1015.28        73.38979
1015.66        74.77769
1016.04        74.28165
1016.41        72.63009
1016.79        70.33341
1017.17        68.58076
1017.55         68.0082
1017.93        68.14737
1018.31        69.01801
1018.69        70.93564
1019.06        74.14854
1019.44        78.97108
1019.82         85.3309
1020.20        90.56804
1020.58        92.09724
1020.95        90.05446
1021.33        86.33495
1021.71        82.97058
1022.09        80.10469
1022.46        76.86137
1022.84        73.24052
1023.22        69.57647
1023.60        66.97411
1023.97        66.13493
1024.35        66.53576
1024.73        67.24906
