SpectraSmart Spectrum 2.9.0.0
--------- Device Information -----------
Spectrum Name :  反射率_0
Saving Time :  2024/04/30 00:29:03
Spectro-Module Model Name : SE2030-DUVN
Spectro-Module Serial Number : OS361AC55029948
Wavelength Start : 200
Wavelength End : 1025
Wavelength Unit : Wavelength(nm)
Spectrum Unit : Reflectance(%)
-----------Spectrum Setting ------------
Integration Time : 20ms
Average : 10
Boxcar : 0
Background removal :  enabled
linearity correction :  enabled
SC :  disabled
Intensity correction :  disabled
DWT denoise :  enabled
savitzky-golay :  disabled
FFT :  disabled
Running average :  disabled
Kalman :  disabled
High pass :  disabled
---------------BEGIN--------------------
Wavelength(nm)             Reflectance(%)
200.29               0
200.75        90.09626
201.21        77.91008
201.67        65.56493
202.13        56.39599
202.58        52.12183
203.04        51.86948
203.50        55.91911
203.96        64.59161
204.42        76.21458
204.88        89.14957
205.34        97.55082
205.80        94.31221
206.26        82.64257
206.72        69.15993
207.18        57.48424
207.64        49.04564
208.10        42.92682
208.55        37.28499
209.01        33.87144
209.47        37.06117
209.93        45.97552
210.39         57.6041
210.85        66.70013
211.31        69.04652
211.77        64.47321
212.23        52.16946
212.69        34.47723
213.14        26.67983
213.60        36.14563
214.06        54.15596
214.52        69.49791
214.98        74.99496
215.44        72.01826
215.90         63.5797
216.36        53.32673
216.81        48.17951
217.27        51.74924
217.73        63.60923
218.19        82.72956
218.65        98.90092
219.11        103.3182
219.57        98.69478
220.02        91.69534
220.48        88.15427
220.94        87.69624
221.40        88.52939
221.86        88.27841
222.32        82.53382
222.77        72.69912
223.23        64.39537
223.69        58.76469
224.15        55.12753
224.61        52.54544
225.06        50.16954
225.52        49.09861
225.98        51.22788
226.44        55.69527
226.90        60.62748
227.36         63.8664
227.81        63.92809
228.27        61.23413
228.73        56.20131
229.19        50.39401
229.65        47.50745
230.10        48.47748
230.56         51.5977
231.02        54.70839
231.48        55.96725
231.93        55.30426
232.39        53.45528
232.85        51.35234
233.31        50.72182
233.77        52.08868
234.22        55.06145
234.68        58.31527
235.14         59.4985
235.60        58.09238
236.05        54.98033
236.51        52.05127
236.97          51.764
237.43        54.83506
237.88          61.335
238.34        70.39759
238.80        78.41331
239.26        82.19352
239.71        82.03835
240.17        79.68267
240.63        78.48672
241.08        79.85049
241.54        83.49099
242.00        90.16615
242.46        98.07837
242.91        103.4567
243.37        104.7169
243.83        104.3155
244.28        106.4544
244.74        112.1381
245.20        120.2878
245.66        129.2516
246.11        134.7761
246.57        134.2042
247.03        129.8081
247.48        121.6859
247.94        111.5804
248.40        103.6694
248.85         97.9231
249.31        96.09405
249.77        98.35587
250.22        104.8317
250.68        117.3086
251.14        135.2489
251.59        143.1859
252.05         132.144
252.51        115.0735
252.96        102.1834
253.42        96.74854
253.88        96.09712
254.33        98.13147
254.79        101.8563
255.25        104.3348
255.70         104.298
256.16        103.6236
256.62         102.945
257.07        102.6209
257.53        103.1169
257.99        103.7752
258.44        103.6582
258.90        102.5735
259.35        100.2262
259.81        97.74931
260.27        95.57191
260.72        94.03973
261.18        93.32101
261.63        92.71462
262.09         91.9194
262.55        90.05002
263.00        87.17226
263.46        84.10556
263.91        81.18986
264.37        79.28802
264.83        78.24024
265.28        77.65022
265.74        77.33312
266.19        76.70583
266.65        75.75802
267.11        74.60651
267.56        73.34938
268.02        72.15502
268.47        70.99886
268.93        69.82302
269.38        68.57603
269.84         67.3281
270.30        66.10253
270.75        64.91458
271.21        63.78363
271.66        62.61607
272.12        61.40283
272.57        60.11579
273.03        58.80027
273.48        57.43493
273.94        56.12484
274.39         54.8205
274.85        53.63056
275.31        52.55864
275.76         51.5682
276.22         50.7104
276.67        49.87544
277.13        49.06129
277.58        48.19117
278.04        47.33291
278.49        46.46973
278.95        45.72556
279.40        45.04592
279.86        44.48843
280.31        43.92313
280.77        43.31926
281.22        42.62469
281.68        41.92408
282.13        41.29013
282.59        40.91566
283.04        40.76742
283.50        40.78326
283.95        40.79046
284.41        40.57322
284.86        40.07505
285.32        39.44234
285.77        38.75252
286.22        38.21188
286.68        37.88419
287.13        37.66166
287.59        37.56376
288.04        37.54376
288.50        37.59623
288.95        37.68976
289.41        37.78157
289.86         37.7372
290.32        37.58199
290.77        37.35976
291.22        37.16138
291.68        37.12582
292.13        37.28765
292.59         37.6447
293.04         38.2166
293.50        39.08035
293.95        40.21626
294.40        41.61216
294.86         43.1282
295.31        44.55176
295.77        45.82104
296.22        46.96296
296.68        48.10801
297.13        49.44231
297.58        51.01212
298.04        52.72376
298.49         54.4425
298.95        55.98208
299.40        57.29086
299.85        58.45308
300.31        59.59683
300.76        60.82277
301.21         62.2108
301.67        63.75821
302.12        65.38669
302.58        67.13021
303.03        68.93427
303.48        70.75187
303.94        72.62402
304.39        74.82255
304.84         76.8884
305.30        79.15898
305.75        81.33938
306.20         83.2732
306.66         84.9469
307.11        86.35196
307.57        87.68323
308.02        89.09428
308.47        90.67693
308.93        92.38699
309.38        94.09296
309.83        95.67059
310.29        97.08669
310.74        98.37331
311.19        99.56349
311.65        100.6907
312.10        101.7555
312.55        102.7594
313.00        103.7826
313.46        104.9596
313.91        106.2804
314.36        107.7004
314.82        109.0768
315.27        110.2081
315.72        111.0123
316.18        111.5485
316.63         111.881
317.08        112.1336
317.53        112.3808
317.99        112.6386
318.44        112.9098
318.89        113.2125
319.35         113.554
319.80        113.9337
320.25        114.4307
320.70        115.1592
321.16        116.0799
321.61        117.1937
322.06        118.2324
322.51        118.7817
322.97        118.7477
323.42         118.262
323.87         117.641
324.32        117.4213
324.78         117.722
325.23        118.4758
325.68        119.3992
326.13        120.0032
326.59        120.1232
327.04        119.9422
327.49        119.7141
327.94        119.9072
328.39        120.6226
328.85         121.643
329.30        122.7403
329.75        123.2942
330.20        123.1483
330.66        122.5053
331.11        121.7267
331.56        121.2975
332.01        121.4064
332.46        121.9297
332.92        122.7207
333.37        123.6953
333.82        124.6927
334.27        125.7354
334.72        126.7738
335.17        127.7227
335.63        128.5089
336.08        129.1846
336.53        129.6489
336.98        129.8503
337.43        129.8109
337.88        129.5634
338.34        129.3113
338.79        129.3908
339.24        129.8677
339.69        130.6876
340.14        131.5936
340.59        132.1283
341.05        132.1995
341.50        131.9633
341.95        131.6909
342.40        131.8391
342.85        132.4971
343.30        133.4572
343.75        134.5214
344.20        135.3769
344.66        135.9286
345.11        136.3138
345.56        136.4741
346.01        136.3082
346.46        135.8763
346.91        135.2055
347.36        134.6862
347.81        134.9195
348.26        135.9647
348.72        137.6096
349.17        139.3391
349.62        140.1819
350.07        139.9044
350.52        138.8503
350.97        137.5233
351.42        136.6967
351.87        136.5929
352.32        136.9548
352.77        137.6311
353.22        138.3852
353.67         139.061
354.13        139.6982
354.58        140.1389
355.03         140.108
355.48        139.5602
355.93        138.5618
356.38        137.2896
356.83        136.0438
357.28        134.9324
357.73        133.9091
358.18        132.9734
358.63        132.1006
359.08        131.2739
359.53        130.5237
359.98        129.7996
360.43        129.0036
360.88        128.1201
361.33        127.1694
361.78        126.2122
362.23        125.3537
362.68        124.6178
363.13        123.9702
363.58        123.3647
364.03        122.7269
364.48        122.0301
364.93        121.2915
365.38        120.5328
365.83        119.7946
366.28        119.0893
366.73        118.3997
367.18        117.7043
367.63        116.9701
368.08        116.1841
368.53        115.3592
368.98        114.5198
369.43        113.6959
369.88         112.919
370.33        112.2194
370.78        111.5765
371.23        110.9593
371.68        110.3564
372.13        109.7307
372.58        109.1913
373.03         108.916
373.48        108.8865
373.93        109.0247
374.38        109.0054
374.83        108.3123
375.28        106.9018
375.72        104.9841
376.17        103.0781
376.62        101.7529
377.07        101.1328
377.52        101.0153
377.97        101.1986
378.42        101.3441
378.87        101.3059
379.32        101.1744
379.77        100.9155
380.22        100.4723
380.67        99.84939
381.11         99.0338
381.56        98.13432
382.01         97.3839
382.46        96.85734
382.91        96.52221
383.36         96.2671
383.81        95.89674
384.26        95.36539
384.71        94.73446
385.15         94.0923
385.60        93.63898
386.05         93.3836
386.50        93.25305
386.95        93.13522
387.40        92.87106
387.85        92.43472
388.29        91.83774
388.74        91.28327
389.19        90.80775
389.64        90.42944
390.09         90.0984
390.54        89.79987
390.98        89.54179
391.43        89.36311
391.88        89.13892
392.33        88.82464
392.78        88.66916
393.23        88.55806
393.67        87.80947
394.12        86.68819
394.57        86.54414
395.02        86.16254
395.47        86.26731
395.91        86.27873
396.36          86.259
396.81        86.13319
397.26        85.93647
397.71        85.69784
398.15        85.38057
398.60        85.09389
399.05        84.80731
399.50        84.53304
399.95        84.33195
400.39        83.92787
400.84        84.03989
401.29        84.40067
401.74        84.33171
402.18        83.76751
402.63        83.03574
403.08        82.39825
403.53        82.09747
403.97        82.17564
404.42        82.52505
404.87        82.92564
405.32         82.9773
405.76        82.58334
406.21        82.07145
406.66        81.52223
407.11        80.78844
407.55        80.14956
408.00        80.10143
408.45        80.59756
408.90         81.3543
409.34        81.98973
409.79        81.67754
410.24        80.71803
410.68         80.4743
411.13        81.03511
411.58        81.59084
412.03        81.89617
412.47        81.92997
412.92        81.59364
413.37        80.96649
413.81        80.21024
414.26        79.64438
414.71        79.31047
415.15        79.14233
415.60        79.09969
416.05        79.15942
416.49        79.29372
416.94        79.51722
417.39        79.72048
417.83        79.69991
418.28        79.43204
418.73        78.96734
419.17        78.48402
419.62        78.29392
420.07        78.43333
420.51        78.77374
420.96        79.17095
421.41        79.27532
421.85        78.98501
422.30        78.71616
422.74        78.47036
423.19         77.7994
423.64        76.92577
424.08        77.06444
424.53        78.13269
424.98        78.06991
425.42        78.44753
425.87        78.26668
426.31        78.12906
426.76        77.77718
427.21        77.21815
427.65        77.41904
428.10        78.06174
428.54         77.8802
428.99        77.01445
429.44        76.52502
429.88        76.51333
430.33        76.62141
430.77        76.72186
431.22        77.02419
431.66        77.38305
432.11        77.21062
432.56         76.5315
433.00        76.22388
433.45        76.59878
433.89        76.48702
434.34        77.02373
434.78        78.70348
435.23        76.27439
435.67        75.63698
436.12        75.41191
436.57        75.45826
437.01        75.60538
437.46         76.2261
437.90        75.97969
438.35         76.3699
438.79        76.91862
439.24        77.13616
439.68        77.01413
440.13        77.00707
440.57         77.1949
441.02        77.20962
441.46        76.99206
441.91        77.31178
442.35        77.46307
442.80        76.94839
443.24        76.69743
443.69        76.44856
444.13        76.49935
444.58         76.4181
445.02        76.17541
445.47        76.06104
445.91        76.07433
446.36        76.08949
446.80        76.06963
447.24        76.23228
447.69        76.25164
448.13        76.32412
448.58        76.36531
449.02        76.36349
449.47        76.34961
449.91        76.34291
450.36        76.36856
450.80        76.40096
451.25        76.43878
451.69        76.43613
452.13        76.38599
452.58           76.34
453.02        76.32719
453.47        76.24884
453.91        76.19333
454.36         76.3705
454.80        76.43707
455.24        76.18292
455.69         76.2916
456.13         76.1417
456.58         76.0035
457.02        75.84986
457.46        75.71661
457.91          75.605
458.35        75.48562
458.79        75.45451
459.24        75.54053
459.68        75.63528
460.13        75.68951
460.57        75.83588
461.01        75.67248
461.46        75.42147
461.90        75.06031
462.34        75.02622
462.79        75.20255
463.23        75.03376
463.68        74.54386
464.12        74.24329
464.56        74.18015
465.01        73.99852
465.45        73.71066
465.89        73.80879
466.34        74.21812
466.78        74.32119
467.22        74.31271
467.67        74.17289
468.11        74.00108
468.55        73.59705
468.99        73.07475
469.44         72.6918
469.88        72.49565
470.32        72.43584
470.77         72.4479
471.21        72.44638
471.65        72.38923
472.10        72.32988
472.54        72.28541
472.98        72.30931
473.42        72.39986
473.87        72.55486
474.31        72.70943
474.75        72.72373
475.20         72.6232
475.64        72.63816
476.08        72.76768
476.52        72.60746
476.97        72.10717
477.41        72.08749
477.85        71.81948
478.29        71.20976
478.74        71.87181
479.18        72.00842
479.62        71.71997
480.06        71.73087
480.50        71.91652
480.95        71.62474
481.39        72.05046
481.83        71.47955
482.27        72.03255
482.72        72.31274
483.16        72.00348
483.60        72.06415
484.04         72.2476
484.48        72.31265
484.93        72.21942
485.37        72.27795
485.81        71.68714
486.25        71.30523
486.69        72.45496
487.14        71.54734
487.58         71.0077
488.02        71.27153
488.46        72.02652
488.90        71.47642
489.34        71.16058
489.79        71.83556
490.23        71.30162
490.67        71.27822
491.11          71.007
491.55        70.81001
491.99        70.69162
492.43        70.60701
492.88         70.5743
493.32        70.64086
493.76        70.79299
494.20        70.96783
494.64        71.13152
495.08        71.37476
495.52        71.61264
495.96        71.51078
496.41        71.13666
496.85         71.1368
497.29        70.94969
497.73        71.12804
498.17        70.75758
498.61        70.58135
499.05        70.44862
499.49        70.44421
499.93        70.50312
500.37        70.56565
500.82        70.68203
501.26        70.35296
501.70        70.44614
502.14        70.73017
502.58         70.6254
503.02        70.41019
503.46        70.78846
503.90        70.75961
504.34        70.94804
504.78        70.97367
505.22        70.93461
505.66        70.84291
506.10        70.73567
506.54        70.61609
506.98        70.45758
507.42        70.77395
507.86        70.20385
508.30        70.50121
508.74        69.99743
509.18         69.7551
509.62        69.49273
510.06        69.44165
510.50         69.6325
510.94        70.00039
511.38        70.41428
511.82        70.61897
512.26        70.55299
512.70        70.29311
513.14        69.96708
513.58        69.77424
514.02        69.76987
514.46        69.89149
514.90        70.06697
515.34         70.1817
515.78        70.19593
516.22        70.14664
516.66        70.07162
517.10        70.02259
517.54        70.01404
517.98        70.02628
518.42        70.02326
518.86        69.95481
519.30        69.81502
519.74        69.62583
520.18        69.44735
520.62        69.36467
521.06        69.39918
521.50        69.53642
521.93        69.71158
522.37        69.79347
522.81        69.76136
523.25         69.6411
523.69        69.52726
524.13        69.56951
524.57        69.78637
525.01        70.11938
525.45        70.43752
525.89        70.52958
526.32        70.34304
526.76        69.98067
527.20        69.56647
527.64        69.29485
528.08        69.21916
528.52        69.27642
528.96        69.41383
529.40        69.54646
529.83        69.63288
530.27        69.70997
530.71        69.75686
531.15         69.7442
531.59        69.67218
532.03         69.5407
532.46        69.38477
532.90        69.29621
533.34        69.28699
533.78        69.34069
534.22        69.41405
534.66        69.43606
535.09        69.38541
535.53        69.29906
535.97        69.20803
536.41        69.17705
536.85        69.21815
537.28        69.30129
537.72        69.38702
538.16        69.40926
538.60        69.35091
539.04        69.23715
539.47        69.08387
539.91        68.97075
540.35        68.89862
540.79         68.8634
541.22        68.84685
541.66        68.83263
542.10        68.81185
542.54        68.79675
542.97        68.79979
543.41        68.85861
543.85        68.96434
544.29        69.11236
544.72        69.23256
545.16          69.256
545.60        69.16678
546.04        68.96092
546.47        68.72917
546.91        68.72466
547.35        68.93317
547.79        69.08421
548.22        69.10145
548.66        69.23752
549.10        69.48384
549.53        69.48058
549.97        69.14004
550.41        69.75896
550.84        69.25604
551.28        69.18499
551.72        68.92531
552.15        69.12209
552.59        68.90032
553.03        68.85345
553.46        68.75497
553.90        68.72675
554.34        68.75518
554.77        68.83175
555.21        68.92462
555.65        68.87912
556.08        68.72572
556.52         68.7068
556.96         68.8211
557.39        68.92987
557.83         69.0052
558.27        69.04971
558.70        69.11363
559.14         68.9882
559.57        69.29465
560.01        69.31422
560.45        69.25747
560.88        69.06708
561.32        69.10187
561.75        69.07584
562.19        69.06373
562.63        68.85338
563.06        68.52597
563.50        68.51875
563.93        68.76133
564.37        68.85237
564.80        68.75225
565.24         68.7336
565.68        68.78156
566.11        68.78992
566.55         68.7835
566.98        68.71736
567.42        68.70197
567.85        68.81771
568.29        69.00141
568.72        69.21872
569.16        69.57904
569.60        68.91571
570.03        69.34456
570.47        69.57771
570.90        69.41646
571.34        69.30395
571.77         69.4358
572.21        69.53706
572.64        69.67414
573.08         69.6386
573.51        69.11738
573.95        69.62501
574.38        69.95867
574.82        69.68999
575.25        69.88374
575.69         69.5509
576.12        69.27232
576.56        69.00558
576.99        69.11652
577.42        69.45844
577.86         69.3306
578.29        69.35346
578.73         69.8544
579.16        69.62025
579.60        69.51221
580.03        69.28231
580.47         69.9406
580.90        69.72522
581.33        69.17487
581.77        69.07322
582.20        69.67281
582.64        70.10455
583.07        69.48627
583.51         69.0459
583.94        68.83212
584.37        68.55835
584.81        68.48039
585.24        68.98678
585.68        69.50533
586.11        70.17057
586.54        69.15726
586.98        68.78305
587.41        69.74392
587.85        70.01701
588.28         69.6993
588.71        69.57456
589.15        68.95552
589.58        69.51711
590.01        68.61353
590.45        68.76627
590.88        69.24838
591.31        69.58924
591.75        69.49062
592.18        69.60776
592.61         69.9874
593.05        68.15866
593.48        69.47823
593.91        69.74876
594.35        68.72252
594.78        68.42165
595.21        68.24097
595.65         69.1329
596.08        68.43981
596.51        68.61353
596.94        69.13519
597.38        69.20483
597.81        68.78217
598.24        69.13348
598.68        68.67398
599.11        68.40967
599.54        69.46447
599.97         69.7551
600.41        68.20909
600.84        68.58112
601.27        68.61515
601.70        68.98573
602.14        69.34682
602.57          69.038
603.00        68.35672
603.43        68.30068
603.87        68.63232
604.30        69.19721
604.73        68.72184
605.16        68.61076
605.60        68.54884
606.03        68.64465
606.46        68.74091
606.89        68.98296
607.32        68.56221
607.76        68.56052
608.19        68.79726
608.62        68.81454
609.05        68.94115
609.48        68.98206
609.92        68.94309
610.35        68.71758
610.78        68.99213
611.21        68.24913
611.64        68.18234
612.07         68.7803
612.50        68.85558
612.94        68.55379
613.37        69.06575
613.80        68.98695
614.23        69.08083
614.66        69.04089
615.09        68.98746
615.52        69.01334
615.96        69.04476
616.39        68.99303
616.82        68.35093
617.25        68.54978
617.68        68.18468
618.11        68.36897
618.54        68.61008
618.97        68.57308
619.40        68.31094
619.84        68.26899
620.27        68.51904
620.70        68.80133
621.13        68.98756
621.56        68.90893
621.99        68.63779
622.42         68.2113
622.85         68.9061
623.28        68.51209
623.71        69.13799
624.14        67.95061
624.57        68.62545
625.00        68.48267
625.43        68.48292
625.86        68.20071
626.29        68.13834
626.72        68.38105
627.15         68.2643
627.58        68.45085
628.01         68.6004
628.44        68.69909
628.87        68.20814
629.30        68.24338
629.73        68.60161
630.16        68.70339
630.59        68.51455
631.02        68.53834
631.45        68.49165
631.88        68.48828
632.31        68.43834
632.74        68.39375
633.17         68.3355
633.60        68.26717
634.03        68.18977
634.46        68.09277
634.89         67.9996
635.32        67.96024
635.75        67.98068
636.18        68.03818
636.61        68.10644
637.04        68.15373
637.47        68.18163
637.89         68.1707
638.32        68.09966
638.75        68.10186
639.18        68.20934
639.61        67.86993
640.04        68.05178
640.47        68.03336
640.90        68.10209
641.33        68.23575
641.76        68.38172
642.18        68.43612
642.61        68.34556
643.04        68.15401
643.47        67.96028
643.90        67.90102
644.33        67.99809
644.76        68.29474
645.18         68.6506
645.61        68.64461
646.04        68.17767
646.47        68.10773
646.90        68.36268
647.33        68.36601
647.75        68.09477
648.18        67.90971
648.61        67.86838
649.04        67.84765
649.47        67.85063
649.89        68.06712
650.32        68.37107
650.75        68.29181
651.18        67.95741
651.61        68.04945
652.03        68.55371
652.46        68.91422
652.89         68.9109
653.32        68.65639
653.74        68.39922
654.17        67.64209
654.60        67.62848
655.03        68.89372
655.46        67.52121
655.88        68.83907
656.31        71.26722
656.74        72.36866
657.16        71.31522
657.59         68.9903
658.02        68.32286
658.45        69.02235
658.87        69.33019
659.30        68.97622
659.73        68.82317
660.15        68.63036
660.58        68.90726
661.01           68.77
661.44        68.32624
661.86        67.97718
662.29        67.80211
662.72        67.95017
663.14        68.30783
663.57        68.20013
664.00        67.73263
664.42        67.63021
664.85        67.93809
665.27        68.19315
665.70        68.32623
666.13        68.48302
666.55        68.64692
666.98        68.75521
667.41        68.79552
667.83        68.75269
668.26        68.62609
668.69        68.43871
669.11        68.24517
669.54        68.13566
669.96        68.13271
670.39        68.21114
670.82        68.32581
671.24        68.41048
671.67         68.4269
672.09        68.38908
672.52        68.34164
672.94        68.41346
673.37        68.08771
673.80        68.55651
674.22        68.27817
674.65        68.37794
675.07        68.45303
675.50        68.52696
675.92        68.58904
676.35         68.6109
676.77        68.60491
677.20        68.55669
677.62        68.49726
678.05        68.47694
678.47        68.50143
678.90        68.56489
679.32        68.62206
679.75        68.61115
680.17        68.51652
680.60        68.37131
681.02        68.22837
681.45        68.16798
681.87        68.20953
682.30        68.33553
682.72        68.51802
683.15        68.58448
683.57        68.57413
684.00        68.70514
684.42        68.92046
684.85        69.01151
685.27        68.97837
685.70        68.77843
686.12        68.53249
686.54        68.88692
686.97        69.70781
687.39        69.89956
687.82         69.5074
688.24        69.82285
688.66        69.59576
689.09        69.30538
689.51        68.92762
689.94        68.62401
690.36        68.51559
690.78        68.52277
691.21        68.61548
691.63        68.70568
692.06        68.75974
692.48        68.81277
692.90        68.86544
693.33        68.90561
693.75        68.93399
694.17        68.94168
694.60        68.93298
695.02        68.88756
695.44        68.79765
695.87        68.77879
696.29        68.86437
696.71        68.57914
697.14        68.63594
697.56         68.6532
697.98        68.81805
698.41        68.93873
698.83        69.00337
699.25        69.14454
699.68        69.29745
700.10        69.34792
700.52        69.26445
700.94        69.10629
701.37        68.91988
701.79        68.78779
702.21        68.72898
702.64        68.73775
703.06        68.79205
703.48        68.86144
703.90        68.93807
704.33        69.04761
704.75        69.15354
705.17        69.26443
705.59        69.34706
706.01        69.39104
706.44        69.41933
706.86        69.44643
707.28        69.46805
707.70         69.5778
708.12        69.72501
708.55        69.59705
708.97         69.2883
709.39         69.3192
709.81        69.67465
710.23        69.87895
710.66        69.89355
711.08        70.01837
711.50        70.22623
711.92        70.36906
712.34        70.43686
712.76        70.46404
713.19        70.44758
713.61        70.43397
714.03        70.41737
714.45        70.39306
714.87        70.36824
715.29        70.35458
715.71        70.35114
716.13        70.35201
716.56        70.33703
716.98        70.35981
717.40        70.39246
717.82        70.43329
718.24        70.45824
718.66        70.42982
719.08        70.34485
719.50        70.21498
719.92        70.08517
720.34        70.02773
720.76        70.05666
721.19        70.14103
721.61         70.2453
722.03        70.28241
722.45        70.23002
722.87        70.11491
723.29        69.97626
723.71        69.87215
724.13        69.83316
724.55        69.84178
724.97        69.88351
725.39         69.9296
725.81        69.97212
726.23        70.01958
726.65        70.08843
727.07         70.2061
727.49        70.36802
727.91         70.5472
728.33         70.7097
728.75        70.80287
729.17         70.8128
729.59        70.76649
730.01        70.66539
730.43        70.51929
730.85         70.3511
731.27        70.15678
731.69        70.01162
732.10        70.08316
732.52        70.31138
732.94        70.73341
733.36        71.19921
733.78        71.50246
734.20        71.57572
734.62        71.40537
735.04          71.153
735.46        71.19481
735.88        71.52438
736.30        71.80556
736.72         71.9082
737.13        71.87413
737.55        71.64055
737.97        71.21457
738.39        70.62589
738.81        70.39211
739.23        70.50992
739.65        70.78636
740.06        71.05775
740.48        71.22274
740.90        71.21674
741.32        71.05412
741.74        70.81632
742.16        70.69686
742.57        70.75679
742.99         70.8346
743.41         70.9155
743.83        71.15187
744.25        71.43844
744.67        71.37446
745.08        71.03638
745.50        70.91042
745.92        71.04954
746.34         71.1725
746.75        71.24855
747.17        71.35411
747.59        71.47255
748.01        71.58335
748.42        71.67448
748.84        71.69741
749.26        71.65786
749.68        71.57178
750.09        71.45522
750.51        71.36817
750.93        71.31538
751.35        71.29182
751.76        71.30274
752.18        71.34424
752.60        71.41113
753.01        71.51134
753.43        71.61219
753.85        71.68959
754.27        71.74733
754.68        71.81736
755.10        71.88767
755.52        71.94533
755.93         71.9699
756.35        71.92578
756.77        71.90247
757.18        72.03452
757.60        72.34139
758.02         72.9179
758.43        73.40502
758.85        73.43618
759.26        72.00422
759.68        71.56255
760.10        71.85609
760.51        72.17029
760.93        72.37443
761.34        72.32925
761.76        72.54256
762.18        72.33305
762.59        71.95435
763.01        71.55514
763.42        71.28986
763.84        71.17905
764.26        71.26489
764.67        71.53398
765.09        71.92925
765.50        72.35409
765.92         72.7173
766.33        72.83966
766.75        72.63214
767.16        72.44859
767.58         72.3021
768.00        71.83496
768.41          71.237
768.83        71.40378
769.24        72.12597
769.66        72.16323
770.07        71.58733
770.49        71.50188
770.90        71.94181
771.32        72.32861
771.73         72.5552
772.15        72.59509
772.56        72.42785
772.97        72.33218
773.39        71.92579
773.80        71.90591
774.22        72.13756
774.63        72.61642
775.05        73.11131
775.46        73.33437
775.88        73.18314
776.29        72.78752
776.70        72.31726
777.12        72.06822
777.53         72.1244
777.95        72.37456
778.36        72.72015
778.77        72.95842
779.19        73.02137
779.60        73.10022
780.02        73.16883
780.43        73.04283
780.84        72.84429
781.26        72.93062
781.67        73.28472
782.09        73.74094
782.50        74.10615
782.91        73.91756
783.33        73.27363
783.74        72.90641
784.15        72.88687
784.57        72.79703
784.98         72.6406
785.39        72.63221
785.81        72.77899
786.22        73.01534
786.63        73.32044
787.04         73.6591
787.46        74.00318
787.87        74.32296
788.28        74.58824
788.70        74.75265
789.11        74.79651
789.52        74.74847
789.93        74.62212
790.35        74.43713
790.76        74.23671
791.17        74.03749
791.58        73.89735
792.00        73.87761
792.41        74.00672
792.82        74.25669
793.23        74.57944
793.65        74.85588
794.06        75.06585
794.47        75.29145
794.88        75.46073
795.29        75.40689
795.71         75.0961
796.12        74.63558
796.53        74.18631
796.94        74.03957
797.35        74.27892
797.76         74.8281
798.18        75.46204
798.59        75.85183
799.00        75.88043
799.41        75.64864
799.82         75.2954
800.23        75.06171
800.64         75.0303
801.06        75.10171
801.47        75.26601
801.88        75.42436
802.29        75.54002
802.70        75.64796
803.11        75.74566
803.52        75.81527
803.93         75.8541
804.34        75.85233
804.75        75.82072
805.17        75.78211
805.58        75.77189
805.99        75.77378
806.40        75.78116
806.81        75.78153
807.22        75.77094
807.63        75.74966
808.04        75.73275
808.45        75.74031
808.86        75.77998
809.27        75.85892
809.68        75.93584
810.09         75.9408
810.50        75.86359
810.91        75.71587
811.32        75.59626
811.73        75.66634
812.14        75.94846
812.55        76.39046
812.96         76.8345
813.37        76.99301
813.78        76.79725
814.19        76.36008
814.60        75.84862
815.01        75.49504
815.42        75.36356
815.83        75.38711
816.24        75.53971
816.65        75.76318
817.05        76.00903
817.46        76.24989
817.87        76.45993
818.28        76.54327
818.69        76.49333
819.10        76.33485
819.51        76.12698
819.92        75.99778
820.33        75.99067
820.74        76.05376
821.14         76.1932
821.55        76.42243
821.96        76.71526
822.37        77.08667
822.78         77.3928
823.19        77.37475
823.60        76.98123
824.00        76.28257
824.41        75.53175
824.82        75.15878
825.23        75.25888
825.64        75.73928
826.04        76.35451
826.45        76.57399
826.86        76.29111
827.27        75.66735
827.68        74.99932
828.08        74.77986
828.49        75.08485
828.90        75.78865
829.31        76.66775
829.72        77.34079
830.12        77.69893
830.53        77.76332
830.94        77.69234
831.35        77.70937
831.75        77.89839
832.16        78.09575
832.57         78.2212
832.97        78.11095
833.38        77.75016
833.79        77.29284
834.20        76.81101
834.60        76.36671
835.01        76.03242
835.42        75.74584
835.82        75.68236
836.23        76.06114
836.64        76.90691
837.04        78.17805
837.45        79.38149
837.86          79.847
838.26        79.41016
838.67        78.27436
839.08        76.93224
839.48        76.14125
839.89        76.13617
840.29        76.68716
840.70        77.48567
841.11        78.03935
841.51        78.21159
841.92        78.12079
842.33        77.92787
842.73        77.87637
843.14        77.99113
843.54        78.20756
843.95        78.42953
844.35        78.59028
844.76        78.63441
845.17        78.58216
845.57        78.49582
845.98        78.42844
846.38        78.41535
846.79        78.43696
847.19        78.39205
847.60        78.06264
848.00        77.46297
848.41        76.70151
848.81        76.04113
849.22        75.86362
849.62        76.27489
850.03        77.10316
850.43        78.17081
850.84        78.93652
851.24        79.27433
851.65        79.20876
852.05        78.88548
852.46        78.50456
852.86        78.15303
853.27        77.86609
853.67        77.54443
854.07        77.24825
854.48        76.92332
854.88        76.59633
855.29        76.28822
855.69        76.25747
856.10        76.44575
856.50        76.89176
856.90        77.28561
857.31        77.20702
857.71        76.63898
858.12        75.66711
858.52        74.68036
858.92        74.28026
859.33        74.60567
859.73        75.52509
860.13        76.66829
860.54        77.43305
860.94        77.67168
861.34        77.44117
861.75         76.9184
862.15        76.48827
862.55        76.24226
862.96        76.10921
863.36        75.86819
863.76        75.19924
864.17        74.12643
864.57        72.85946
864.97        71.76584
865.38        71.32973
865.78        71.68224
866.18        72.63468
866.58        73.97203
866.99        75.19787
867.39        76.09321
867.79         76.7141
868.19        76.93938
868.60         76.6243
869.00        75.82568
869.40        74.56729
869.80        73.32221
870.21        72.91878
870.61        73.57661
871.01        75.02328
871.41        76.62736
871.81        77.35369
872.22        76.94173
872.62        75.71151
873.02        74.14627
873.42        73.06329
873.82        72.74688
874.22        72.98296
874.63        73.50668
875.03        73.91643
875.43        74.08982
875.83        74.14996
876.23        74.29728
876.63        74.83589
877.03        75.77806
877.44        76.90637
877.84        77.91593
878.24        78.24112
878.64        77.79216
879.04        76.83485
879.44        75.69576
879.84        74.84252
880.24        74.41114
880.64         74.2358
881.04        74.35543
881.44          74.818
881.84        75.57027
882.24        76.63998
882.65        77.59614
883.05        77.82218
883.45         77.1478
883.85        75.79478
884.25        74.39642
884.65         73.9282
885.05        74.56607
885.45        75.96957
885.85        77.63538
886.25        78.68406
886.65        78.81165
887.05        78.32078
887.45        77.35579
887.85        76.18484
888.25        75.04356
888.65        73.90635
889.04        73.03706
889.44          72.879
889.84        73.41004
890.24         74.5672
890.64         75.9911
891.04        76.87476
891.44        76.92455
891.84        76.36526
892.24        75.58552
892.64        75.14577
893.04        75.16899
893.44        75.46702
893.83        75.93246
894.23        76.29893
894.63        76.50338
895.03        76.66414
895.43        76.77354
895.83        76.80066
896.23         76.7528
896.63        76.58031
897.02        76.40609
897.42        76.51381
897.82        76.91487
898.22        77.56309
898.62        78.14332
899.01        78.13628
899.41        77.44736
899.81        76.26896
900.21        75.06105
900.61        74.52872
901.00        74.81885
901.40        75.71707
901.80        76.78989
902.20        77.31542
902.59        77.09153
902.99        76.34229
903.39        75.41944
903.79        74.84625
904.18        74.76008
904.58        75.02036
904.98        75.38683
905.38        75.51453
905.77        75.29339
906.17        74.83747
906.57         74.3693
906.96        74.25367
907.36        74.53446
907.76        75.13042
908.15        75.72538
908.55        75.67814
908.95        74.93866
909.34        73.70802
909.74        72.57744
910.14        72.30745
910.53        73.09235
910.93        74.65623
911.33        76.54443
911.72         78.0423
912.12        78.81846
912.52        79.03663
912.91        78.99229
913.31         79.1842
913.70        79.73979
914.10         80.4376
914.49        80.88185
914.89        80.48507
915.29        79.21165
915.68        77.34811
916.08        75.48951
916.47        74.39634
916.87        74.31136
917.26        74.97024
917.66        76.00779
918.05        76.83051
918.45         77.1715
918.84         77.2455
919.24        77.09366
919.64        76.95055
920.03         76.9037
920.42        76.81094
920.82        76.71575
921.21        76.62122
921.61         76.5427
922.00        76.53775
922.40        76.55552
922.79        76.57722
923.19        76.56542
923.58        76.53712
923.98        76.54288
924.37        76.67588
924.77        76.93566
925.16        77.29939
925.55        77.63814
925.95        77.74615
926.34        77.60314
926.74        77.25128
927.13        76.85442
927.52        76.64465
927.92        76.68727
928.31        76.89487
928.70        77.14072
929.10        77.20505
929.49        77.02328
929.89        76.62365
930.28        76.13561
930.67        75.69555
931.07        75.38113
931.46        75.21597
931.85         75.1096
932.24        74.92542
932.64        74.66582
933.03         74.3838
933.42        74.30233
933.82        74.76877
934.21         75.8343
934.60        77.28889
934.99        78.77998
935.39        79.72235
935.78        79.99441
936.17        79.72296
936.56        78.97099
936.96        77.94851
937.35         76.8418
937.74        75.65865
938.13        74.71416
938.53        74.37627
938.92        74.63422
939.31        75.47131
939.70        76.50322
940.09        76.95891
940.49        76.60681
940.88        75.66769
941.27        74.61929
941.66        74.19688
942.05        74.56963
942.44        75.57078
942.84        76.74078
943.23        77.33035
943.62        77.05573
944.01        76.13321
944.40        75.18279
944.79        75.11451
945.18        76.10047
945.57        77.89318
945.97        79.68168
946.36        80.32035
946.75        79.40475
947.14        77.32243
947.53        75.06563
947.92        74.12268
948.31        74.83603
948.70        76.82811
949.09        79.13609
949.48        80.01267
949.87        78.99017
950.26        76.67529
950.65        74.20197
951.04        73.13838
951.43        73.81973
951.82        75.79655
952.21        78.20081
952.60        79.43524
952.99        78.98759
953.38        77.37112
953.77        75.53742
954.16        74.74542
954.55        75.26084
954.94        76.79357
955.33        78.55608
955.72        78.92603
956.11        77.42725
956.50        74.70847
956.89        72.04751
957.28        71.05132
957.66        72.05611
958.05        74.54887
958.44        77.59481
958.83         79.2733
959.22        78.90748
959.61        77.13192
960.00        75.00191
960.39        73.87794
960.78        74.02522
961.16        75.07384
961.55        76.36644
961.94        76.73891
962.33        75.83592
962.72        74.20396
963.11         72.5276
963.49        71.67993
963.88        71.84972
964.27        72.72164
964.66        74.00282
965.04        75.24521
965.43        76.11871
965.82        76.76255
966.21        77.13239
966.60        77.14457
966.98        76.84975
967.37        76.31164
967.76        75.66129
968.15        75.08836
968.53        74.63242
968.92         74.1964
969.31        73.97725
969.69         74.3308
970.08        75.23881
970.47        76.73838
970.86        78.13454
971.24        78.24318
971.63        76.83945
972.02        74.35233
972.40        71.93433
972.79        71.39574
973.17        73.03416
973.56        76.18917
973.95        79.80371
974.33        81.86548
974.72        81.64526
975.11        79.81241
975.49        77.35007
975.88        76.08432
976.26        76.48532
976.65         77.9375
977.04        79.84417
977.42        81.12874
977.81        81.22733
978.19        80.62036
978.58        79.62405
978.96        78.59492
979.35        77.77322
979.74        77.05054
980.12        76.57314
980.51        76.57205
980.89          77.133
981.28        78.03764
981.66        79.28994
982.05        80.55206
982.43        81.77571
982.82        82.94958
983.20        83.65418
983.59         83.0978
983.97        81.28222
984.35        78.51259
984.74        75.95374
985.12        75.20072
985.51        76.45125
985.89        79.34151
986.28        82.59641
986.66        84.42253
987.04        84.10077
987.43        82.15728
987.81        79.48856
988.20        77.96378
988.58        78.09459
988.96        79.41263
989.35        80.81615
989.73        80.76067
990.12        78.84785
990.50        75.77798
990.88        72.61369
991.27        71.02034
991.65        71.37788
992.03        73.15425
992.42        75.62988
992.80        78.03897
993.18        79.93892
993.56        81.52003
993.95        82.61304
994.33        83.09893
994.71        82.87398
995.10        82.03671
995.48        80.80392
995.86        79.59923
996.24         78.6086
996.63        77.71922
997.01        77.32185
997.39        77.82047
997.77        79.21426
998.15        81.35143
998.54        83.52001
998.92          84.658
999.30        84.49445
999.68        83.22944
1000.06        81.49242
1000.45        80.50362
1000.83        80.75344
1001.21         81.9012
1001.59        83.36958
1001.97        84.18518
1002.35        84.05719
1002.73        83.30856
1003.12        82.32764
1003.50        81.60019
1003.88         81.3259
1004.26        81.35441
1004.64        81.47204
1005.02        81.36294
1005.40        80.96554
1005.78        80.41301
1006.16        79.98128
1006.54         80.0302
1006.92        80.61813
1007.30        81.66816
1007.69        82.80448
1008.07        83.38833
1008.45        83.11019
1008.83        82.16283
1009.21        81.05621
1009.59        80.67535
1009.97        81.25853
1010.35        82.47675
1010.73        83.96179
1011.11        85.11919
1011.49        85.69714
1011.86         85.9184
1012.24        85.61394
1012.62        84.72533
1013.00         83.2578
1013.38        81.13123
1013.76        78.64787
1014.14        76.58586
1014.52        75.31478
1014.90        74.83714
1015.28        74.71762
1015.66        74.06353
1016.04         72.6863
1016.41        70.93977
1016.79        69.45658
1017.17         69.4382
1017.55        70.99739
1017.93        73.36163
1018.31        75.88011
1018.69         78.3046
1019.06        80.95595
1019.44         84.0958
1019.82        88.04697
1020.20        92.05579
1020.58         94.7026
1020.95        95.38007
1021.33        94.53239
1021.71        92.86035
1022.09        90.42509
1022.46        86.71931
1022.84         81.8279
1023.22        76.76923
1023.60        73.26171
1023.97        71.86168
1024.35        71.93909
1024.73        72.34222
