SpectraSmart Spectrum 2.9.0.0
--------- Device Information -----------
Spectrum Name :  反射率_0
Saving Time :  2024/04/30 00:17:54
Spectro-Module Model Name : SE2030-DUVN
Spectro-Module Serial Number : OS361AC55029948
Wavelength Start : 200
Wavelength End : 1025
Wavelength Unit : Wavelength(nm)
Spectrum Unit : Reflectance(%)
-----------Spectrum Setting ------------
Integration Time : 20ms
Average : 10
Boxcar : 0
Background removal :  enabled
linearity correction :  enabled
SC :  disabled
Intensity correction :  disabled
DWT denoise :  enabled
savitzky-golay :  disabled
FFT :  disabled
Running average :  disabled
Kalman :  disabled
High pass :  disabled
---------------BEGIN--------------------
Wavelength(nm)             Reflectance(%)
200.29               0
200.75        78.96555
201.21        58.44547
201.67        35.46762
202.13        19.03293
202.58        13.33345
203.04        16.89847
203.50        27.63218
203.96        39.92908
204.42        49.75772
204.88        57.63644
205.34        61.91148
205.80        60.94708
206.26        56.56879
206.72        50.97585
207.18        45.45009
207.64        40.48395
208.10        35.71854
208.55          30.359
209.01        26.06719
209.47        27.06737
209.93        33.18577
210.39        41.89277
210.85        48.78286
211.31        50.15466
211.77        45.74266
212.23        34.93847
212.69        19.78727
213.14        13.42844
213.60        21.98437
214.06        37.66145
214.52        51.04947
214.98        56.30131
215.44        54.59522
215.90        48.51869
216.36        40.64909
216.81        35.77895
217.27        36.53583
217.73         42.1669
218.19        52.61886
218.65        63.41468
219.11        69.17585
219.57        70.06366
220.02        68.29887
220.48        66.58801
220.94        64.80118
221.40        61.79893
221.86        56.15731
222.32        47.68545
222.77        39.68485
223.23        34.87731
223.69        32.26027
224.15        30.16445
224.61        27.97171
225.06        25.39122
225.52        24.02072
225.98        26.48566
226.44        31.96961
226.90        38.08816
227.36         42.3373
227.81         43.1561
228.27        41.02547
228.73        36.55368
229.19        31.43255
229.65        29.41924
230.10        31.27992
230.56        35.03502
231.02        38.54848
231.48        40.03102
231.93        39.46405
232.39        37.61938
232.85        35.32076
233.31        34.07874
233.77        34.42427
234.22        36.02675
234.68        37.98303
235.14        38.67502
235.60        37.74306
236.05        35.80691
236.51        34.16971
236.97        34.53274
237.43        37.39278
237.88          42.825
238.34        50.08445
238.80        56.14481
239.26        58.48264
239.71        57.53106
240.17        54.75602
240.63        52.80539
241.08        52.58189
241.54        53.55967
242.00        56.67579
242.46        63.06227
242.91        71.98174
243.37        81.42509
243.83        88.50628
244.28        92.42374
244.74        93.92052
245.20        92.33711
245.66        89.18378
246.11        88.62961
246.57        92.61747
247.03        101.5289
247.48        111.1135
247.94        111.1308
248.40        102.2953
248.85        90.65174
249.31        82.70575
249.77         80.9321
250.22        84.91859
250.68        95.04562
251.14         110.355
251.59        116.5323
252.05        105.8761
252.51        90.65789
252.96         79.6479
253.42        75.36542
253.88        75.40226
254.33        77.63644
254.79        81.12864
255.25         83.1603
255.70        82.65816
256.16        81.47402
256.62        79.98595
257.07        78.21904
257.53        76.61324
257.99        74.82574
258.44        72.78191
258.90        71.33528
259.35        70.17451
259.81        69.47597
260.27        68.91354
260.72        68.22823
261.18        67.57325
261.63        66.67793
262.09        65.61446
262.55        64.10672
263.00        62.19888
263.46        60.29034
263.91        58.38535
264.37        56.80804
264.83        55.46236
265.28        54.21305
265.74        53.17167
266.19        52.26958
266.65        51.57021
267.11        51.02599
267.56        50.52838
268.02        49.92966
268.47        49.14595
268.93        48.19524
269.38        47.12536
269.84        46.15597
270.30        45.33447
270.75        44.62299
271.21        43.89768
271.66        42.91674
272.12        41.66245
272.57        40.20681
273.03        38.79116
273.48        37.70589
273.94        37.07882
274.39        36.75104
274.85        36.58209
275.31        36.29097
275.76        35.78556
276.22        35.17387
276.67        34.50193
277.13        33.94123
277.58        33.47169
278.04        33.08179
278.49        32.64762
278.95        32.10453
279.40        31.40327
279.86        30.65944
280.31        29.93125
280.77        29.41963
281.22        29.11578
281.68        28.99432
282.13        28.94263
282.59        28.85931
283.04        28.68889
283.50        28.45692
283.95        28.19425
284.41        27.96545
284.86        27.77498
285.32        27.64894
285.77         27.4952
286.22        27.25755
286.68        26.95472
287.13        26.58234
287.59        26.29736
288.04        26.27654
288.50        26.54714
288.95        26.99474
289.41        27.45164
289.86        27.62978
290.32        27.50759
290.77         27.1885
291.22        26.82252
291.68        26.63972
292.13        26.71437
292.59        27.01542
293.04        27.54225
293.50        28.32572
293.95        29.34636
294.40         30.6075
294.86        32.00896
295.31        33.39588
295.77        34.71201
296.22        35.96238
296.68         37.2185
297.13        38.58036
297.58        40.07525
298.04        41.63692
298.49        43.19095
298.95         44.6345
299.40        45.94473
299.85        47.17936
300.31        48.41908
300.76        49.70737
301.21        51.09867
301.67         52.5907
302.12        54.14842
302.58        55.86441
303.03        57.69946
303.48        59.56267
303.94        61.40912
304.39          63.516
304.84        65.21725
305.30        67.05566
305.75        68.81683
306.20        70.55056
306.66        72.26787
307.11        73.89552
307.57        75.47516
308.02        76.95507
308.47        78.37286
308.93        79.74572
309.38        81.04454
309.83        82.29904
310.29        83.51315
310.74        84.66856
311.19        85.72979
311.65        86.62848
312.10        87.35213
312.55        87.95348
313.00        88.56058
313.46        89.37304
313.91        90.40752
314.36        91.59733
314.82        92.80292
315.27        93.82571
315.72        94.57628
316.18        95.11195
316.63        95.46075
317.08        95.68749
317.53        95.84998
317.99         95.9696
318.44        96.08559
318.89         96.2769
319.35        96.56577
319.80        96.93495
320.25        97.42174
320.70        98.07301
321.16        98.83855
321.61         99.7321
322.06        100.5444
322.51        100.9549
322.97        100.8948
323.42         100.468
323.87        99.92202
324.32        99.68136
324.78        99.83971
325.23        100.3463
325.68        100.9976
326.13        101.4387
326.59        101.5472
327.04        101.4712
327.49        101.3651
327.94         101.526
328.39        102.0178
328.85        102.6767
329.30        103.4056
329.75        103.8509
330.20        103.9174
330.66        103.7222
331.11        103.4264
331.56        103.2113
332.01        103.1798
332.46        103.2884
332.92        103.5539
333.37        104.1509
333.82        105.0257
334.27        106.1372
334.72        107.3192
335.17        108.2878
335.63        108.9178
336.08        109.3111
336.53        109.5014
336.98        109.6388
337.43        109.7915
337.88        109.9235
338.34        110.0693
338.79        110.3063
339.24        110.6444
339.69        111.1038
340.14        111.6141
340.59        112.0304
341.05        112.3274
341.50         112.547
341.95        112.7689
342.40        113.1464
342.85        113.7023
343.30         114.351
343.75        115.0173
344.20        115.5867
344.66        116.0274
345.11         116.386
345.56        116.6204
346.01        116.6567
346.46        116.5248
346.91        116.2603
347.36        116.0709
347.81        116.2734
348.26        116.9018
348.72        117.8277
349.17        118.8219
349.62        119.4224
350.07        119.4994
350.52        119.2112
350.97         118.735
351.42        118.3469
351.87        118.1486
352.32        118.0507
352.77        118.0848
353.22        118.3071
353.67        118.6828
354.13         119.179
354.58        119.6189
355.03        119.7046
355.48        119.3587
355.93        118.6466
356.38        117.7251
356.83        116.8468
357.28        116.0926
357.73        115.4199
358.18        114.7488
358.63        113.9463
359.08        112.9998
359.53        111.9786
359.98         111.009
360.43        110.2765
360.88        109.8075
361.33        109.5205
361.78        109.2682
362.23        108.8231
362.68        108.1266
363.13        107.2561
363.58        106.2986
364.03         105.393
364.48        104.5926
364.93        103.8546
365.38        103.1871
365.83        102.6095
366.28        102.1109
366.73        101.6857
367.18        101.2733
367.63        100.7671
368.08        100.1359
368.53        99.40232
368.98         98.6077
369.43          97.825
369.88        97.09634
370.33        96.42741
370.78        95.81494
371.23        95.25359
371.68        94.73709
372.13        94.24557
372.58        93.82257
373.03        93.53307
373.48        93.35316
373.93          93.241
374.38        93.02224
374.83         92.4264
375.28        91.44044
375.72        90.17243
376.17        88.92952
376.62        88.00312
377.07        87.45621
377.52        87.17149
377.97        87.06496
378.42        86.99937
378.87        86.89729
379.32        86.79044
379.77        86.59377
380.22        86.17393
380.67        85.51887
381.11        84.66093
381.56        83.73808
382.01        83.01264
382.46        82.57123
382.91        82.36237
383.36        82.26617
383.81        82.08557
384.26        81.75877
384.71        81.32579
385.15        80.86216
385.60        80.54318
386.05        80.37141
386.50         80.2913
386.95        80.16176
387.40        79.77761
387.85         79.1372
388.29        78.30289
388.74        77.56051
389.19        77.09058
389.64        76.91687
390.09        76.93153
390.54        77.03314
390.98        77.04024
391.43        76.92688
391.88        76.74327
392.33        76.44662
392.78        76.04636
393.23        75.58286
393.67        74.90253
394.12        74.19987
394.57        74.25105
395.02         74.0024
395.47        74.25431
395.91        74.55607
396.36         74.6556
396.81        74.48378
397.26        74.12952
397.71        73.70232
398.15        73.26348
398.60        72.93089
399.05        72.74508
399.50        72.64385
399.95        72.35545
400.39        71.73055
400.84        71.92393
401.29        72.65828
401.74        72.78345
402.18          72.194
402.63         71.4855
403.08        70.92739
403.53        70.65721
403.97        70.72641
404.42        71.06313
404.87        71.45753
405.32        71.52935
405.76        71.18786
406.21        70.72847
406.66        70.24496
407.11        69.63518
407.55        69.14937
408.00        69.23827
408.45        69.82294
408.90        70.53025
409.34         71.0295
409.79         70.7332
410.24        69.91428
410.68        69.68472
411.13        70.13169
411.58        70.60573
412.03          70.898
412.47         70.9684
412.92        70.72753
413.37        70.24667
413.81        69.66825
414.26        69.27542
414.71        69.10127
415.15        69.08464
415.60        69.16412
416.05        69.27766
416.49        69.39445
416.94        69.54384
417.39        69.67157
417.83         69.6652
418.28        69.52331
418.73        69.27248
419.17        69.03632
419.62        69.03467
420.07        69.27767
420.51        69.66181
420.96        70.07668
421.41        70.22896
421.85        70.03642
422.30        69.88776
422.74        69.73566
423.19        69.13355
423.64        68.31732
424.08        68.37071
424.53        69.20257
424.98        69.68275
425.42        69.70118
425.87        70.02055
426.31        70.51694
426.76        70.39154
427.21        69.59975
427.65        69.27666
428.10        69.40534
428.54        69.24995
428.99        68.89497
429.44        68.89706
429.88        69.21192
430.33        69.36629
430.77         69.3319
431.22        69.78952
431.66        70.55089
432.11         70.4779
432.56         69.7049
433.00        69.46057
433.45         69.9174
433.89        70.49094
434.34        70.66165
434.78        71.60231
435.23        69.87357
435.67        69.31382
436.12         69.1414
436.57        69.31874
437.01        69.73145
437.46        69.99114
437.90        70.08331
438.35        70.37048
438.79        70.80103
439.24        70.95538
439.68        70.83704
440.13        70.86821
440.57        71.13008
441.02        71.20398
441.46        71.00027
441.91        71.72562
442.35        71.76134
442.80        71.45657
443.24        71.26555
443.69        70.95347
444.13        70.82023
444.58        70.67107
445.02        70.50539
445.47        70.49474
445.91         70.6046
446.36        70.70429
446.80        70.74706
447.24        70.89336
447.69        70.94209
448.13        71.00436
448.58          71.039
449.02        71.03929
449.47        71.04449
449.91        71.08069
450.36        71.17142
450.80        71.29418
451.25         71.4316
451.69        71.51605
452.13         71.5397
452.58        71.55063
453.02        71.56841
453.47        71.58967
453.91        71.59041
454.36        71.78015
454.80        71.82401
455.24        71.81016
455.69        71.86309
456.13        71.94482
456.58        72.09186
457.02        71.62798
457.46        71.26265
457.91         70.9733
458.35        70.93388
458.79        70.85915
459.24        70.79498
459.68        70.92255
460.13         71.1787
460.57        71.16274
461.01        71.38703
461.46        70.89453
461.90        70.64974
462.34        70.84866
462.79        71.37708
463.23        71.24298
463.68        70.49615
464.12        70.16032
464.56        70.28016
465.01         70.3053
465.45        70.16347
465.89        70.15176
466.34        70.25184
466.78        70.32293
467.22          70.342
467.67        70.26063
468.11        70.10236
468.55        69.83997
468.99        69.54073
469.44        69.30186
469.88        69.14963
470.32        69.07529
470.77         69.0414
471.21        69.00862
471.65        68.94954
472.10         68.8926
472.54        68.84914
472.98        68.87119
473.42        68.95734
473.87        69.10284
474.31        69.23147
474.75        69.21698
475.20        69.05106
475.64        68.90784
476.08        68.86151
476.52        68.65353
476.97        68.24503
477.41         68.7935
477.85        68.35218
478.29        68.37108
478.74        68.58493
479.18        68.48364
479.62        68.23936
480.06        68.18488
480.50        68.36005
480.95        68.29062
481.39        69.04221
481.83        68.43116
482.27        68.91446
482.72        68.95085
483.16        68.86759
483.60        68.80263
484.04         69.0886
484.48        69.36607
484.93        69.47586
485.37        69.33497
485.81        68.83894
486.25        67.42864
486.69        68.08184
487.14        68.18513
487.58         67.8386
488.02         68.4173
488.46         68.7245
488.90        68.72788
489.34         68.0414
489.79        68.65342
490.23        67.87397
490.67        68.04532
491.11        68.26749
491.55        68.10271
491.99        67.63042
492.43        67.49968
492.88        67.75689
493.32        68.02758
493.76         68.2193
494.20        68.38364
494.64        68.49372
495.08        68.52255
495.52        68.48783
495.96        68.45244
496.41        68.44339
496.85        68.37498
497.29        68.27141
497.73        68.29801
498.17        68.60065
498.61         68.3317
499.05        67.69898
499.49        67.58532
499.93        67.93807
500.37        67.98647
500.82        67.72648
501.26        67.65291
501.70        67.75819
502.14          67.951
502.58        67.90063
503.02        67.97057
503.46        68.06281
503.90        68.15676
504.34        68.23563
504.78        68.27807
505.22        68.27321
505.66        68.23404
506.10        68.18161
506.54        68.12254
506.98        68.06079
507.42        68.17086
507.86        67.97537
508.30        68.08338
508.74        67.76192
509.18         67.5378
509.62        67.33035
510.06        67.31857
510.50        67.52438
510.94        67.89031
511.38        68.28288
511.82        68.46436
512.26        68.37513
512.70        68.08932
513.14         67.7264
513.58        67.47103
514.02         67.3804
514.46        67.40486
514.90        67.49107
515.34        67.55289
515.78         67.5607
516.22        67.54314
516.66        67.53252
517.10        67.57171
517.54        67.66504
517.98        67.78764
518.42        67.88807
518.86        67.89219
519.30        67.78825
519.74        67.60563
520.18        67.41106
520.62         67.3031
521.06        67.31095
521.50        67.41633
521.93        67.57104
522.37        67.67104
522.81        67.69514
523.25        67.65905
523.69        67.62267
524.13        67.68008
524.57        67.84167
525.01         68.0712
525.45        68.26848
525.89        68.27536
526.32         68.0566
526.76        67.69394
527.20        67.30911
527.64        67.09211
528.08        67.08652
528.52        67.23239
528.96        67.44093
529.40         67.5687
529.83        67.56829
530.27        67.49411
530.71        67.38405
531.15          67.304
531.59        67.27441
532.03        67.26579
532.46        67.25771
532.90        67.25137
533.34        67.23552
533.78        67.22288
534.22        67.20848
534.66        67.17904
535.09         67.1302
535.53        67.07937
535.97        67.03469
536.41         67.0332
536.85        67.07819
537.28        67.13721
537.72        67.18679
538.16        67.24687
538.60        67.20509
539.04        67.15714
539.47        67.06037
539.91        66.95824
540.35        66.84589
540.79        66.72395
541.22        66.61259
541.66        66.59523
542.10        66.60861
542.54        66.70181
542.97        66.81995
543.41        66.92747
543.85        67.00157
544.29        67.06212
544.72        67.09258
545.16        67.10545
545.60        67.10019
546.04        67.04145
546.47        66.96557
546.91         67.0387
547.35        67.22443
547.79        67.28474
548.22        67.18198
548.66        67.21497
549.10        67.39361
549.53        67.35839
549.97        67.00859
550.41        67.58005
550.84        67.05251
551.28        66.92814
551.72        66.63666
552.15        66.87299
552.59        66.78258
553.03         66.8624
553.46        66.85675
553.90        66.89561
554.34         66.9576
554.77        66.97395
555.21        66.97075
555.65        66.97924
556.08        66.98844
556.52        67.04657
556.96          67.153
557.39        67.14174
557.83         67.2807
558.27        67.41502
558.70        67.22414
559.14        67.31247
559.57        67.49237
560.01        67.64469
560.45        67.71712
560.88        67.45358
561.32        67.26653
561.75        67.20708
562.19        67.34483
562.63         67.1981
563.06        66.83655
563.50         66.8306
563.93        67.10925
564.37        67.22511
564.80        67.13786
565.24        67.10452
565.68        67.11908
566.11        67.14041
566.55        67.17426
566.98        67.06976
567.42        66.95432
567.85        67.02725
568.29        67.24148
568.72        67.47433
569.16        67.81734
569.60        67.17113
570.03        67.60361
570.47        67.55869
570.90        67.67751
571.34        67.15135
571.77        67.51701
572.21        67.58637
572.64         67.7485
573.08        67.67219
573.51        67.35143
573.95        67.69593
574.38        67.68533
574.82        67.52026
575.25        67.55563
575.69        67.50666
576.12        67.32096
576.56        67.08466
576.99        67.20005
577.42        67.31343
577.86        66.88768
578.29        66.88242
578.73        67.22762
579.16        67.13346
579.60        67.25089
580.03        67.12838
580.47        67.50031
580.90        67.70488
581.33        67.37524
581.77        66.68552
582.20        67.10792
582.64        67.35837
583.07        67.03169
583.51        66.87981
583.94        66.88876
584.37        66.68159
584.81        66.47494
585.24        66.85856
585.68        67.15738
586.11        67.69482
586.54         67.0852
586.98        66.38895
587.41        67.28472
587.85        68.04276
588.28        67.55357
588.71          67.854
589.15        67.03207
589.58        67.59708
590.01        66.60745
590.45        66.76633
590.88        67.33192
591.31        67.54798
591.75        67.64462
592.18        67.70262
592.61        68.08096
593.05        66.79422
593.48        67.37703
593.91        67.87933
594.35         66.8007
594.78        66.67972
595.21        66.65582
595.65        67.43742
596.08        66.85723
596.51        66.79788
596.94        67.26637
597.38        67.35011
597.81        67.09375
598.24        67.31957
598.68        67.24463
599.11        66.61822
599.54        67.34263
599.97        68.04755
600.41        66.50263
600.84        66.88842
601.27        66.78254
601.70        67.15459
602.14        67.32821
602.57        67.06107
603.00        66.48732
603.43        66.51763
603.87        66.94997
604.30        67.17065
604.73        67.11597
605.16        66.94052
605.60        66.90711
606.03         67.0069
606.46        67.23864
606.89        67.20866
607.32        66.94543
607.76        66.88132
608.19        67.09666
608.62        67.05073
609.05        67.09565
609.48        67.29238
609.92        67.40793
610.35        67.17146
610.78        67.46409
611.21        66.81306
611.64         67.0184
612.07        67.05927
612.50        67.34755
612.94        67.05386
613.37        67.43484
613.80        67.41726
614.23        67.50127
614.66        67.53677
615.09        67.58913
615.52        67.47662
615.96         67.1424
616.39        67.61603
616.82          66.875
617.25         67.2506
617.68        66.94637
618.11        67.08361
618.54        67.23435
618.97        67.24083
619.40        67.12798
619.84        67.06331
620.27        67.12187
620.70        67.17751
621.13        67.15125
621.56        66.99746
621.99          67.077
622.42        66.41563
622.85        67.33641
623.28        67.47877
623.71         67.9185
624.14        66.37121
624.57          67.179
625.00        66.91445
625.43        66.91567
625.86        66.84924
626.29        66.96818
626.72        67.02667
627.15        67.03958
627.58        67.06597
628.01        67.07575
628.44        66.99836
628.87        66.91283
629.30        66.75295
629.73        67.13853
630.16        67.20628
630.59        67.11692
631.02         67.2051
631.45         67.1793
631.88        67.17348
632.31        67.13312
632.74         67.0592
633.17        66.96297
633.60        66.84338
634.03        66.71104
634.46        66.58469
634.89        66.48526
635.32        66.40059
635.75        66.36694
636.18        66.46803
636.61        66.70894
637.04        66.83614
637.47        66.85447
637.89        66.82375
638.32        66.72176
638.75        66.67796
639.18        66.73772
639.61        66.21406
640.04        66.35293
640.47        66.27271
640.90        66.34441
641.33         66.5322
641.76        66.75485
642.18        66.85273
642.61        66.75652
643.04        66.52585
643.47        66.29177
643.90        66.24521
644.33        66.41868
644.76        66.83138
645.18        67.30683
645.61        67.37305
646.04        66.91322
646.47        66.78162
646.90        66.94099
647.33        66.88766
647.75        66.62582
648.18        66.48991
648.61        66.49599
649.04        66.52866
649.47        66.58938
649.89        66.67849
650.32        66.74524
650.75        66.90178
651.18        67.09457
651.61        66.96912
652.03        66.65456
652.46        66.77325
652.89        67.16503
653.32        67.21812
653.74        67.02465
654.17        66.59417
654.60        66.26461
655.03         67.9038
655.46        65.51123
655.88        66.76946
656.31        68.00056
656.74        68.65584
657.16        68.15911
657.59        66.57816
658.02        66.17497
658.45        67.53888
658.87        67.46007
659.30        66.85707
659.73        67.35388
660.15        67.44475
660.58        67.27055
661.01        67.30183
661.44        67.34676
661.86        66.89599
662.29        66.14278
662.72        66.16418
663.14        66.86781
663.57        66.94208
664.00        66.44067
664.42        66.37148
664.85        66.76531
665.27        67.03764
665.70        67.10756
666.13        67.14925
666.55        67.15772
666.98        67.07646
667.41        66.94836
667.83        66.84303
668.26        66.77407
668.69        66.73886
669.11        66.73374
669.54        66.73737
669.96        66.74003
670.39        66.78503
670.82        66.84298
671.24        66.78526
671.67        66.63725
672.09        66.60747
672.52        66.70737
672.94        66.83915
673.37        66.48347
673.80        66.93316
674.22        66.69225
674.65        66.81399
675.07         66.9059
675.50        66.99911
675.92        67.08431
676.35        67.13859
676.77        67.17332
677.20        67.16913
677.62        67.14996
678.05        67.15616
678.47        67.19112
678.90        67.25227
679.32        67.29705
679.75        67.26879
680.17        67.15277
680.60        66.97848
681.02        66.80471
681.45        66.71384
681.87        66.72537
682.30        66.84438
682.72         67.0246
683.15        67.01878
683.57          66.883
684.00        66.94431
684.42        67.16045
684.85        67.24505
685.27        67.19029
685.70        67.04427
686.12        66.91659
686.54        67.22955
686.97        67.84833
687.39        68.14031
687.82        68.00875
688.24        67.92608
688.66        67.88788
689.09         67.5777
689.51        67.11333
689.94        66.86323
690.36        66.87284
690.78        67.02762
691.21        67.24107
691.63        67.38924
692.06        67.42717
692.48        67.40468
692.90        67.35137
693.33        67.30751
693.75        67.28895
694.17        67.26278
694.60        67.24603
695.02        67.24783
695.44        67.25652
695.87        67.40086
696.29        67.61069
696.71        67.42657
697.14        66.98577
697.56        67.00796
697.98        67.44308
698.41        67.62115
698.83          67.505
699.25        67.48971
699.68        67.55814
700.10        67.54912
700.52        67.44572
700.94        67.30808
701.37        67.15882
701.79        67.05239
702.21        66.99672
702.64        66.98421
703.06        67.01012
703.48        67.07822
703.90         67.1834
704.33        67.33466
704.75        67.47285
705.17        67.56951
705.59          67.591
706.01         67.5502
706.44        67.48934
706.86         67.4746
707.28        67.51745
707.70        67.62592
708.12        67.77159
708.55        67.83209
708.97        67.82462
709.39        67.90691
709.81        68.07121
710.23        68.18566
710.66        68.23401
711.08        68.30582
711.50        68.39169
711.92        68.47406
712.34        68.55229
712.76         68.6281
713.19        68.67089
713.61        68.67567
714.03        68.62348
714.45        68.53127
714.87        68.43023
715.29        68.36395
715.71        68.34384
716.13        68.35815
716.56        68.37875
716.98         68.4431
717.40        68.51614
717.82        68.59416
718.24        68.66253
718.66        68.69936
719.08        68.69792
719.50        68.65953
719.92        68.59319
720.34        68.51662
720.76         68.4379
721.19        68.34921
721.61        68.26488
722.03        68.17992
722.45        68.09708
722.87        68.02204
723.29        67.96203
723.71        67.92466
724.13        67.91204
724.55         67.9231
724.97        67.95161
725.39        67.98505
725.81        68.02174
726.23        68.06686
726.65        68.12259
727.07        68.19673
727.49         68.2855
727.91        68.36967
728.33        68.45526
728.75        68.55408
729.17        68.66067
729.59        68.77811
730.01        68.84733
730.43        68.77387
730.85        68.55708
731.27        68.23859
731.69        67.94439
732.10         67.8708
732.52        68.05799
732.94        68.45126
733.36        68.91901
733.78        69.24049
734.20        69.33618
734.62         69.2122
735.04        68.99509
735.46        68.97788
735.88        69.17078
736.30        69.31467
736.72        69.31681
737.13        69.27542
737.55        69.13991
737.97        68.74548
738.39        68.27793
738.81        68.24844
739.23        68.64619
739.65        69.03969
740.06        69.23668
740.48        69.29984
740.90        69.17325
741.32        68.76617
741.74        68.25048
742.16        68.03301
742.57        68.21424
742.99        68.57578
743.41         68.9967
743.83        69.45515
744.25        69.79887
744.67        69.68081
745.08        69.23258
745.50        69.02635
745.92        69.14546
746.34        69.28345
746.75        69.38066
747.17        69.46484
747.59        69.51091
748.01        69.53505
748.42        69.55048
748.84        69.52135
749.26         69.4729
749.68        69.45223
750.09        69.44719
750.51        69.43271
750.93        69.39733
751.35        69.37267
751.76        69.36187
752.18        69.34482
752.60        69.32245
753.01        69.31113
753.43        69.29682
753.85        69.28941
754.27        69.30014
754.68        69.34525
755.10        69.41492
755.52        69.49628
755.93         69.5685
756.35        69.60367
756.77        69.64177
757.18        69.77007
757.60        70.00365
758.02        70.35326
758.43        70.57926
758.85        70.68329
759.26        69.64461
759.68        69.30997
760.10        69.44377
760.51        69.62695
760.93        69.78504
761.34        70.03628
761.76        70.27842
762.18        70.30737
762.59        70.11057
763.01        69.61328
763.42        69.02579
763.84        68.72435
764.26        68.79964
764.67        69.06527
765.09         69.4351
765.50        69.82333
765.92        70.14225
766.33        70.26247
766.75        70.14598
767.16        70.11921
767.58        70.17633
768.00        70.08378
768.41        69.88918
768.83         69.9614
769.24        70.19585
769.66        70.08091
770.07        69.67491
770.49        69.48129
770.90        69.55577
771.32         69.7533
771.73        70.01321
772.15        70.12245
772.56        70.05553
772.97        70.16743
773.39        70.01225
773.80        70.11263
774.22        70.30307
774.63        70.60062
775.05        70.87061
775.46        70.99737
775.88        70.92331
776.29        70.73143
776.70        70.48331
777.12        70.30022
777.53        70.22664
777.95        70.20706
778.36        70.26781
778.77        70.40541
779.19        70.60053
779.60        70.97749
780.02         71.3776
780.43        71.42386
780.84        71.18237
781.26        71.00093
781.67         70.9937
782.09         71.3502
782.50        71.88749
782.91        71.72795
783.33        71.09663
783.74        70.69823
784.15        70.64142
784.57        70.40503
784.98        70.06443
785.39        70.00401
785.81        70.25119
786.22        70.68448
786.63        71.19521
787.04        71.61297
787.46        71.88116
787.87        72.02163
788.28        72.08486
788.70        72.14967
789.11         72.2289
789.52        72.30613
789.93        72.34483
790.35        72.28565
790.76         72.1423
791.17        71.95538
791.58        71.79177
792.00        71.73042
792.41        71.81085
792.82        71.98612
793.23        72.22102
793.65        72.46066
794.06        72.67755
794.47         72.8708
794.88        72.98921
795.29        72.96177
795.71        72.75583
796.12        72.42183
796.53        72.09051
796.94        72.01899
797.35        72.26927
797.76        72.77014
798.18        73.31184
798.59        73.59377
799.00        73.51479
799.41        73.17403
799.82        72.72279
800.23        72.42007
800.64        72.35195
801.06        72.41611
801.47        72.58988
801.88        72.75215
802.29        72.85504
802.70        72.93596
803.11        72.98595
803.52        72.97876
803.93        72.91604
804.34        72.79717
804.75        72.65328
805.17        72.54077
805.58        72.50772
805.99        72.53293
806.40         72.6074
806.81        72.71301
807.22        72.83541
807.63        72.96718
808.04         73.1027
808.45        73.22845
808.86        73.33816
809.27        73.44234
809.68        73.49936
810.09        73.44731
810.50        73.28413
810.91        73.02095
811.32         72.7844
811.73        72.77587
812.14        73.02998
812.55        73.49966
812.96        73.99189
813.37        74.14973
813.78        73.89178
814.19        73.34976
814.60        72.75649
815.01        72.44313
815.42        72.48747
815.83        72.79112
816.24        73.24225
816.65        73.61407
817.05         73.7999
817.46        73.82327
817.87        73.74964
818.28        73.62148
818.69        73.46956
819.10        73.27988
819.51        73.07757
819.92        72.92793
820.33        72.85699
820.74        72.85081
821.14        72.92474
821.55        73.09761
821.96        73.34792
822.37        73.67373
822.78        73.96178
823.19        74.01334
823.60        73.77799
824.00        73.30218
824.41        72.75364
824.82        72.43018
825.23        72.40359
825.64        72.62127
826.04        72.92789
826.45        72.96352
826.86        72.67545
827.27        72.17661
827.68        71.70117
828.08        71.63845
828.49        72.02586
828.90        72.76546
829.31        73.63905
829.72        74.27257
830.12        74.56586
830.53        74.53868
830.94        74.36297
831.35        74.29278
831.75        74.42771
832.16        74.61169
832.57        74.77171
832.97        74.75179
833.38         74.5202
833.79        74.20077
834.20        73.84706
834.60        73.49576
835.01        73.21397
835.42        72.96925
835.82         72.8877
836.23        73.11272
836.64        73.67122
837.04        74.53144
837.45        75.38548
837.86        75.87356
838.26        75.87836
838.67        75.49812
839.08        74.91911
839.48        74.42398
839.89        74.15394
840.29        74.03282
840.70        74.02762
841.11        74.09988
841.51        74.24697
841.92        74.45478
842.33         74.7253
842.73        75.02584
843.14        75.28024
843.54        75.51456
843.95        75.67993
844.35        75.77708
844.76        75.77845
845.17        75.65475
845.57        75.48293
845.98        75.35931
846.38        75.32615
846.79        75.37754
847.19        75.36101
847.60        74.96511
848.00         74.1908
848.41        73.17303
848.81        72.27414
849.22         72.0256
849.62        72.56209
850.03        73.68391
850.43        75.08118
850.84        75.98172
851.24         76.1874
851.65        75.78212
852.05        75.08302
852.46        74.58349
852.86        74.42396
853.27        74.51603
853.67        74.57885
854.07         74.4271
854.48         73.9691
854.88        73.30799
855.29         72.5805
855.69        72.26962
856.10         72.4256
856.50        73.01403
856.90        73.64777
857.31        73.78781
857.71        73.36359
858.12        72.48373
858.52        71.53679
858.92        71.12103
859.33        71.38158
859.73        72.19446
860.13        73.16901
860.54        73.67676
860.94        73.58722
861.34        72.98682
861.75        72.18912
862.15        71.79008
862.55         71.9176
862.96         72.4171
863.36         72.8717
863.76        72.65872
864.17        71.71213
864.57        70.30594
864.97        68.93627
865.38         68.2924
865.78        68.56633
866.18        69.53263
866.58        70.87541
866.99        71.91602
867.39        72.40543
867.79        72.49426
868.19        72.27758
868.60        71.90737
869.00        71.47919
869.40        70.91064
869.80        70.42777
870.21        70.43477
870.61        71.03485
871.01        72.09498
871.41        73.18623
871.81        73.60242
872.22        73.18323
872.62        72.13263
873.02        70.87291
873.42        70.12157
873.82        70.09973
874.22         70.6283
874.63        71.36537
875.03        71.78355
875.43        71.74596
875.83        71.39529
876.23        71.06546
876.63          71.297
877.03        72.17757
877.44        73.45773
877.84        74.69963
878.24        75.10784
878.64        74.53981
879.04        73.32635
879.44         71.9597
879.84        71.14982
880.24        71.06292
880.64         71.4451
881.04        72.11927
881.44        72.78818
881.84        73.31061
882.24        73.80521
882.65        74.08121
883.05        73.94602
883.45        73.35793
883.85        72.41685
884.25         71.5139
884.65        71.26015
885.05        71.75408
885.45         72.7734
885.85        74.00592
886.25        74.89661
886.65        75.21722
887.05        75.12839
887.45         74.6079
887.85        73.65117
888.25        72.42651
888.65        71.05338
889.04        69.84785
889.44        69.29053
889.84        69.39097
890.24        70.03455
890.64        71.05147
891.04        72.00935
891.44        72.67034
891.84        73.12251
892.24        73.32978
892.64        73.28922
893.04        73.05795
893.44        72.60525
893.83        72.19567
894.23        72.23963
894.63        72.83704
895.03        73.85136
895.43         74.9108
895.83        75.43207
896.23        75.28143
896.63        74.61658
897.02        73.72475
897.42        73.14902
897.82        73.03075
898.22        73.24995
898.62        73.56893
899.01        73.60354
899.41        73.24912
899.81        72.65206
900.21        72.08794
900.61        71.96108
901.00        72.33994
901.40        73.07797
901.80        73.83081
902.20        74.05342
902.59         73.6151
902.99        72.68795
903.39        71.63838
903.79        71.00928
904.18        70.93243
904.58        71.28436
904.98        71.76252
905.38        71.90406
905.77        71.58249
906.17        70.94434
906.57        70.30286
906.96        70.17323
907.36        70.63293
907.76        71.55014
908.15        72.52228
908.55        72.75986
908.95        72.16074
909.34        70.96771
909.74        69.81277
910.14        69.52975
910.53        70.32913
910.93        71.88869
911.33          73.758
911.72        75.23124
912.12        75.97806
912.52        76.19193
912.91        76.08941
913.31        76.03757
913.70        76.15665
914.10        76.26291
914.49        76.17911
914.89        75.64115
915.29        74.65812
915.68        73.42508
916.08        72.22878
916.47        71.34629
916.87        70.92501
917.26        70.83769
917.66        71.06857
918.05        71.60499
918.45        72.32542
918.84        73.26371
919.24        74.10714
919.64        74.47101
920.03        74.27349
920.42        73.59091
920.82        72.76414
921.21        72.24557
921.61        72.17171
922.00        72.43559
922.40         72.8725
922.79         73.2705
923.19        73.50827
923.58        73.68923
923.98        73.81563
924.37        73.89608
924.77        73.93324
925.16        73.89236
925.55        73.82008
925.95        73.81721
926.34        73.91777
926.74         74.0925
927.13        74.23299
927.52        74.12103
927.92        73.73486
928.31        73.13237
928.70        72.51205
929.10         72.1764
929.49        72.19745
929.89         72.4601
930.28        72.80448
930.67        72.87261
931.07         72.5771
931.46        72.07225
931.85        71.50803
932.24        71.10471
932.64        70.94981
933.03        70.99302
933.42        71.23147
933.82        71.64364
934.21        72.19865
934.60        72.81953
934.99        73.48029
935.39        74.11507
935.78        74.73026
936.17        75.30843
936.56        75.56345
936.96        75.09732
937.35        73.93067
937.74         72.2702
938.13        70.75246
938.53        70.18147
938.92        70.64791
939.31        72.01255
939.70        73.68902
940.09        74.52405
940.49        74.15166
940.88        72.90725
941.27        71.51125
941.66        71.04352
942.05        71.73391
942.44        73.30426
942.84        75.03461
943.23        75.70179
943.62        74.90865
944.01         73.0647
944.40        71.10353
944.79        70.37824
945.18        71.16242
945.57        73.06171
945.97        75.13133
946.36        75.97378
946.75        75.09164
947.14        72.98292
947.53        70.61545
947.92        69.42657
948.31        69.77606
948.70        71.26099
949.09        73.11945
949.48        73.98664
949.87        73.45114
950.26        71.97665
950.65        70.34394
951.04        69.61901
951.43        70.03766
951.82         71.2848
952.21        72.74987
952.60        73.34689
952.99        72.75771
953.38        71.35606
953.77        69.88313
954.16        69.30252
954.55        69.81398
954.94        71.23028
955.33        72.89716
955.72        73.42847
956.11        72.40353
956.50        70.32877
956.89        68.30673
957.28        67.77567
957.66        69.03286
958.05        71.59464
958.44        74.57909
958.83        76.16605
959.22        75.72502
959.61        73.89509
960.00        71.64577
960.39        70.20118
960.78         69.8098
961.16        70.12325
961.55        70.71456
961.94        70.86516
962.33        70.34813
962.72        69.56129
963.11         68.7976
963.49         68.3891
963.88        68.42065
964.27        68.70794
964.66        69.26846
965.04        70.21646
965.43        71.38692
965.82        72.73645
966.21        73.88767
966.60         74.1694
966.98        73.48628
967.37        72.15645
967.76        70.60246
968.15        69.36989
968.53        68.58743
968.92        68.04713
969.31         67.9041
969.69        68.44077
970.08        69.60728
970.47        71.48067
970.86        73.31267
971.24        73.80261
971.63         72.6759
972.02        70.32923
972.40        67.97716
972.79         67.5528
973.17        69.37534
973.56        72.75322
973.95        76.52806
974.33        78.50892
974.72        77.93357
975.11        75.53735
975.49        72.45013
975.88        70.72406
976.26        70.88371
976.65        72.26988
977.04        74.17627
977.42        75.31847
977.81        75.09417
978.19        74.08183
978.58        72.70299
978.96        71.45705
979.35        70.63888
979.74        70.08482
980.12         69.9333
980.51        70.42343
980.89        71.58131
981.28        73.13486
981.66        74.98099
982.05        76.62675
982.43        77.95588
982.82        79.00012
983.20        79.30474
983.59        78.06488
983.97        75.38942
984.35        71.69757
984.74        68.40836
985.12        67.46654
985.51        69.09761
985.89        72.80017
986.28        77.10826
986.66        79.88213
987.04        80.26089
987.43         78.8621
987.81        76.49072
988.20        74.89929
988.58        74.60732
988.96        75.13338
989.35        75.71111
989.73        75.38368
990.12        73.85909
990.50        71.66378
990.88        69.40952
991.27        67.99285
991.65        67.62232
992.03        68.05933
992.42        68.95346
992.80        70.07807
993.18        71.20186
993.56        72.42255
993.95        73.57445
994.33        74.49329
994.71        75.00392
995.10        75.13247
995.48        75.03827
995.86        75.10121
996.24        75.42457
996.63        75.81498
997.01        76.31028
997.39        76.73846
997.77        76.99706
998.15        77.18254
998.54        77.11166
998.92        76.48809
999.30        75.29987
999.68        73.66673
1000.06        72.08649
1000.45        71.45583
1000.83        72.09043
1001.21         73.6958
1001.59        75.79422
1001.97        77.56353
1002.35        78.67781
1002.73        79.33485
1003.12        79.48842
1003.50         79.0187
1003.88        78.06966
1004.26        76.70702
1004.64        75.39797
1005.02        74.97471
1005.40        75.59628
1005.78        76.94955
1006.16        78.59918
1006.54        79.94693
1006.92        80.80552
1007.30        81.30656
1007.69        81.33003
1008.07        80.81356
1008.45        79.75227
1008.83        78.24977
1009.21        76.59053
1009.59        75.26344
1009.97        74.45712
1010.35        74.05807
1010.73        74.25697
1011.11        75.26009
1011.49        76.93457
1011.86        79.21487
1012.24        81.13004
1012.62         81.4408
1013.00         79.8388
1013.38        76.40662
1013.76        72.20691
1014.14        69.61695
1014.52        69.57289
1014.90        71.68538
1015.28        74.25391
1015.66        74.45455
1016.04        71.65744
1016.41        66.70493
1016.79        61.63239
1017.17        60.34771
1017.55        63.39656
1017.93        68.62955
1018.31        73.78979
1018.69         77.1915
1019.06        79.01539
1019.44        79.74926
1019.82         80.0076
1020.20        81.04383
1020.58        83.08517
1020.95        84.98338
1021.33        85.85545
1021.71        84.94746
1022.09        82.05861
1022.46        77.06148
1022.84        70.28555
1023.22        63.64063
1023.60        59.56071
1023.97        58.21127
1024.35        58.66604
1024.73         59.6079
