SpectraSmart Spectrum 2.9.0.0
--------- Device Information -----------
Spectrum Name :  反射率_0
Saving Time :  2024/04/30 00:23:23
Spectro-Module Model Name : SE2030-DUVN
Spectro-Module Serial Number : OS361AC55029948
Wavelength Start : 200
Wavelength End : 1025
Wavelength Unit : Wavelength(nm)
Spectrum Unit : Reflectance(%)
-----------Spectrum Setting ------------
Integration Time : 20ms
Average : 10
Boxcar : 0
Background removal :  enabled
linearity correction :  enabled
SC :  disabled
Intensity correction :  disabled
DWT denoise :  enabled
savitzky-golay :  disabled
FFT :  disabled
Running average :  disabled
Kalman :  disabled
High pass :  disabled
---------------BEGIN--------------------
Wavelength(nm)             Reflectance(%)
200.29               0
200.75        74.01537
201.21         65.0309
201.67        55.96685
202.13        47.15568
202.58        39.04183
203.04        31.55342
203.50        25.95328
203.96        25.31854
204.42        30.53234
204.88        40.45405
205.34        51.58511
205.80        58.13923
206.26        59.23323
206.72        57.53962
207.18        54.71007
207.64        51.69985
208.10        48.65271
208.55        45.16006
209.01        42.08231
209.47        42.16249
209.93        45.53616
210.39        50.63539
210.85        55.19592
211.31        57.60279
211.77        57.86023
212.23        55.87174
212.69        52.23379
213.14         50.6818
213.60        52.46217
214.06        56.38328
214.52        59.20002
214.98        58.39809
215.44        54.46772
215.90        48.27346
216.36        42.52069
216.81        42.61802
217.27         51.4049
217.73        69.52245
218.19        94.79318
218.65        112.1498
219.11        111.2032
219.57        97.70147
220.02        82.56919
220.48        73.39709
220.94          68.935
221.40        66.26085
221.86        63.69149
222.32         59.0979
222.77        53.44137
223.23        49.90286
223.69        47.66102
224.15        45.21804
224.61         42.1698
225.06        38.19317
225.52        34.93458
225.98        35.80173
226.44          40.502
226.90        46.35351
227.36         50.8642
227.81        52.51764
228.27        51.72069
228.73        49.06065
229.19        45.50418
229.65        43.32148
230.10         43.2262
230.56        44.26165
231.02        45.29718
231.48        45.30946
231.93        44.19445
232.39        42.46487
232.85        40.54891
233.31        39.29056
233.77         39.0486
234.22        39.67952
234.68        40.82245
235.14        41.82504
235.60        42.47518
236.05        42.92134
236.51        43.66553
236.97        45.45934
237.43        48.63472
237.88        53.49886
238.34        59.53056
238.80        64.74334
239.26        67.27821
239.71        67.23051
240.17        65.73201
240.63        65.11398
241.08        66.38358
241.54        69.57021
242.00         75.6683
242.46        83.94316
242.91        91.42102
243.37        95.78175
243.83        97.50478
244.28        99.34452
244.74        102.2444
245.20        105.2267
245.66        107.9364
246.11        109.5857
246.57        109.7003
247.03        109.9673
247.48        109.1985
247.94        104.8519
248.40        98.85773
248.85        92.58091
249.31        89.63432
249.77        91.51322
250.22        98.45023
250.68        112.2422
251.14        131.2873
251.59        136.6056
252.05        119.7192
252.51         97.3504
252.96        81.86231
253.42         76.4391
253.88        77.67855
254.33        83.04614
254.79        90.12455
255.25        93.10709
255.70        90.84518
256.16        87.08744
256.62        83.96595
257.07        82.70473
257.53        83.38409
257.99        84.88964
258.44        85.88993
258.90        85.52856
259.35        83.50641
259.81          81.152
260.27        79.11765
260.72        77.93845
261.18         77.6987
261.63        77.65857
262.09        77.44627
262.55        76.18253
263.00        73.90408
263.46        71.37511
263.91        68.91375
264.37        67.26782
264.83        66.32387
265.28        65.73679
265.74        65.39594
266.19        64.87276
266.65        64.15455
267.11        63.30326
267.56        62.34537
268.02        61.32932
268.47        60.21827
268.93        58.99837
269.38        57.64347
269.84        56.26797
270.30        54.92891
270.75        53.64524
271.21        52.46868
271.66        51.36978
272.12        50.33522
272.57        49.33104
273.03        48.34985
273.48        47.28668
273.94        46.21523
274.39        45.12468
274.85         44.1315
275.31        43.28791
275.76        42.56443
276.22        41.95663
276.67        41.38195
277.13        40.85205
277.58        40.29035
278.04        39.75756
278.49        39.15208
278.95        38.45056
279.40        37.61257
279.86        36.74464
280.31         35.8969
280.77        35.28751
281.22        34.89672
281.68        34.69161
282.13        34.56628
282.59         34.4411
283.04           34.25
283.50        34.02979
283.95        33.74271
284.41         33.3602
284.86        32.89023
285.32        32.41162
285.77        31.95646
286.22        31.65632
286.68        31.54623
287.13        31.53849
287.59        31.65667
288.04         31.8658
288.50        32.14118
288.95        32.42823
289.41        32.64548
289.86        32.61977
290.32        32.37625
290.77        31.99573
291.22        31.60046
291.68        31.37912
292.13        31.39851
292.59        31.64587
293.04        32.17832
293.50        33.11307
293.95        34.42601
294.40        36.08328
294.86        37.86229
295.31        39.41787
295.77        40.65651
296.22        41.63879
296.68        42.57495
297.13        43.78676
297.58        45.35482
298.04         47.1456
298.49        48.96574
298.95        50.53057
299.40        51.77244
299.85        52.81795
300.31         53.8399
300.76        55.00977
301.21         56.4176
301.67         58.0193
302.12        59.71855
302.58        61.52261
303.03        63.36798
303.48        65.20872
303.94        67.05055
304.39        69.17747
304.84        71.03274
305.30        73.04641
305.75        74.97861
306.20        76.80267
306.66        78.51699
307.11        80.07298
307.57        81.55756
308.02        82.97163
308.47        84.37819
308.93        85.78982
309.38        87.16217
309.83        88.50437
310.29         89.8161
310.74        91.07977
311.19        92.28474
311.65        93.39993
312.10        94.40301
312.55        95.31963
313.00         96.2174
313.46        97.20684
313.91        98.28555
314.36         99.4177
314.82        100.5127
315.27        101.4553
315.72        102.1861
316.18        102.7434
316.63         103.146
317.08        103.4404
317.53        103.6746
317.99          103.88
318.44        104.0822
318.89         104.336
319.35         104.658
319.80         105.032
320.25        105.5139
320.70         106.184
321.16        107.0006
321.61        107.9767
322.06        108.8793
322.51        109.3497
322.97        109.3072
323.42        108.8617
323.87        108.2989
324.32        108.1041
324.78        108.3816
325.23        109.0738
325.68        109.9067
326.13        110.4075
326.59        110.4263
327.04         110.143
327.49         109.825
327.94         109.957
328.39        110.6475
328.85        111.6864
329.30        112.8379
329.75        113.4807
330.20        113.4508
330.66        112.9438
331.11        112.3019
331.56        111.9941
332.01        112.1945
332.46        112.7658
332.92        113.5659
333.37          114.51
333.82        115.4451
334.27        116.4068
334.72        117.3185
335.17        118.0485
335.63        118.5318
336.08         118.834
336.53        118.9705
336.98        119.0686
337.43          119.19
337.88         119.327
338.34        119.5166
338.79        119.8265
339.24        120.2599
339.69        120.8222
340.14        121.4407
340.59        121.9719
341.05         122.386
341.50        122.7254
341.95        123.0399
342.40        123.4419
342.85        123.9503
343.30        124.4847
343.75         125.038
344.20        125.6044
344.66        126.1712
345.11        126.7602
345.56        127.2219
346.01        127.3063
346.46        127.0181
346.91        126.4594
347.36        125.9792
347.81         126.106
348.26        126.9147
348.72         128.202
349.17         129.624
349.62        130.5148
350.07        130.6808
350.52        130.3496
350.97        129.7672
351.42        129.3129
351.87        129.1289
352.32         129.092
352.77        129.2327
353.22        129.6142
353.67        130.1824
354.13        130.8842
354.58        131.5168
355.03        131.7313
355.48        131.4357
355.93        130.7253
356.38        129.7185
356.83        128.6155
357.28        127.5158
357.73        126.3973
358.18        125.3395
358.63        124.4562
359.08        123.7631
359.53        123.2481
359.98        122.8089
360.43        122.2604
360.88        121.5562
361.33         120.744
361.78        119.8881
362.23         119.101
362.68        118.4112
363.13        117.7685
363.58        117.1508
364.03        116.5273
364.48        115.8796
364.93        115.2254
365.38        114.5396
365.83        113.7809
366.28        112.9572
366.73        112.0889
367.18        111.2401
367.63        110.5092
368.08        109.9108
368.53         109.413
368.98        108.9579
369.43        108.4455
369.88        107.8546
370.33        107.2283
370.78        106.5902
371.23        105.9846
371.68        105.4262
372.13        104.8754
372.58        104.3709
373.03        103.9794
373.48        103.6825
373.93        103.4487
374.38        103.1325
374.83        102.5027
375.28        101.5463
375.72        100.3474
376.17        99.17424
376.62        98.24377
377.07        97.61097
377.52        97.19419
377.97        96.93893
378.42        96.76048
378.87        96.60442
379.32        96.47744
379.77        96.32162
380.22        96.04748
380.67        95.62963
381.11        95.07835
381.56        94.42796
382.01        93.77138
382.46        93.16431
382.91        92.61694
383.36        92.12774
383.81        91.67902
384.26        91.26356
384.71        90.88242
385.15        90.55186
385.60         90.3553
386.05         90.2597
386.50        90.22462
386.95        90.14376
387.40        89.86742
387.85        89.38382
388.29        88.70519
388.74        88.06068
389.19        87.53304
389.64        87.15533
390.09        86.87765
390.54        86.66695
390.98        86.50894
391.43        86.42822
391.88        86.25421
392.33        85.97103
392.78        85.96137
393.23        86.05434
393.67        85.36045
394.12        84.16302
394.57         83.9481
395.02        83.58688
395.47        83.75163
395.91        83.95149
396.36        83.98398
396.81        83.78462
397.26        83.48872
397.71        83.16177
398.15        82.74282
398.60        82.34926
399.05        82.05687
399.50        81.84088
399.95        81.50752
400.39        80.87966
400.84        81.11459
401.29        81.91577
401.74        82.12715
402.18        81.63108
402.63        81.01984
403.08        80.54124
403.53        80.29922
403.97        80.34466
404.42        80.61393
404.87        80.92913
405.32        80.97882
405.76        80.67934
406.21        80.26602
406.66        79.80857
407.11        79.23283
407.55         78.7365
408.00        78.65858
408.45        78.95437
408.90        79.34816
409.34        79.61897
409.79        79.37361
410.24        78.82616
410.68        78.77026
411.13        79.25735
411.58        79.82019
412.03        80.23256
412.47        80.33226
412.92        80.01719
413.37        79.39243
413.81        78.64102
414.26        78.11686
414.71        77.86681
415.15         77.8163
415.60        77.87619
416.05        77.94137
416.49        77.97229
416.94        78.01239
417.39        78.03491
417.83        77.97155
418.28        77.82391
418.73        77.59021
419.17        77.36954
419.62        77.35176
420.07        77.54521
420.51         77.8574
420.96        78.16776
421.41        78.22813
421.85        77.95213
422.30        77.56557
422.74        77.12727
423.19        76.62604
423.64        76.20906
424.08        76.40592
424.53        77.06391
424.98        77.43244
425.42        77.39119
425.87         77.4102
426.31        77.49212
426.76         77.1613
427.21        76.41072
427.65         76.4097
428.10        76.89325
428.54        76.63265
428.99        75.77752
429.44        75.13859
429.88        74.92612
430.33        75.34781
430.77         76.0735
431.22        76.55631
431.66        76.71077
432.11        76.37839
432.56        75.68195
433.00        75.69022
433.45        76.71587
433.89        75.97588
434.34        76.52254
434.78        78.25745
435.23        75.62157
435.67        75.05006
436.12        74.86545
436.57        75.04934
437.01        75.43653
437.46        75.72581
437.90        75.92709
438.35        76.22376
438.79        76.79604
439.24        76.92095
439.68        76.69507
440.13        76.54064
440.57        76.55502
441.02        76.50169
441.46        76.34542
441.91        76.57015
442.35        76.89378
442.80        76.46709
443.24        76.59283
443.69        76.38591
444.13        76.25928
444.58        76.09902
445.02        75.86806
445.47         75.7115
445.91         75.6648
446.36        75.60188
446.80        75.46372
447.24        76.06725
447.69        75.95494
448.13        76.11864
448.58        76.13924
449.02         76.0609
449.47        75.95674
449.91        75.93336
450.36        76.03965
450.80        76.20261
451.25        76.38393
451.69        76.48643
452.13        76.49195
452.58        76.46297
453.02        76.40994
453.47        76.34185
453.91        76.25278
454.36        76.29722
454.80        76.14071
455.24        76.23634
455.69        76.43536
456.13        76.49767
456.58         76.4091
457.02        76.22948
457.46        76.00098
457.91        75.74577
458.35        75.47356
458.79        75.29338
459.24        75.28367
459.68        75.31274
460.13        75.31381
460.57        75.50229
461.01        75.76952
461.46        75.01861
461.90        75.15034
462.34        75.24605
462.79        75.67482
463.23        75.42039
463.68        74.60354
464.12         74.2866
464.56        74.49206
465.01        74.22588
465.45        74.29761
465.89        74.12415
466.34        73.93641
466.78        74.45095
467.22        74.55872
467.67         74.2823
468.11        74.12759
468.55        73.79005
468.99        73.57152
469.44        73.34101
469.88        73.14097
470.32        73.06299
470.77        73.06747
471.21        73.07597
471.65        73.05421
472.10         73.0416
472.54        73.03802
472.98        73.07539
473.42        73.14595
473.87         73.2614
474.31         73.3543
474.75        73.27621
475.20        73.05428
475.64        72.94466
476.08        72.98675
476.52        72.77215
476.97        72.23072
477.41        72.46664
477.85        72.27109
478.29        71.75923
478.74        72.11629
479.18        72.61723
479.62        72.01625
480.06        72.03123
480.50        72.15408
480.95         72.3859
481.39        72.65469
481.83        72.27002
482.27        72.84432
482.72        72.51871
483.16        72.78324
483.60        72.62436
484.04         72.8316
484.48        73.08385
484.93        73.32314
485.37        72.99947
485.81        72.00806
486.25        71.23649
486.69        72.43555
487.14        72.06332
487.58        71.71486
488.02        72.26586
488.46        72.24041
488.90        71.85838
489.34        71.61532
489.79        72.62894
490.23        71.60551
490.67        71.75024
491.11         71.9403
491.55        71.74677
491.99        71.23569
492.43        71.02496
492.88        71.17406
493.32        71.36458
493.76        71.54805
494.20          71.759
494.64         71.9582
495.08        72.22253
495.52        72.45864
495.96        72.32401
496.41        71.94512
496.85        71.82498
497.29         71.8772
497.73        72.13482
498.17        71.71906
498.61         71.4378
499.05         71.1655
499.49        71.14229
499.93        71.30156
500.37        71.36857
500.82        71.35896
501.26        71.07484
501.70        71.34681
502.14        71.31554
502.58        71.25224
503.02        71.26862
503.46        71.37905
503.90        71.53313
504.34        71.67868
504.78        71.75562
505.22        71.73958
505.66        71.65731
506.10        71.54133
506.54        71.47156
506.98        71.47149
507.42        71.57335
507.86        71.33733
508.30        71.72571
508.74        71.30961
509.18        71.17703
509.62        71.01107
510.06        70.96346
510.50        71.04944
510.94        71.24187
511.38        71.45218
511.82        71.49969
512.26        71.35051
512.70        71.06206
513.14           70.75
513.58        70.59012
514.02        70.62404
514.46         70.7984
514.90        71.01933
515.34        71.13361
515.78        71.09817
516.22        70.96099
516.66        70.79615
517.10        70.71578
517.54        70.74432
517.98        70.84141
518.42        70.94588
518.86        70.94539
519.30        70.81487
519.74        70.65244
520.18        70.51258
520.62         70.3369
521.06        70.21687
521.50        70.44039
521.93        70.89774
522.37        71.11163
522.81        71.03268
523.25        70.87512
523.69        70.75928
524.13        70.79214
524.57        71.00084
525.01        71.33966
525.45        71.65965
525.89         71.7224
526.32        71.47289
526.76        71.02235
527.20        70.52787
527.64        70.23405
528.08        70.20072
528.52        70.34795
528.96        70.57813
529.40        70.73653
529.83        70.76589
530.27        70.72287
530.71        70.63437
531.15        70.54725
531.59        70.47993
532.03        70.41122
532.46        70.33079
532.90        70.25809
533.34        70.19281
533.78        70.14841
534.22         70.1278
534.66        70.12936
535.09        70.14365
535.53        70.17559
535.97        70.22242
536.41        70.29656
536.85        70.39075
537.28        70.49378
537.72        70.56338
538.16        70.52946
538.60        70.38483
539.04        70.15778
539.47        69.90356
539.91        69.76347
540.35        69.74753
540.79        69.83388
541.22        69.95308
541.66        70.01821
542.10        70.00291
542.54        69.91418
542.97        69.79833
543.41        69.88697
543.85        69.96442
544.29        70.18217
544.72        70.37443
545.16        70.43246
545.60        70.32859
546.04        70.07874
546.47        69.79741
546.91        69.77081
547.35        69.99091
547.79        70.16539
548.22        70.20748
548.66        70.36187
549.10        70.61719
549.53        70.61925
549.97        70.26487
550.41        70.85513
550.84        70.27462
551.28        70.09332
551.72        69.73995
552.15        69.97248
552.59        69.87311
553.03        70.07973
553.46        69.95858
553.90        70.00758
554.34        70.09556
554.77        70.11673
555.21        70.08733
555.65        70.07359
556.08        70.08219
556.52        70.10117
556.96        70.12231
557.39        70.22155
557.83        70.37514
558.27        70.38731
558.70        70.30458
559.14        70.36347
559.57        70.50798
560.01        70.62917
560.45        70.68895
560.88        70.38202
561.32        70.15331
561.75         70.1503
562.19        70.40105
562.63        70.24969
563.06        69.78853
563.50         69.7079
563.93        69.96958
564.37        70.20721
564.80        70.30231
565.24        70.21688
565.68        69.98726
566.11        69.89891
566.55        69.97377
566.98        69.89912
567.42        69.77752
567.85        69.80327
568.29        69.90359
568.72        70.20168
569.16        70.75501
569.60        70.20005
570.03        70.64308
570.47        70.83225
570.90        70.58718
571.34        70.35753
571.77        70.58021
572.21        70.74023
572.64        70.90578
573.08        70.79214
573.51        70.46979
573.95        70.45462
574.38        70.78176
574.82         70.8438
575.25        70.48468
575.69        70.88657
576.12        70.09997
576.56        69.99008
576.99        70.07508
577.42        69.89656
577.86        70.01176
578.29        69.98611
578.73        70.49686
579.16        70.08849
579.60         70.2803
580.03        70.10566
580.47        70.42084
580.90        70.58225
581.33        70.23009
581.77        69.90731
582.20        70.43248
582.64        70.56724
583.07        70.12262
583.51        69.81576
583.94        69.78005
584.37        69.69033
584.81        69.78506
585.24        69.83936
585.68        70.56762
586.11        71.07697
586.54        70.18213
586.98        69.68537
587.41        70.51118
587.85        70.91063
588.28        70.50066
588.71        70.83351
589.15        69.81696
589.58        70.14642
590.01        69.71915
590.45        69.91167
590.88        70.27335
591.31        70.58858
591.75        70.60979
592.18        70.78824
592.61        71.12563
593.05         69.4183
593.48        70.32008
593.91        70.94049
594.35        69.63836
594.78        69.51028
595.21        69.54884
595.65        70.36636
596.08        69.69698
596.51        69.68137
596.94        70.12045
597.38        70.32767
597.81        70.33275
598.24        70.14742
598.68        70.17848
599.11          69.714
599.54        70.35458
599.97         70.9405
600.41        69.16644
600.84        69.88708
601.27        69.52027
601.70        70.04166
602.14        70.40213
602.57        69.92131
603.00        69.45045
603.43        69.29353
603.87        69.48622
604.30        69.87262
604.73        69.90738
605.16        69.52114
605.60        69.88342
606.03        70.02402
606.46        70.20757
606.89        70.16093
607.32        69.92107
607.76        69.79892
608.19        69.85851
608.62        69.83337
609.05        69.75351
609.48        69.84263
609.92        70.06601
610.35        69.88011
610.78         70.4652
611.21        69.88091
611.64        69.40685
612.07        69.81535
612.50        70.00132
612.94        69.77305
613.37        70.11565
613.80        70.10257
614.23        70.39244
614.66        70.36554
615.09        70.17738
615.52        70.22495
615.96        70.41212
616.39        70.43134
616.82        69.75388
617.25         69.8107
617.68        69.25262
618.11        69.46377
618.54        69.89532
618.97        69.93995
619.40        69.67887
619.84        69.44691
620.27        69.81032
620.70        70.31226
621.13        70.47272
621.56        70.19609
621.99        69.82148
622.42        69.54476
622.85        69.80322
623.28        69.83295
623.71        70.38897
624.14        69.32291
624.57        69.96568
625.00        69.85459
625.43        69.91077
625.86        69.84272
626.29        69.66958
626.72        69.85926
627.15        69.77531
627.58        69.93457
628.01        70.08804
628.44        70.03088
628.87        69.80529
629.30        69.76982
629.73        69.93789
630.16        69.98596
630.59        69.89832
631.02        70.02435
631.45        70.03558
631.88        70.07401
632.31        70.03522
632.74        69.96011
633.17        69.85778
633.60        69.75352
634.03        69.66065
634.46        69.56093
634.89        69.47009
635.32        69.42425
635.75        69.42509
636.18        69.45632
636.61        69.49492
637.04        69.51283
637.47        69.51503
637.89        69.47795
638.32         69.3777
638.75        69.35847
639.18        69.45617
639.61        69.06509
640.04         69.2542
640.47        69.23383
640.90        69.32043
641.33        69.48632
641.76        69.67018
642.18        69.75237
642.61        69.67211
643.04        69.47482
643.47        69.26743
643.90        69.20072
644.33         69.2997
644.76        69.60694
645.18        69.96992
645.61        69.94357
646.04        69.43033
646.47        69.31454
646.90        69.54134
647.33         69.5667
647.75        69.37248
648.18         69.2718
648.61        69.31422
649.04        69.43675
649.47        69.60406
649.89        69.84512
650.32        70.03213
650.75        69.89285
651.18        69.55923
651.61         69.4811
652.03        69.70823
652.46         70.1059
652.89        70.43995
653.32        70.33142
653.74        69.90694
654.17        69.58096
654.60        69.01478
655.03        70.35171
655.46        68.97488
655.88        69.77294
656.31        71.57785
656.74        72.29788
657.16        71.48486
657.59        69.72662
658.02        68.74523
658.45        70.33662
658.87        70.31007
659.30        70.00857
659.73        70.44543
660.15        70.74722
660.58        70.15785
661.01        69.94427
661.44        69.78835
661.86        69.43211
662.29        68.98501
662.72        69.16698
663.14         69.8325
663.57        69.79345
664.00        69.16298
664.42          69.016
664.85        69.40251
665.27         69.6802
665.70        69.76352
666.13        69.85445
666.55        69.94176
666.98        69.95663
667.41        69.92212
667.83         69.8687
668.26        69.81433
668.69        69.75452
669.11        69.70419
669.54        69.67437
669.96        69.66489
670.39        69.69339
670.82        69.73456
671.24        69.70028
671.67        69.59847
672.09        69.56637
672.52        69.61391
672.94        69.71008
673.37        69.31545
673.80        69.72398
674.22        69.41122
674.65        69.55733
675.07        69.76032
675.50        70.02904
675.92        70.27546
676.35        70.35074
676.77        70.24585
677.20          69.983
677.62         69.6874
678.05        69.56018
678.47        69.63825
678.90        69.87339
679.32        70.15767
679.75        70.23689
680.17        70.04362
680.60        69.83055
681.02        69.74435
681.45        69.13747
681.87        69.46922
682.30        69.52942
682.72        69.68977
683.15         69.7943
683.57        69.84313
684.00        69.86885
684.42        69.86237
684.85        69.89193
685.27        69.96904
685.70        69.91741
686.12        69.81818
686.54        70.21416
686.97        70.92055
687.39        71.10801
687.82        70.72853
688.24        70.51343
688.66        70.48993
689.09        70.20523
689.51        69.74904
689.94        69.53577
690.36         69.5793
690.78        69.67033
691.21        69.77403
691.63        69.92745
692.06        70.09994
692.48        70.26801
692.90        70.38393
693.33        70.38957
693.75        70.27766
694.17        70.04601
694.60        69.81049
695.02        69.73055
695.44        69.82902
695.87        70.21913
696.29        70.72618
696.71        70.64431
697.14        70.10149
697.56         70.0309
697.98         70.4324
698.41        70.57428
698.83        70.43681
699.25        70.47015
699.68        70.62405
700.10        70.64447
700.52         70.4965
700.94        70.27847
701.37        70.03246
701.79        69.83937
702.21         69.7215
702.64        69.66203
703.06        69.66618
703.48         69.7566
703.90        69.92668
704.33        70.17902
704.75        70.42661
705.17        70.59512
705.59        70.63562
706.01        70.56963
706.44        70.45918
706.86        70.41166
707.28        70.45132
707.70        70.55997
708.12        70.70132
708.55        70.77867
708.97        70.78838
709.39         70.8073
709.81        70.85734
710.23        70.93899
710.66        71.05024
711.08        71.21047
711.50        71.38018
711.92        71.52275
712.34        71.62547
712.76         71.6976
713.19        71.71547
713.61        71.68827
714.03        71.60657
714.45        71.48648
714.87        71.37072
715.29        71.32196
715.71        71.35059
716.13        71.43314
716.56        71.52643
716.98        71.64368
717.40        71.73595
717.82         71.8088
718.24         71.8339
718.66        71.76843
719.08        71.61537
719.50        71.39299
719.92        71.16329
720.34        71.02757
720.76        71.01028
721.19        71.07405
721.61        71.18827
722.03        71.26978
722.45        71.28989
722.87        71.27085
723.29        71.21792
723.71        71.14059
724.13        71.05032
724.55        70.94428
724.97        70.84836
725.39        70.80601
725.81        70.82957
726.23        70.91473
726.65        71.03339
727.07         71.1393
727.49        71.21391
727.91        71.25291
728.33        71.28256
728.75        71.34937
729.17        71.45832
729.59        71.59994
730.01        71.70215
730.43        71.64945
730.85         71.4373
731.27        71.12015
731.69        70.83074
732.10        70.77312
732.52        70.98791
732.94        71.41515
733.36        71.93131
733.78         72.3047
734.20        72.44934
734.62        72.43728
735.04        72.35576
735.46        72.28986
735.88        72.29887
736.30        72.47208
736.72        72.69945
737.13        72.66803
737.55        72.30783
737.97        71.87901
738.39        71.51531
738.81        71.15754
739.23        70.94611
739.65          71.327
740.06         72.0615
740.48        72.41341
740.90        72.28658
741.32        72.03642
741.74         71.7915
742.16        71.66579
742.57        71.73593
742.99        71.85756
743.41        71.99973
743.83        72.29432
744.25        72.62474
744.67        72.58221
745.08        72.24416
745.50        72.10766
745.92        72.22908
746.34        72.32553
746.75        72.36133
747.17         72.4086
747.59        72.45527
748.01        72.48572
748.42        72.52032
748.84        72.56092
749.26        72.61877
749.68          72.689
750.09        72.73607
750.51        72.74316
750.93        72.69381
751.35        72.59945
751.76        72.50352
752.18        72.46553
752.60        72.50044
753.01        72.60589
753.43         72.7162
753.85        72.75095
754.27        72.70859
754.68        72.64831
755.10        72.61067
755.52        72.66004
755.93        72.77546
756.35        72.88706
756.77        73.05079
757.18        73.22874
757.60        73.39851
758.02         73.9728
758.43        74.62263
758.85        73.96836
759.26        72.40856
759.68        71.98819
760.10        72.77248
760.51        73.36888
760.93        73.54739
761.34        73.72298
761.76        73.80764
762.18        73.57217
762.59         73.1284
763.01        72.71192
763.42        72.46617
763.84          72.343
764.26        72.39661
764.67        72.63667
765.09        73.00682
765.50        73.47177
765.92        73.88758
766.33        73.85004
766.75        73.34632
767.16        73.06847
767.58        73.05829
768.00        72.86109
768.41        72.55759
768.83        72.67547
769.24        73.06867
769.66        73.17075
770.07        72.97025
770.49        72.71193
770.90        72.55479
771.32        72.91536
771.73        73.64494
772.15        73.87696
772.56        73.54599
772.97        73.38411
773.39        73.03448
773.80         73.0517
774.22         73.2996
774.63        73.80127
775.05        74.31672
775.46        74.55237
775.88        74.40375
776.29        74.00195
776.70         73.5084
777.12        73.21063
777.53        73.19686
777.95        73.35925
778.36        73.63542
778.77         73.8787
779.19        74.02695
779.60        74.25787
780.02         74.4938
780.43        74.44208
780.84        74.20741
781.26        74.22887
781.67        74.51469
782.09        74.86517
782.50        75.12321
782.91        74.93006
783.33        74.36127
783.74        74.01334
784.15        73.94293
784.57         73.8075
784.98        73.61718
785.39        73.56479
785.81         73.6643
786.22        73.85818
786.63        74.13774
787.04        74.48898
787.46         74.8848
787.87        75.28254
788.28         75.6435
788.70        75.90458
789.11         76.0398
789.52        76.08858
789.93        76.03776
790.35        75.86535
790.76        75.60117
791.17        75.26088
791.58        74.97572
792.00         74.8766
792.41        75.00109
792.82        75.45737
793.23        76.06232
793.65        76.09177
794.06        75.67337
794.47        75.79226
794.88        76.33413
795.29        76.40609
795.71        75.92373
796.12        75.46278
796.53        75.18048
796.94        75.14207
797.35        75.40559
797.76        75.95181
798.18          76.565
798.59        76.93241
799.00        76.94492
799.41        76.69377
799.82          76.303
800.23        75.99788
800.64        75.86303
801.06        75.80488
801.47         75.8542
801.88        75.98303
802.29        76.16087
802.70        76.38784
803.11        76.61166
803.52         76.7324
803.93         76.7376
804.34        76.65981
804.75        76.51049
805.17        76.39487
805.58        76.38938
805.99        76.22023
806.40        76.00251
806.81        76.48293
807.22        77.40799
807.63        77.43911
808.04        76.67185
808.45        76.45286
808.86        76.87701
809.27          77.163
809.68        77.19144
810.09        77.16198
810.50         77.0573
810.91        76.82308
811.32        76.58874
811.73        76.56127
812.14        76.77676
812.55        77.18648
812.96        77.62923
813.37        77.79646
813.78        77.61238
814.19         77.1985
814.60        76.71306
815.01        76.37363
815.42         76.2393
815.83        76.23791
816.24        76.34978
816.65        76.53399
817.05        76.74906
817.46        76.96893
817.87        77.14876
818.28        77.16026
818.69        76.99226
819.10        76.67709
819.51        76.32014
819.92        76.13153
820.33        76.17715
820.74        76.38585
821.14        76.69197
821.55        76.99741
821.96        77.25037
822.37        77.48901
822.78        77.64794
823.19        77.61356
823.60        77.36967
824.00        76.93494
824.41        76.45764
824.82        76.20841
825.23        76.24638
825.64        76.53039
826.04        76.89693
826.45        76.96111
826.86        76.66623
827.27        76.12469
827.68        75.58949
828.08        75.48341
828.49        75.85535
828.90        76.61066
829.31        77.51296
829.72        78.15462
830.12        78.42915
830.53        78.35495
830.94        78.15137
831.35        78.14909
831.75        78.45906
832.16        78.89736
832.57        79.29285
832.97        79.32333
833.38        78.92564
833.79        78.28493
834.20        77.58019
834.60        77.03337
835.01         76.7505
835.42        76.63573
835.82        76.73205
836.23        77.03986
836.64        77.53854
837.04         78.2445
837.45        78.88123
837.86        79.14866
838.26        78.97034
838.67        78.44131
839.08        77.76541
839.48        77.25095
839.89        77.04025
840.29        77.04418
840.70        77.22653
841.11        77.53983
841.51         77.9604
841.92        78.45876
842.33        78.96909
842.73        79.35271
843.14        79.50938
843.54         79.4982
843.95        79.36126
844.35        79.25046
844.76        79.18861
845.17        79.12442
845.57        79.08109
845.98        79.05695
846.38        79.06541
846.79        79.12075
847.19         79.1245
847.60        78.84698
848.00         78.2952
848.41        77.56065
848.81        76.90865
849.22        76.73472
849.62        77.14738
850.03        77.97753
850.43        79.02437
850.84         79.7041
851.24        79.88953
851.65        79.61855
852.05        79.10957
852.46        78.67889
852.86        78.42619
853.27        78.33906
853.67        78.21849
854.07        77.99451
854.48        77.59199
854.88         77.0763
855.29        76.53342
855.69        76.36269
856.10        76.56562
856.50        77.14065
856.90         77.7259
857.31        77.82365
857.71        77.38503
858.12        76.50884
858.52        75.59005
858.92        75.23672
859.33        75.58891
859.73        76.51202
860.13        77.61343
860.54        78.26008
860.94        78.30971
861.34        77.83839
861.75        77.09805
862.15        76.59442
862.55        76.44731
862.96        76.54868
863.36        76.58388
863.76         76.0869
864.17        75.03539
864.57        73.66276
864.97        72.40411
865.38        71.84727
865.78        72.15173
866.18        73.11586
866.58        74.44131
866.99        75.48293
867.39        76.00711
867.79        76.13882
868.19        75.95274
868.60        75.57775
869.00        75.10928
869.40        74.48465
869.80        73.95646
870.21        73.96826
870.61        74.63634
871.01         75.8095
871.41        77.04345
871.81        77.61169
872.22        77.33276
872.62        76.39874
873.02        75.21053
873.42        74.45531
873.82        74.34955
874.22        74.73547
874.63        75.27796
875.03        75.45251
875.43        75.14944
875.83        74.53728
876.23        74.01089
876.63        74.20924
877.03        75.23215
877.44        76.77237
877.84        78.34824
878.24        79.08308
878.64        78.78241
879.04         77.7975
879.44        76.53071
879.84        75.56539
880.24        75.08185
880.64        74.87473
881.04        74.97851
881.44        75.44897
881.84        76.22837
882.24        77.34278
882.65        78.37074
883.05        78.69872
883.45        78.13984
883.85         76.9089
884.25        75.57116
884.65        75.00052
885.05        75.37615
885.45        76.40942
885.85        77.70971
886.25        78.59451
886.65        78.81052
887.05        78.57929
887.45        77.98659
887.85        77.18743
888.25        76.34364
888.65        75.45403
889.04         74.6938
889.44        74.39202
889.84        74.52457
890.24        75.03844
890.64        75.76573
891.04        76.30759
891.44        76.50541
891.84        76.47758
892.24        76.32372
892.64        76.20449
893.04         76.1762
893.44        76.15922
893.83        76.26546
894.23        76.61224
894.63         77.2148
895.03        78.02585
895.43        78.78403
895.83        79.08842
896.23        78.86222
896.63        78.19273
897.02        77.37245
897.42        76.95425
897.82        77.06024
898.22        77.58293
898.62         78.1755
899.01        78.26381
899.41        77.71375
899.81        76.72409
900.21         75.7384
900.61        75.42945
901.00        75.91834
901.40        76.97514
901.80        78.10362
902.20        78.49582
902.59        77.95813
902.99        76.77227
903.39        75.40991
903.79        74.57368
904.18        74.44159
904.58        74.81268
904.98        75.39433
905.38        75.74782
905.77         75.7168
906.17        75.44424
906.57        75.09616
906.96        74.94836
907.36        75.04395
907.76        75.32365
908.15        75.60363
908.55        75.47449
908.95        74.94353
909.34         74.1454
909.74        73.52174
910.14        73.60221
910.53        74.50376
910.93        75.98196
911.33        77.68416
911.72        79.06436
912.12         79.8374
912.52        80.14401
912.91        80.12032
913.31        80.00315
913.70        79.90199
914.10        79.71107
914.49        79.37646
914.89        78.80737
915.29        78.04476
915.68        77.21082
916.08        76.50322
916.47        76.06272
916.87        75.97907
917.26        76.14627
917.66        76.54335
918.05        77.16094
918.45        77.87856
918.84        78.72326
919.24        79.39467
919.64        79.55048
920.03        79.13981
920.42        78.25783
920.82        77.26357
921.21         76.6164
921.61        76.45135
922.00        76.65479
922.40        77.06703
922.79        77.48457
923.19        77.77627
923.58        78.04133
923.98        78.22428
924.37        78.24625
924.77        78.10339
925.16         77.7897
925.55        77.45265
925.95        77.35886
926.34        77.58202
926.74        78.04489
927.13        78.53496
927.52        78.66254
927.92         78.3548
928.31        77.71119
928.70        77.00699
929.10        76.67157
929.49        76.81191
929.89        77.26797
930.28        77.80376
930.67        77.93069
931.07        77.52981
931.46        76.80206
931.85        75.99105
932.24        75.44866
932.64        75.29307
933.03        75.44543
933.42        75.81989
933.82        76.25156
934.21        76.67717
934.60        77.05654
934.99        77.47632
935.39        78.05271
935.78        78.83475
936.17        79.74666
936.56        80.35769
936.96        80.02609
937.35        78.71902
937.74         76.7384
938.13        74.86382
938.53        74.09158
938.92        74.53531
939.31        75.96857
939.70         77.7418
940.09        78.58788
940.49        78.10026
940.88        76.69147
941.27        75.04173
941.66        74.14712
942.05        74.25034
942.44         75.0914
942.84        76.17859
943.23        76.71749
943.62        76.41251
944.01        75.53568
944.40        74.67583
944.79        74.68331
945.18        75.71091
945.57        77.47439
945.97        79.25085
946.36          80.057
946.75         79.4992
947.14        77.92295
947.53         76.0747
947.92        75.06857
948.31        75.19814
948.70        76.19237
949.09        77.46297
949.48        77.94761
949.87        77.35107
950.26        76.03885
950.65        74.69739
951.04        74.26505
951.43        74.92542
951.82        76.39957
952.21        78.04778
952.60        78.71636
952.99        78.07588
953.38        76.51763
953.77        74.83082
954.16        74.05109
954.55        74.39154
954.94        75.63699
955.33        77.16183
955.72        77.63847
956.11        76.65722
956.50        74.71864
956.89        72.81414
957.28         72.2186
957.66         73.2124
958.05        75.34673
958.44        77.87758
958.83        79.27793
959.22        78.99788
959.61        77.55061
960.00        75.74174
960.39        74.59233
960.78        74.30506
961.16          74.605
961.55        75.06844
961.94        75.00824
962.33        74.25629
962.72        73.22855
963.11        72.29932
963.49        71.91797
963.88        72.17782
964.27         72.8412
964.66        73.87307
965.04        75.28258
965.43        76.82706
965.82         78.4824
966.21        79.75803
966.60        79.80647
966.98        78.56147
967.37        76.46958
967.76        74.20289
968.15        72.62994
968.53        71.94362
968.92        71.85472
969.31        72.41201
969.69        73.67566
970.08        75.44185
970.47        77.78012
970.86        79.89913
971.24        80.45496
971.63        79.17181
972.02        76.48425
972.40        73.59241
972.79        72.41437
973.17        73.31392
973.56        75.63548
973.95        78.49332
974.33        80.16967
974.72        80.00528
975.11        78.59919
975.49        76.68488
975.88        75.65712
976.26        75.87256
976.65        76.83797
977.04        78.12217
977.42        78.97819
977.81          78.979
978.19         78.4873
978.58        77.80311
978.96        77.26304
979.35        77.05809
979.74        77.09594
980.12        77.35249
980.51        77.74714
980.89        78.29033
981.28        78.82021
981.66        79.57061
982.05        80.62252
982.43        82.05804
982.82        83.77093
983.20        85.14433
983.59        85.01137
983.97         83.2523
984.35        80.28984
984.74        77.44652
985.12        76.54298
985.51        77.82313
985.89        80.82674
986.28        84.19148
986.66        85.98408
987.04        85.45998
987.43        83.24427
987.81        80.25826
988.20        78.40795
988.58        78.23458
988.96        79.20158
989.35        80.38015
989.73        80.51466
990.12        79.20383
990.50        77.05692
990.88        74.64682
991.27        72.84962
991.65        71.92948
992.03        71.64094
992.42        71.93053
992.80        73.04127
993.18        74.82355
993.56        77.29722
993.95        79.84792
994.33        81.42722
994.71        81.59801
995.10        80.66958
995.48        79.36559
995.86        78.91916
996.24        79.63693
996.63        81.05665
997.01        82.89339
997.39        84.35195
997.77        85.05188
998.15        85.25647
998.54         84.9012
998.92        83.87344
999.30        82.23553
999.68        80.01737
1000.06         77.7343
1000.45        76.36747
1000.83        76.32951
1001.21        77.43104
1001.59        79.22298
1001.97        80.85275
1002.35        81.99348
1002.73        82.82546
1003.12        83.38284
1003.50        83.67948
1003.88         83.8203
1004.26        83.76923
1004.64         83.6713
1005.02        83.82786
1005.40        84.28382
1005.78        84.90871
1006.16        85.63619
1006.54        86.38093
1006.92        87.08182
1007.30        87.76031
1007.69        88.11112
1008.07        87.71832
1008.45        86.40319
1008.83         84.3598
1009.21        82.08116
1009.59        80.37336
1009.97        79.52956
1010.35        79.39604
1010.73          79.877
1011.11        80.72781
1011.49        81.75548
1011.86        83.02585
1012.24        84.08477
1012.62        84.48915
1013.00        84.09837
1013.38        82.84074
1013.76        81.08125
1014.14        79.73226
1014.52        79.12981
1014.90        79.14193
1015.28        79.07909
1015.66        77.72329
1016.04        74.85648
1016.41        70.96275
1016.79        67.20016
1017.17        65.84812
1017.55        67.32601
1017.93        70.44911
1018.31        73.85243
1018.69        76.58566
1019.06        78.86126
1019.44        80.98145
1019.82        83.51822
1020.20        86.85384
1020.58        90.21803
1020.95        92.50987
1021.33        93.14973
1021.71        91.85733
1022.09        88.60739
1022.46        83.08361
1022.84        75.77657
1023.22        69.25053
1023.60        66.09002
1023.97        66.11349
1024.35        67.94926
1024.73        69.90772
