SpectraSmart Spectrum 2.9.0.0
--------- Device Information -----------
Spectrum Name :  反射率_0
Saving Time :  2024/04/30 00:29:17
Spectro-Module Model Name : SE2030-DUVN
Spectro-Module Serial Number : OS361AC55029948
Wavelength Start : 200
Wavelength End : 1025
Wavelength Unit : Wavelength(nm)
Spectrum Unit : Reflectance(%)
-----------Spectrum Setting ------------
Integration Time : 20ms
Average : 10
Boxcar : 0
Background removal :  enabled
linearity correction :  enabled
SC :  disabled
Intensity correction :  disabled
DWT denoise :  enabled
savitzky-golay :  disabled
FFT :  disabled
Running average :  disabled
Kalman :  disabled
High pass :  disabled
---------------BEGIN--------------------
Wavelength(nm)             Reflectance(%)
200.29               0
200.75          99.895
201.21        85.44288
201.67        70.52505
202.13        59.63645
202.58        55.14833
203.04        56.09039
203.50        62.32532
203.96        72.97552
204.42        86.00126
204.88        100.2155
205.34        110.2229
205.80        109.6391
206.26        100.6404
206.72        88.35529
207.18         77.1098
207.64        68.96369
208.10        63.08436
208.55        58.30899
209.01        54.15768
209.47        51.38898
209.93        50.54707
210.39        51.51982
210.85         53.2261
211.31          54.777
211.77        56.19147
212.23        57.58421
212.69        59.71959
213.14        63.92044
213.60        68.32449
214.06        72.02591
214.52        73.80186
214.98        73.14088
215.44        70.65962
215.90        66.64745
216.36        62.98404
216.81        63.47056
217.27        70.11941
217.73        83.71803
218.19        102.6374
218.65        115.4647
219.11        114.4048
219.57        103.5908
220.02        91.68211
220.48        84.96189
220.94        82.30128
221.40        81.60297
221.86        80.46315
222.32        74.63452
222.77        65.43201
223.23        57.94048
223.69        53.09793
224.15        50.26007
224.61        48.62811
225.06        47.55234
225.52        47.76757
225.98        50.26498
226.44        54.10224
226.90        57.86204
227.36        60.38847
227.81        61.04947
228.27        60.17913
228.73         58.0112
229.19        55.03062
229.65        52.63301
230.10        51.53115
230.56        51.41269
231.02        51.66654
231.48         51.7193
231.93        51.41012
232.39        51.00623
232.85        50.69427
233.31        50.85701
233.77        51.60566
234.22        52.92356
234.68        54.32454
235.14        55.00334
235.60        54.81514
236.05        53.98866
236.51        53.44042
236.97        54.43137
237.43        57.38528
237.88        62.61839
238.34        69.45716
238.80        75.32753
239.26        78.01278
239.71        77.78574
240.17        76.05326
240.63        75.64819
241.08        77.81414
241.54        82.45892
242.00        91.03892
242.46        102.8545
242.91        113.8325
243.37        120.9726
243.83        123.2723
244.28        122.5016
244.74        119.7047
245.20        113.2107
245.66        105.7964
246.11        104.8246
246.57         113.446
247.03        131.9785
247.48        152.0939
247.94        153.9403
248.40        138.3382
248.85        117.4174
249.31        102.4168
249.77        97.78515
250.22        102.6504
250.68        116.6433
251.14        140.1375
251.59        156.2142
252.05        150.2821
252.51        135.1472
252.96        121.7235
253.42         114.012
253.88        109.5422
254.33        105.9654
254.79        103.3642
255.25        102.1301
255.70        101.8542
256.16        102.6772
256.62        103.5868
257.07        103.8201
257.53        103.9399
257.99        103.7534
258.44        102.8238
258.90        101.5831
259.35        99.72998
259.81        98.03212
260.27        96.49745
260.72        95.15538
261.18        94.24971
261.63        93.21326
262.09        92.10262
262.55        90.45693
263.00        88.26718
263.46        86.11861
263.91        83.91929
264.37        82.04883
264.83        80.37557
265.28         78.7364
265.74        77.36152
266.19        76.29213
266.65        75.61383
267.11        75.18452
267.56         74.7451
268.02        73.97294
268.47        72.73458
268.93        71.14008
269.38        69.31324
269.84        67.62275
270.30        66.21022
270.75        64.99683
271.21        63.93321
271.66        62.83765
272.12        61.66469
272.57        60.41495
273.03        59.15673
273.48        57.88593
273.94        56.70107
274.39        55.53539
274.85        54.43139
275.31          53.308
275.76         52.1366
276.22        51.01209
276.67         49.9375
277.13        49.07391
277.58        48.35626
278.04        47.78001
278.49        47.21501
278.95        46.62349
279.40        45.92185
279.86        45.23529
280.31        44.49125
280.77        43.74709
281.22        42.97903
281.68        42.23507
282.13        41.59614
282.59         41.2729
283.04        41.21841
283.50        41.36556
283.95        41.48607
284.41        41.27098
284.86        40.66451
285.32        39.86841
285.77        39.02246
286.22        38.42621
286.68        38.16109
287.13        38.06712
287.59        38.16813
288.04        38.42415
288.50        38.79642
288.95        39.23668
289.41        39.59242
289.86        39.56358
290.32        39.17119
290.77        38.53008
291.22        37.88255
291.68        37.61463
292.13        37.82508
292.59        38.43118
293.04        39.36263
293.50        40.56099
293.95        41.95603
294.40        43.57449
294.86        45.26444
295.31        46.79094
295.77        48.09778
296.22        49.21084
296.68        50.30847
297.13        51.66156
297.58        53.33854
298.04        55.22903
298.49        57.16097
298.95        58.88551
299.40        60.33031
299.85        61.59476
300.31        62.82626
300.76        64.15301
301.21        65.65802
301.67         67.3229
302.12        69.04757
302.58         70.8371
303.03        72.63427
303.48        74.42413
303.94        76.26765
304.39        78.42222
304.84        80.50172
305.30        82.77972
305.75        84.99146
306.20        86.99924
306.66        88.78299
307.11        90.32031
307.57        91.75262
308.02        93.14938
308.47        94.59561
308.93        96.07307
309.38        97.51945
309.83        98.92638
310.29         100.284
310.74         101.584
311.19        102.7952
311.65        103.8486
312.10        104.7224
312.55         105.463
313.00        106.1941
313.46        107.1145
313.91        108.2396
314.36        109.5072
314.82         110.778
315.27        111.8562
315.72        112.6543
316.18        113.2309
316.63        113.6226
317.08         113.908
317.53        114.1456
317.99        114.3522
318.44        114.5512
318.89         114.798
319.35         115.111
319.80        115.4855
320.25        115.9708
320.70        116.6333
321.16        117.4263
321.61        118.3622
322.06        119.2356
322.51         119.736
322.97        119.7877
323.42        119.4902
323.87        119.0593
324.32        118.8736
324.78        119.0185
325.23        119.4734
325.68        120.0605
326.13        120.4751
326.59        120.6082
327.04        120.5909
327.49        120.5858
327.94        120.9107
328.39         121.621
328.85         122.543
329.30        123.5082
329.75        123.9993
330.20        123.8903
330.66        123.3395
331.11        122.6621
331.56        122.2765
332.01        122.3488
332.46        122.7811
332.92        123.4437
333.37        124.2791
333.82        125.1468
334.27        126.0708
334.72        127.0128
335.17        127.9075
335.63        128.6837
336.08        129.3834
336.53        129.9113
336.98        130.2173
337.43        130.3155
337.88        130.2433
338.34        130.1404
338.79        130.2462
339.24        130.6153
339.69        131.2096
340.14         131.901
340.59         132.449
341.05        132.7979
341.50        133.0333
341.95        133.2352
342.40        133.5598
342.85         134.033
343.30        134.5408
343.75        135.0739
344.20         135.626
344.66        136.1844
345.11        136.7953
345.56        137.2569
346.01        137.2352
346.46         136.734
346.91        135.8734
347.36        135.1481
347.81        135.3077
348.26         136.449
348.72        138.2963
349.17        140.2794
349.62        141.3443
350.07        141.2099
350.52        140.2289
350.97        138.9073
351.42        138.0195
351.87        137.7992
352.32        138.0035
352.77        138.4701
353.22        138.9517
353.67         139.309
354.13        139.5918
354.58        139.7459
355.03        139.6522
355.48        139.2818
355.93         138.652
356.38        137.7667
356.83        136.6568
357.28        135.3905
357.73        134.0187
358.18        132.7167
358.63        131.7426
359.08        131.1368
359.53        130.8111
359.98        130.5967
360.43        130.2116
360.88        129.5672
361.33        128.7434
361.78        127.7793
362.23        126.7473
362.68        125.6947
363.13        124.5979
363.58        123.5385
364.03        122.6494
364.48        121.9505
364.93        121.4172
365.38        120.9373
365.83        120.3202
366.28        119.5205
366.73        118.5872
367.18        117.6195
367.63        116.7759
368.08        116.0877
368.53        115.5005
368.98        114.9303
369.43        114.2383
369.88         113.411
370.33        112.5317
370.78         111.672
371.23        110.9498
371.68        110.3893
372.13        109.8978
372.58        109.5058
373.03        109.2656
373.48        109.1321
373.93        109.0878
374.38        108.8559
374.83         107.996
375.28        106.4976
375.72        104.5357
376.17        102.6548
376.62        101.4667
377.07        101.0809
377.52        101.2781
377.97        101.7441
378.42        101.9527
378.87        101.7241
379.32        101.2108
379.77        100.5218
380.22        99.81531
380.67        99.14527
381.11        98.44204
381.56         97.7171
382.01        97.03616
382.46         96.4344
382.91        95.94564
383.36        95.53759
383.81        95.13033
384.26         94.7013
384.71        94.25488
385.15        93.83028
385.60        93.55986
386.05        93.42201
386.50        93.36246
386.95        93.25937
387.40        92.93758
387.85        92.38462
388.29        91.63005
388.74        90.91823
389.19        90.34029
389.64        89.92825
390.09        89.62263
390.54        89.39413
390.98        89.21889
391.43        89.11241
391.88        88.95055
392.33        88.68771
392.78        88.54317
393.23         88.4024
393.67        87.67497
394.12        86.60308
394.57        86.32661
395.02        85.73373
395.47        85.92243
395.91         86.3715
396.36        86.53474
396.81        86.32385
397.26        86.05077
397.71        85.77241
398.15        85.35792
398.60        84.92995
399.05        84.54433
399.50        84.20992
399.95        83.85606
400.39        83.26981
400.84        83.45364
401.29        84.09554
401.74        84.16424
402.18        83.55341
402.63        82.77895
403.08        82.12916
403.53        81.80872
403.97        81.86899
404.42        82.20825
404.87        82.60592
405.32        82.65222
405.76        82.24774
406.21         81.7541
406.66        81.24056
407.11        80.46645
407.55        79.73502
408.00         79.7198
408.45        80.36018
408.90        81.13211
409.34        81.67231
409.79         81.4192
410.24        80.61345
410.68        80.34321
411.13        80.68764
411.58        80.96579
412.03          81.036
412.47        81.01301
412.92        80.83248
413.37        80.51173
413.81        80.09844
414.26        79.74948
414.71        79.46582
415.15        79.23003
415.60        79.04154
416.05        78.94884
416.49        78.96068
416.94        79.07314
417.39        79.19687
417.83        79.16141
418.28        78.94567
418.73        78.59719
419.17        78.25697
419.62        78.16958
420.07        78.34763
420.51        78.67313
420.96        79.02352
421.41        79.07449
421.85        78.74194
422.30        78.47018
422.74         78.2126
423.19        77.46843
423.64        76.49397
424.08        76.50546
424.53        77.40797
424.98        77.86414
425.42        77.80759
425.87          78.153
426.31        78.75306
426.76        78.36108
427.21        77.06682
427.65        76.84032
428.10        77.50838
428.54        77.40603
428.99        76.59342
429.44        76.11915
429.88        76.09514
430.33        76.15549
430.77        76.23687
431.22        76.85365
431.66        77.70491
432.11        77.48972
432.56        76.37257
433.00        75.85624
433.45        76.21141
433.89        76.76169
434.34        76.91185
434.78        78.16145
435.23        76.28484
435.67        75.52991
436.12        75.03126
436.57        75.08504
437.01        75.53056
437.46        76.14231
437.90        75.92792
438.35        76.28719
438.79        76.85556
439.24        77.06072
439.68        76.91068
440.13        76.85438
440.57        76.96865
441.02         76.9889
441.46        76.87736
441.91        77.01841
442.35        77.26701
442.80        76.77959
443.24         76.8241
443.69        76.39561
444.13        75.99493
444.58        75.76553
445.02        75.69547
445.47        75.77973
445.91        75.94484
446.36        76.06762
446.80        76.07994
447.24        76.29413
447.69        76.23569
448.13        76.25262
448.58        76.22733
449.02         76.1487
449.47        76.07277
449.91         76.0628
450.36         76.1478
450.80        76.28461
451.25        76.43486
451.69        76.49687
452.13        76.45735
452.58        76.37737
453.02        76.28275
453.47        76.21412
453.91        76.16907
454.36        76.27793
454.80        76.18575
455.24        76.34196
455.69        76.57582
456.13        76.58601
456.58        76.38631
457.02        76.14558
457.46        75.94363
457.91        75.62775
458.35        75.25792
458.79         75.0501
459.24        75.05318
459.68        75.20084
460.13        75.43155
460.57        75.45145
461.01        75.52271
461.46        75.30561
461.90        74.96798
462.34        75.08195
462.79        75.33529
463.23        75.09441
463.68         74.4229
464.12        74.06719
464.56        74.05779
465.01        74.16298
465.45        74.24438
465.89        74.02596
466.34        73.58443
466.78        74.01797
467.22        74.21907
467.67        74.31323
468.11        73.97121
468.55         73.5674
468.99        73.21744
469.44        72.94604
469.88        72.80517
470.32        72.79495
470.77        72.84884
471.21        72.87719
471.65        72.83259
472.10        72.75275
472.54         72.6677
472.98        72.63863
473.42        72.66523
473.87        72.81342
474.31        72.98403
474.75        72.82955
475.20        72.43994
475.64        72.41971
476.08        72.75348
476.52        72.65064
476.97        72.04932
477.41        72.25341
477.85        71.92067
478.29        71.43671
478.74        72.10469
479.18        72.05112
479.62        71.82874
480.06        71.78258
480.50         71.9435
480.95        71.74681
481.39        72.36677
481.83        71.46841
482.27        72.40402
482.72        72.08372
483.16        72.23132
483.60        72.20662
484.04        72.25167
484.48        72.31135
484.93         72.3696
485.37        72.14558
485.81        71.66696
486.25        71.37016
486.69        72.25669
487.14        71.53559
487.58        71.04682
488.02        71.56876
488.46        72.03053
488.90        71.96335
489.34         71.4321
489.79        72.07636
490.23        71.08696
490.67        71.28469
491.11        71.63074
491.55        71.33005
491.99        70.51502
492.43        70.23013
492.88         70.5564
493.32        70.93633
493.76        71.23044
494.20        71.46209
494.64        71.54964
495.08         71.5727
495.52        71.58829
495.96        71.41073
496.41        71.01218
496.85        71.63203
497.29        70.97398
497.73        71.24492
498.17        71.02129
498.61        71.06189
499.05        70.52778
499.49        70.45367
499.93        70.62312
500.37        70.66679
500.82        70.56203
501.26        70.52328
501.70        70.55063
502.14        70.51572
502.58        70.45244
503.02        70.47193
503.46        70.58421
503.90        70.75187
504.34        70.93105
504.78        71.04688
505.22        71.06145
505.66        71.01604
506.10        70.93394
506.54        70.80888
506.98        70.64657
507.42        70.79575
507.86        70.31258
508.30        70.58147
508.74        70.05714
509.18        69.82838
509.62        69.60696
510.06        69.58557
510.50        69.78526
510.94        70.15471
511.38         70.5678
511.82        70.77872
512.26        70.72691
512.70        70.48064
513.14        70.16178
513.58        69.96296
514.02          69.937
514.46        70.02554
514.90        70.15592
515.34        70.21194
515.78        70.15943
516.22        70.04242
516.66        69.91212
517.10        69.83919
517.54        69.84299
517.98        69.89845
518.42        69.96265
518.86        69.97285
519.30        69.91413
519.74         69.8061
520.18        69.70083
520.62        69.67393
521.06        69.74422
521.50        69.89716
521.93         70.0716
522.37        70.14523
522.81        70.10047
523.25        69.96138
523.69         69.8251
524.13        69.84305
524.57         70.0358
525.01         70.3506
525.45        70.65105
525.89        70.71587
526.32        70.49297
526.76        70.08681
527.20        69.64124
527.64        69.38118
528.08        69.36096
528.52        69.50506
528.96        69.72533
529.40        69.88158
529.83        69.92075
530.27        69.89689
530.71        69.82604
531.15        69.73746
531.59        69.64851
532.03        69.54599
532.46        69.43875
532.90        69.37257
533.34        69.34315
533.78        69.36661
534.22        69.43236
534.66        69.45698
535.09        69.41313
535.53        69.56851
535.97         69.4931
536.41        69.53569
536.85        69.56946
537.28        69.59119
537.72        69.59858
538.16        69.59342
538.60        69.57677
539.04        69.54718
539.47        69.47886
539.91        69.40073
540.35         69.3041
540.79         69.1824
541.22        69.04585
541.66         69.0488
542.10         68.9951
542.54        69.03685
542.97        69.10298
543.41        69.19994
543.85        69.30627
544.29        69.43221
544.72        69.51695
545.16        69.49986
545.60        69.37128
546.04        69.12395
546.47         68.8534
546.91        68.82217
547.35        69.01733
547.79        69.16642
548.22        69.18729
548.66         69.3217
549.10        69.55753
549.53        69.53939
549.97        69.18099
550.41        69.77501
550.84        69.24192
551.28        69.15819
551.72        68.90913
552.15        69.10184
552.59        68.88256
553.03        68.94138
553.46        69.01923
553.90        69.07697
554.34        69.08102
554.77        69.14375
555.21        69.25621
555.65        69.06564
556.08        68.90321
556.52        68.88689
556.96        69.05882
557.39        69.18628
557.83        69.23895
558.27        69.18982
558.70        69.10117
559.14        69.16679
559.57        69.33112
560.01        69.48349
560.45        69.57663
560.88         69.3037
561.32        69.09252
561.75        69.09711
562.19        69.36156
562.63        69.19523
563.06        68.71426
563.50        68.78344
563.93         69.2821
564.37        69.46053
564.80        69.26088
565.24        69.09718
565.68        69.01843
566.11        68.98862
566.55        69.02519
566.98        69.02613
567.42        69.05888
567.85        69.09276
568.29        69.12147
568.72        69.36455
569.16        69.89765
569.60        69.28149
570.03        69.64138
570.47        69.77674
570.90        69.66696
571.34        69.48763
571.77        69.64123
572.21         69.7162
572.64         69.8343
573.08        69.79379
573.51        69.64702
573.95        69.84812
574.38        70.31024
574.82        70.02894
575.25        69.96771
575.69        69.70013
576.12        69.62092
576.56        69.26743
576.99        69.34606
577.42        69.32696
577.86        69.38057
578.29        69.50476
578.73        69.87385
579.16        69.39155
579.60        69.59538
580.03        69.28533
580.47        69.77821
580.90        69.66306
581.33        69.42922
581.77        69.23783
582.20        69.97126
582.64        69.95366
583.07        69.55637
583.51        69.01611
583.94        68.71234
584.37        68.61472
584.81        68.90475
585.24        69.27251
585.68         69.4943
586.11        70.28646
586.54        69.24841
586.98        68.99237
587.41        69.89053
587.85        70.23362
588.28        69.51998
588.71        70.19965
589.15        69.15144
589.58        69.81358
590.01        68.91467
590.45        69.02401
590.88        69.42374
591.31        69.67308
591.75        69.56061
592.18        69.67185
592.61        70.22443
593.05        68.97683
593.48        69.39947
593.91        70.31405
594.35        68.61272
594.78        68.57554
595.21        68.90121
595.65          69.364
596.08        68.38114
596.51        68.91119
596.94        69.33156
597.38        69.61632
597.81        69.31986
598.24        69.28743
598.68        69.17834
599.11        68.70114
599.54         69.8194
599.97        69.72651
600.41        68.72233
600.84        68.85833
601.27        68.90437
601.70        69.23713
602.14        69.32648
602.57        69.10868
603.00        68.64634
603.43        68.54227
603.87        68.63465
604.30          68.839
604.73        68.73424
605.16        68.69299
605.60        68.72635
606.03        68.86735
606.46        69.04279
606.89         69.0759
607.32        68.97479
607.76        68.94329
608.19        69.03508
608.62        69.05502
609.05        69.00315
609.48        69.11842
609.92        68.98632
610.35        68.81772
610.78        69.11102
611.21        68.50631
611.64         68.6931
612.07        68.97489
612.50        68.80406
612.94        68.87093
613.37        69.12863
613.80        69.05946
614.23         69.2765
614.66        69.25226
615.09         69.1735
615.52        69.20489
615.96        69.29725
616.39        69.07497
616.82         68.6009
617.25         68.5954
617.68        68.50076
618.11        68.70467
618.54        68.90852
618.97        68.80002
619.40        68.47131
619.84        68.38102
620.27        68.59391
620.70        68.93368
621.13        69.26221
621.56        68.91051
621.99        68.84653
622.42         68.3039
622.85        68.64133
623.28        68.55786
623.71        69.03268
624.14        67.93501
624.57        68.81725
625.00        68.79543
625.43        68.84361
625.86        68.76335
626.29        68.78502
626.72        68.79884
627.15        68.83614
627.58        68.93459
628.01        68.98109
628.44        68.99893
628.87        68.28784
629.30        68.34854
629.73        68.87554
630.16        69.06015
630.59        68.84349
631.02        68.86645
631.45        68.84592
631.88        68.83245
632.31        68.73713
632.74        68.62206
633.17        68.49905
633.60        68.39856
634.03        68.33423
634.46        68.28506
634.89        68.25593
635.32        68.26601
635.75        68.31087
636.18        68.37357
636.61        68.43723
637.04        68.48998
637.47        68.53905
637.89        68.54143
638.32         68.4622
638.75        68.45522
639.18        68.56057
639.61        68.07545
640.04        68.25549
640.47         68.1526
640.90        68.14592
641.33         68.2066
641.76        68.31341
642.18        68.40833
642.61        68.43623
643.04        68.42041
643.47        68.40443
643.90        68.43847
644.33         68.5238
644.76        68.73174
645.18        68.95523
645.61        68.83305
646.04        68.29218
646.47        68.17382
646.90        68.41628
647.33        68.46281
647.75        68.28706
648.18        68.24202
648.61        68.34875
649.04         68.4301
649.47        68.48049
649.89        68.65677
650.32        68.88007
650.75        68.75284
651.18        68.76584
651.61        68.56789
652.03        68.42655
652.46         68.6966
652.89        69.16285
653.32        69.12346
653.74        68.72168
654.17        68.00841
654.60        68.14986
655.03         69.0051
655.46         67.7475
655.88        69.01598
656.31        71.06995
656.74        72.34766
657.16        71.34661
657.59        68.99287
658.02        68.32307
658.45        69.29951
658.87        69.81195
659.30        68.43999
659.73        69.09034
660.15        69.53271
660.58        69.13988
661.01        68.95894
661.44         68.5467
661.86        68.23766
662.29        68.07396
662.72         68.2969
663.14        68.77459
663.57        68.70274
664.00        68.18732
664.42        68.05151
664.85        68.34265
665.27        68.52996
665.70        68.56614
666.13        68.67451
666.55        68.84827
666.98        68.99731
667.41        69.09251
667.83        69.09089
668.26        68.97961
668.69        68.79354
669.11        68.57761
669.54        68.40585
669.96        68.30469
670.39        68.25479
670.82        68.24931
671.24        68.28489
671.67        68.33675
672.09        68.40234
672.52        68.48061
672.94        68.62885
673.37        68.31065
673.80         68.7393
674.22        68.40637
674.65        68.50349
675.07        68.64185
675.50        68.82726
675.92        69.01492
676.35        69.08809
676.77        69.03819
677.20        68.94053
677.62        68.88605
678.05        68.67017
678.47        68.86775
678.90         68.9992
679.32         69.1424
679.75        69.15534
680.17         69.0116
680.60        68.76774
681.02        68.49684
681.45        68.32977
681.87        68.30379
682.30        68.37062
682.72        68.51473
683.15        68.62939
683.57        68.72826
684.00        68.91783
684.42        69.13351
684.85        69.23997
685.27        69.22669
685.70        69.01649
686.12        68.75089
686.54        69.01102
686.97        69.65259
687.39        69.89798
687.82        69.65977
688.24        69.53249
688.66        69.51569
689.09        69.23148
689.51        68.78556
689.94        68.54794
690.36        68.56306
690.78        68.72954
691.21        68.96155
691.63        69.12289
692.06        69.16806
692.48         69.1538
692.90        69.11053
693.33        69.07495
693.75        69.06454
694.17        69.05004
694.60        69.04174
695.02        69.04658
695.44        69.05335
695.87        69.16472
696.29        69.33017
696.71        69.18316
697.14        68.83693
697.56        68.86596
697.98        69.22642
698.41        69.37744
698.83        69.28561
699.25          69.266
699.68        69.31473
700.10        69.33384
700.52        69.30761
700.94        69.27634
701.37        69.22271
701.79        69.13674
702.21        69.01742
702.64        68.88558
703.06        68.78226
703.48        68.78393
703.90        68.90341
704.33        69.12152
704.75        69.36195
705.17        69.56781
705.59        69.68855
706.01        69.74616
706.44        69.74876
706.86        69.72925
707.28          69.699
707.70        69.62478
708.12        69.55773
708.55        69.61629
708.97        69.75533
709.39        69.91387
709.81        69.79249
710.23        69.87823
710.66          70.076
711.08        70.25967
711.50        70.38776
711.92        70.50448
712.34         70.6073
712.76        70.68072
713.19        70.70131
713.61         70.6823
714.03        70.61021
714.45        70.49346
714.87        70.38412
715.29        70.35586
715.71        70.41861
716.13        70.55522
716.56         70.6767
716.98        70.71649
717.40        70.62171
717.82        70.42827
718.24        70.21266
718.66        70.09744
719.08          70.113
719.50        70.21851
719.92        70.35853
720.34        70.44401
720.76        70.44613
721.19        70.38483
721.61        70.29738
722.03        70.21603
722.45        70.15618
722.87         70.1054
723.29        70.06165
723.71        70.02381
724.13        69.99342
724.55        69.97983
724.97        69.98721
725.39        70.01537
725.81        70.06515
726.23         70.1348
726.65        70.21909
727.07        70.31564
727.49        70.41402
727.91        70.49456
728.33        70.55933
728.75        70.61388
729.17        70.65636
729.59        70.69978
730.01        70.69257
730.43        70.55211
730.85        70.28611
731.27        69.93389
731.69        69.63952
732.10         69.6262
732.52        69.93446
732.94        70.49978
733.36        71.14637
733.78        71.58308
734.20        71.71152
734.62        71.52827
735.04        71.20908
735.46        71.20139
735.88        71.50084
736.30        71.64596
736.72        71.55679
737.13        71.52668
737.55        71.49187
737.97        71.14716
738.39        70.64917
738.81        70.52251
739.23        70.77953
739.65        71.06721
740.06        71.23412
740.48        71.31592
740.90        71.26012
741.32        71.01804
741.74        70.69511
742.16        70.54939
742.57        70.65184
742.99         70.8318
743.41        71.03115
743.83        71.33004
744.25        71.60545
744.67        71.46997
745.08        71.04861
745.50        70.90988
745.92        71.12345
746.34        71.38119
746.75        71.58947
747.17        71.72846
747.59        71.76411
748.01        71.71106
748.42        71.62327
748.84          71.561
749.26        71.55817
749.68        71.59153
750.09        71.62701
750.51        71.64761
750.93        71.63448
751.35        71.60929
751.76        71.58945
752.18        71.58941
752.60        71.61526
753.01        71.66544
753.43        71.72363
753.85        71.79736
754.27        71.89258
754.68        72.03207
755.10          72.175
755.52        72.25703
755.93        72.24639
756.35        72.13332
756.77        72.03893
757.18        72.08029
757.60        72.28149
758.02        72.82783
758.43        73.41102
758.85        73.08313
759.26        72.12306
759.68        71.45752
760.10        72.13524
760.51         72.3567
760.93        72.33604
761.34        72.39804
761.76        72.51109
762.18        72.70372
762.59        72.86703
763.01         72.4314
763.42        71.60422
763.84        71.21156
764.26        71.35518
764.67        71.59702
765.09        71.83263
765.50        72.07574
765.92         72.3072
766.33        72.40197
766.75        72.23356
767.16        72.72793
767.58        72.39746
768.00        72.29288
768.41        72.06295
768.83        72.26501
769.24        72.73945
769.66        72.60015
770.07        71.98407
770.49        71.94446
770.90        72.44777
771.32        72.65428
771.73        72.52944
772.15        72.45126
772.56        72.43029
772.97         72.5123
773.39        72.23155
773.80        72.27055
774.22        72.46538
774.63        72.80135
775.05        73.13171
775.46        73.32112
775.88        73.29454
776.29        73.12996
776.70        72.89175
777.12        72.70513
777.53        72.62211
777.95        72.59886
778.36         72.6255
778.77        72.67016
779.19        72.72077
779.60        72.82384
780.02        72.93804
780.43        73.09145
780.84        73.26755
781.26        73.29253
781.67        73.24447
782.09         73.5881
782.50        74.17218
782.91        74.17635
783.33        73.62847
783.74        73.30769
784.15        73.26438
784.57        73.07661
784.98        72.78998
785.39        72.68533
785.81        72.78949
786.22        73.01997
786.63        73.34613
787.04        73.71092
787.46        74.08102
787.87        74.44637
788.28         74.7607
788.70        74.94905
789.11        74.98872
789.52        74.90369
789.93        74.75803
790.35        74.65765
790.76        74.65172
791.17        74.72447
791.58         74.8338
792.00        74.88623
792.41        74.88077
792.82        74.82635
793.23        74.78268
793.65        74.86069
794.06        75.08157
794.47        75.38319
794.88        75.64667
795.29        75.70501
795.71         75.4983
796.12        75.11761
796.53        74.70497
796.94        74.53643
797.35        74.69287
797.76        75.09217
798.18        75.56147
798.59        75.86495
799.00        75.90657
799.41        75.76816
799.82        75.53447
800.23        75.34811
800.64        75.26733
801.06        75.22445
801.47        75.25237
801.88        75.32897
802.29        75.43456
802.70        75.56274
803.11        75.69772
803.52        75.80344
803.93         75.8735
804.34         75.9234
804.75        75.90747
805.17        75.80612
805.58        75.66729
805.99        75.33021
806.40        74.95316
806.81        75.17949
807.22        75.86119
807.63        76.02654
808.04        75.68602
808.45        75.67806
808.86        76.03374
809.27        76.24116
809.68         76.2291
810.09        76.15981
810.50        76.03685
810.91        75.80643
811.32         75.5939
811.73        75.60412
812.14        75.87138
812.55        76.35638
812.96        76.87666
813.37        77.08253
813.78        76.88968
814.19        76.42376
814.60        75.89199
815.01        75.59016
815.42        75.58755
815.83        75.78964
816.24        76.10761
816.65        76.36407
817.05        76.47772
817.46        76.47381
817.87         76.3894
818.28        76.21404
818.69        75.97255
819.10        75.66861
819.51        75.39049
819.92        75.31207
820.33        75.47566
820.74        75.81761
821.14        76.25808
821.55        76.67753
821.96        77.01921
822.37         77.3175
822.78        77.50659
823.19        77.48207
823.60        77.23107
824.00        76.76815
824.41        76.25455
824.82        75.97992
825.23        76.00594
825.64        76.29105
826.04        76.64934
826.45        76.65374
826.86        76.24374
827.27        75.55252
827.68        74.86717
828.08        74.66431
828.49        75.00387
828.90        75.76609
829.31        76.70178
829.72        77.37983
830.12        77.67893
830.53        77.63183
830.94        77.42059
831.35        77.31334
831.75        77.41986
832.16        77.57893
832.57        77.72153
832.97        77.69785
833.38        77.48215
833.79        77.20193
834.20         76.9167
834.60        76.67371
835.01        76.53207
835.42         76.4341
835.82        76.49374
836.23        76.83188
836.64        77.46276
837.04        78.37058
837.45        79.19701
837.86        79.50732
838.26        79.19658
838.67        78.40591
839.08        77.46428
839.48        76.86785
839.89        76.79028
840.29        77.07866
840.70        77.55615
841.11        77.94677
841.51        78.17217
841.92        78.27939
842.33        78.32834
842.73         78.3941
843.14        78.45346
843.54        78.50767
843.95         78.5309
844.35         78.5653
844.76        78.58527
845.17        78.55826
845.57        78.52913
845.98        78.52735
846.38        78.57155
846.79        78.66737
847.19          78.656
847.60        78.21761
848.00        77.36737
848.41        76.25075
848.81        75.27058
849.22        75.02545
849.62        75.66087
850.03        76.94381
850.43        78.54395
850.84        79.63488
851.24        79.98537
851.65        79.68677
852.05        78.99548
852.46        78.31155
852.86        77.80051
853.27        77.44971
853.67        77.10863
854.07        76.76355
854.48        76.34312
854.88         75.9014
855.29         75.5126
855.69        75.52483
856.10        75.89793
856.50        76.62038
856.90        77.28708
857.31         77.3457
857.71        76.74839
858.12         75.6187
858.52        74.40688
858.92        73.82368
859.33        74.05471
859.73        74.94793
860.13        76.12229
860.54          76.952
860.94        77.27879
861.34        77.17298
861.75         76.8061
862.15        76.54618
862.55        76.46592
862.96        76.47208
863.36        76.32938
863.76         75.7082
864.17        74.62994
864.57        73.31166
864.97        72.11781
865.38        71.52321
865.78        71.66515
866.18        72.36407
866.58        73.45013
866.99        74.51938
867.39        75.38934
867.79        76.09756
868.19        76.47384
868.60        76.29276
869.00        75.58454
869.40        74.39112
869.80        73.19006
870.21        72.81868
870.61        73.50539
871.01        74.97354
871.41        76.60345
871.81        77.38618
872.22        77.06199
872.62        75.93319
873.02        74.47863
873.42        73.50469
873.82        73.28291
874.22        73.60328
874.63        74.15334
875.03        74.46162
875.43        74.39878
875.83        74.10271
876.23        73.87771
876.63        74.19857
877.03        75.13011
877.44        76.44012
877.84        77.68833
878.24        78.07755
878.64        77.47656
879.04        76.21793
879.44        74.83044
879.84        74.08359
880.24        74.14687
880.64        74.73945
881.04        75.64493
881.44        76.49776
881.84        77.13155
882.24        77.68472
882.65        77.95265
883.05        77.73417
883.45        76.99584
883.85        75.83855
884.25        74.72456
884.65        74.36852
885.05        74.88358
885.45        76.03246
885.85        77.40979
886.25        78.28913
886.65        78.41751
887.05        78.02723
887.45        77.22237
887.85        76.21426
888.25        75.19908
888.65        74.16623
889.04        73.35146
889.44        73.15548
889.84         73.5588
890.24        74.50891
890.64        75.69776
891.04        76.43704
891.44        76.47816
891.84        76.01009
892.24        75.37773
892.64        75.07835
893.04        75.21637
893.44          75.626
893.83        76.17542
894.23        76.55707
894.63        76.69867
895.03        76.71265
895.43         76.6578
895.83        76.61009
896.23        76.59577
896.63        76.55116
897.02         76.4955
897.42         76.5349
897.82         76.6576
898.22        76.88359
898.62        77.06469
899.01        76.95505
899.41         76.5144
899.81        75.82799
900.21        75.18478
900.61        75.03278
901.00        75.44254
901.40        76.27113
901.80        77.15038
902.20        77.47269
902.59        77.09005
902.99        76.19884
903.39        75.16061
903.79        74.51508
904.18        74.40473
904.58        74.70455
904.98        75.16848
905.38          75.426
905.77        75.35712
906.17        75.07272
906.57        74.78722
906.96        74.86423
907.36        75.33346
907.76         76.0869
908.15        76.80556
908.55        76.84415
908.95        76.15487
909.34        74.96679
909.74        73.81742
910.14         73.3866
910.53        73.86856
910.93        74.99228
911.33        76.48629
911.72        77.93033
912.12        79.03848
912.52        79.90803
912.91        80.50696
913.31        80.76351
913.70        80.69902
914.10        80.29841
914.49        79.61347
914.89        78.74119
915.29        77.78647
915.68        76.79341
916.08        76.01624
916.47        75.68408
916.87        75.87752
917.26         76.4949
917.66         77.3027
918.05        77.92608
918.45         78.1792
918.84        78.17895
919.24        77.96183
919.64        77.78084
920.03        77.71741
920.42        77.66257
920.82        77.60027
921.21        77.41214
921.61        77.10411
922.00        76.77411
922.40        76.47755
922.79        76.38142
923.19        76.49442
923.58        76.76705
923.98        77.15008
924.37        77.58636
924.77        78.01791
925.16        78.44624
925.55        78.77251
925.95        78.84149
926.34         78.6596
926.74        78.27329
927.13        77.81506
927.52        77.46986
927.92        77.31403
928.31        77.28629
928.70        77.38692
929.10        77.59132
929.49        77.85842
929.89        78.14394
930.28        78.36742
930.67        78.30322
931.07        77.92078
931.46        77.33942
931.85        76.66177
932.24        76.04382
932.64        75.57419
933.03        75.24575
933.42        75.17288
933.82        75.51776
934.21         76.2884
934.60        77.33827
934.99        78.47231
935.39        79.34844
935.78         79.8864
936.17        80.12222
936.56        79.88488
936.96        78.99818
937.35        77.56886
937.74        75.76117
938.13        74.13355
938.53        73.36602
938.92        73.52184
939.31        74.50671
939.70        75.84196
940.09        76.56972
940.49        76.37823
940.88        75.52876
941.27        74.57685
941.66        74.38412
942.05        75.12706
942.44        76.56376
942.84        78.09618
943.23        78.73398
943.62        78.14584
944.01        76.68695
944.40        75.10592
944.79        74.48705
945.18        75.06235
945.57        76.50768
945.97        78.13854
946.36         79.0095
946.75        78.71017
947.14        77.57844
947.53        76.20601
947.92        75.46983
948.31        75.61035
948.70        76.38488
949.09         77.3522
949.48        77.74393
949.87        77.33386
950.26        76.38182
950.65        75.40016
951.04        75.07562
951.43        75.55054
951.82        76.65244
952.21        77.85893
952.60        78.23694
952.99        77.54664
953.38        76.09161
953.77        74.63171
954.16        74.17973
954.55          74.925
954.94        76.67804
955.33        78.68398
955.72        79.32065
956.11        78.08621
956.50        75.56878
956.89        73.00125
957.28        71.97671
957.66        72.83289
958.05        75.04934
958.44        77.76341
958.83        79.20456
959.22        78.75524
959.61        77.03645
960.00        74.96548
960.39        73.69568
960.78        73.45255
961.16        73.89851
961.55         74.5638
961.94        74.67616
962.33        74.00101
962.72        72.95483
963.11        71.91293
963.49        71.31953
963.88        71.28098
964.27        71.59477
964.66        72.22158
965.04        73.16444
965.43        74.23456
965.82        75.44508
966.21        76.49439
966.60        76.83278
966.98        76.39498
967.37        75.43752
967.76        74.33482
968.15        73.60091
968.53        73.34288
968.92        73.33228
969.31        73.67907
969.69        74.57973
970.08        75.90462
970.47        77.72543
970.86        79.25349
971.24        79.14606
971.63        77.21239
972.02        73.99966
972.40        70.85452
972.79        69.85874
973.17        71.35796
973.56        74.56887
973.95        78.45971
974.33        81.03731
974.72        81.49542
975.11        80.49633
975.49        78.65406
975.88        77.20599
976.26        76.53232
976.65        76.15525
977.04        76.08206
977.42        76.37245
977.81        76.82254
978.19        77.60871
978.58        78.42112
978.96        78.59155
979.35        78.05472
979.74        76.97296
980.12        75.82964
980.51        75.44575
980.89        76.11165
981.28        77.40891
981.66        79.12316
982.05        80.58922
982.43         81.6517
982.82        82.42179
983.20        82.69282
983.59        82.00338
983.97         80.4405
984.35        78.19275
984.74        76.15639
985.12        75.55398
985.51        76.52103
985.89        78.80978
986.28        81.42068
986.66        83.01188
987.04        82.98784
987.43        81.76074
987.81        79.92519
988.20        78.81963
988.58        78.78236
988.96        79.45829
989.35        80.07607
989.73        79.65027
990.12        77.91953
990.50        75.41154
990.88        72.80128
991.27        71.13842
991.65        70.67596
992.03        71.11014
992.42        72.15413
992.80        73.67437
993.18        75.41399
993.56        77.45412
993.95        79.31462
994.33        80.25192
994.71        79.98272
995.10         78.7877
995.48        77.32411
995.86        76.68831
996.24        77.17244
996.63        78.40015
997.01        80.22205
997.39        82.05919
997.77        83.54398
998.15        84.78738
998.54        85.54482
998.92        85.47051
999.30        84.55758
999.68        82.90733
1000.06        80.96716
1000.45        79.61602
1000.83        79.27383
1001.21        79.73431
1001.59        80.84821
1001.97        82.27055
1002.35        83.73731
1002.73        85.26665
1003.12        86.43854
1003.50        86.51842
1003.88        85.47718
1004.26        83.58086
1004.64        81.37573
1005.02        79.89036
1005.40        79.45062
1005.78        79.69798
1006.16        80.48724
1006.54        81.60408
1006.92        82.91893
1007.30        84.60703
1007.69        86.07449
1008.07        86.23285
1008.45        84.67198
1008.83        81.58944
1009.21         78.2103
1009.59        76.66297
1009.97         77.4897
1010.35        80.12428
1010.73        83.33155
1011.11        85.02549
1011.49         84.6144
1011.86        82.79102
1012.24        80.26768
1012.62        78.32882
1013.00          77.367
1013.38        77.03552
1013.76        76.95825
1014.14        76.48804
1014.52        75.39281
1014.90        73.93142
1015.28        72.68471
1015.66        72.38703
1016.04        73.22256
1016.41        75.14391
1016.79        77.26762
1017.17        77.98485
1017.55        77.13659
1017.93        75.48589
1018.31        74.37836
1018.69        75.29185
1019.06         78.6131
1019.44        84.36587
1019.82        92.14278
1020.20        98.04638
1020.58        98.75205
1020.95        94.98072
1021.33         89.7079
1021.71        85.90932
1022.09        83.86285
1022.46        82.65321
1022.84        81.78922
1023.22        79.84011
1023.60        76.92351
1023.97         74.3309
1024.35        72.98441
1024.73        73.42524
