SpectraSmart Spectrum 2.9.0.0
--------- Device Information -----------
Spectrum Name :  反射率_0
Saving Time :  2024/04/30 00:12:09
Spectro-Module Model Name : SE2030-DUVN
Spectro-Module Serial Number : OS361AC55029948
Wavelength Start : 200
Wavelength End : 1025
Wavelength Unit : Wavelength(nm)
Spectrum Unit : Reflectance(%)
-----------Spectrum Setting ------------
Integration Time : 20ms
Average : 10
Boxcar : 0
Background removal :  enabled
linearity correction :  enabled
SC :  disabled
Intensity correction :  disabled
DWT denoise :  enabled
savitzky-golay :  disabled
FFT :  disabled
Running average :  disabled
Kalman :  disabled
High pass :  disabled
---------------BEGIN--------------------
Wavelength(nm)             Reflectance(%)
200.29               0
200.75        92.71718
201.21        78.46273
201.67        62.85737
202.13        50.11339
202.58          42.552
203.04        39.27986
203.50        41.78898
203.96        52.42456
204.42        70.08518
204.88        92.48928
205.34        110.2683
205.80         111.122
206.26        98.13996
206.72         80.5385
207.18        64.79504
207.64        54.21157
208.10        47.64948
208.55        42.67971
209.01        39.90114
209.47        41.69112
209.93         47.2903
210.39         55.0405
210.85        61.21413
211.31        62.66662
211.77        59.22197
212.23        50.21954
212.69        37.43756
213.14        32.29298
213.60        39.94384
214.06         53.9638
214.52        66.08486
214.98        71.19161
215.44        70.50642
215.90        66.32564
216.36        61.59179
216.81        61.84743
217.27         70.0415
217.73        86.41717
218.19        109.8502
218.65        128.6672
219.11        132.9166
219.57        125.6379
220.02        115.2746
220.48        108.8496
220.94          105.66
221.40        103.5899
221.86        100.3252
222.32        92.84221
222.77        83.18797
223.23        75.96255
223.69        71.71886
224.15        69.57253
224.61        68.77462
225.06        69.08839
225.52        70.59768
225.98         72.9158
226.44        75.21712
226.90        76.90173
227.36        78.30005
227.81         80.0078
228.27        82.32553
228.73        85.17657
229.19        87.56358
229.65        87.40611
230.10        84.70348
230.56        81.17134
231.02        78.30794
231.48        77.44241
231.93        78.36634
232.39        80.64129
232.85        83.56647
233.31        85.92535
233.77        87.22823
234.22        87.99162
234.68        88.20961
235.14        88.06557
235.60        87.79533
236.05         87.2149
236.51        87.07562
236.97        88.44677
237.43        91.69514
237.88        97.44446
238.34        104.7593
238.80        110.6472
239.26        112.6553
239.71        111.0411
240.17        107.8532
240.63         106.784
241.08        109.4135
241.54        115.9925
242.00        127.6978
242.46         140.388
242.91        146.7839
243.37        144.2775
243.83        138.2524
244.28        136.6834
244.74        140.8414
245.20        148.4874
245.66        157.3392
246.11        161.8124
246.57        158.4597
247.03        150.4424
247.48        137.5127
247.94        121.8592
248.40         109.451
248.85        100.7351
249.31        97.50746
249.77        99.60376
250.22        107.0096
250.68        122.1093
251.14        144.6975
251.59        156.6443
252.05        146.0573
252.51        127.2131
252.96        113.3316
253.42        109.5921
253.88        113.1083
254.33        121.4768
254.79        131.7865
255.25        136.6216
255.70        134.4807
256.16        130.3524
256.62        127.3687
257.07        127.5921
257.53        131.1142
257.99        136.0599
258.44        139.9928
258.90        140.7109
259.35        137.7444
259.81        133.7982
260.27        130.0978
260.72        127.6081
261.18        126.6666
261.63        126.0504
262.09        125.4943
262.55        123.9939
263.00        121.4362
263.46          118.74
263.91        115.9931
264.37        113.9836
264.83        112.5194
265.28        111.2997
265.74        110.2779
266.19        108.9775
266.65        107.5106
267.11        105.9327
267.56        104.4143
268.02        103.2881
268.47        102.4741
268.93        101.8492
269.38        101.1257
269.84        99.96178
270.30        98.28792
270.75        96.25441
271.21        94.11144
271.66        92.03562
272.12        90.13268
272.57        88.28893
273.03        86.56183
273.48        84.91016
273.94        83.44408
274.39        82.08704
274.85        80.91701
275.31        79.81268
275.76        78.68313
276.22        77.61501
276.67        76.48905
277.13        75.38959
277.58        74.21722
278.04        73.06455
278.49        71.84917
278.95        70.67931
279.40        69.48054
279.86        68.37289
280.31        67.27728
280.77        66.29761
281.22        65.37013
281.68         64.5582
282.13        63.83482
282.59        63.31697
283.04        62.91979
283.50        62.63929
283.95        62.30814
284.41        61.76476
284.86        60.96467
285.32        60.07558
285.77        59.17218
286.22        58.50206
286.68        58.12819
287.13        57.90048
287.59        57.83867
288.04        57.86335
288.50        57.96056
288.95        58.08131
289.41        58.14541
289.86        57.92409
290.32        57.46106
290.77        56.83521
291.22        56.23697
291.68        55.96658
292.13        56.08797
292.59        56.55062
293.04        57.30383
293.50        58.34869
293.95        59.61395
294.40        61.11476
294.86        62.67321
295.31        64.01471
295.77        65.08359
296.22        65.92553
296.68        66.75255
297.13        67.88081
297.58        69.38575
298.04        71.13068
298.49        72.92233
298.95        74.49192
299.40        75.74646
299.85        76.80164
300.31        77.77418
300.76         78.7291
301.21        79.76234
301.67        80.88939
302.12        82.09288
302.58          83.511
303.03        85.09115
303.48        86.79559
303.94         88.6006
304.39        90.48944
304.84        92.25541
305.30        94.04742
305.75        95.70207
306.20        97.15423
306.66        98.42292
307.11        99.46225
307.57        100.4184
308.02        101.3477
308.47        102.3356
308.93        103.3755
309.38         104.407
309.83        105.4277
310.29        106.4328
310.74        107.4104
311.19        108.3248
311.65           109.1
312.10        109.7073
312.55        110.1912
313.00        110.6792
313.46        111.3779
313.91        112.2995
314.36        113.3764
314.82        114.4514
315.27        115.3043
315.72        115.8443
316.18        116.1392
316.63        116.2525
317.08         116.303
317.53        116.3608
317.99        116.4362
318.44        116.5256
318.89        116.6421
319.35        116.7915
319.80        116.9754
320.25        117.2753
320.70        117.8099
321.16        118.5416
321.61        119.4709
322.06        120.3376
322.51        120.7417
322.97        120.5935
323.42         120.024
323.87        119.3302
324.32        119.0164
324.78        119.1906
325.23        119.7871
325.68        120.5476
326.13        121.0296
326.59        121.0814
327.04        120.8791
327.49        120.6316
327.94        120.7327
328.39        121.2683
328.85        122.0396
329.30        122.8919
329.75        123.3339
330.20        123.2407
330.66        122.7752
331.11        122.2004
331.56        121.8433
332.01        121.8493
332.46        122.1344
332.92        122.6328
333.37        123.4061
333.82        124.3418
334.27        125.4223
334.72        126.5292
335.17        127.4628
335.63        128.1116
336.08        128.5567
336.53         128.763
336.98        128.7833
337.43        128.6732
337.88        128.4478
338.34         128.226
338.79        128.2084
339.24        128.4411
339.69        128.9119
340.14         129.505
340.59        129.9963
341.05        130.3299
341.50        130.5664
341.95        130.7894
342.40        131.1644
342.85        131.7115
343.30        132.3201
343.75        132.9189
344.20        133.4047
344.66         133.755
345.11        134.0396
345.56         134.183
346.01         134.055
346.46        133.6893
346.91         133.135
347.36        132.7183
347.81        132.9318
348.26        133.8226
348.72         135.202
349.17        136.6483
349.62        137.3634
350.07        137.1489
350.52        136.2805
350.97        135.1644
351.42        134.4249
351.87        134.2435
352.32        134.4155
352.77          134.82
353.22        135.2684
353.67        135.6388
354.13        135.9632
354.58        136.1281
355.03        135.9329
355.48         135.341
355.93        134.3953
356.38        133.2146
356.83         132.002
357.28         130.838
357.73        129.7048
358.18        128.6181
358.63        127.5832
359.08         126.602
359.53        125.6978
359.98        124.8483
360.43        124.0024
360.88        123.1482
361.33        122.2912
361.78        121.4483
362.23        120.6535
362.68        119.9072
363.13        119.1867
363.58        118.4675
364.03        117.7143
364.48        116.9129
364.93        116.0714
365.38        115.1985
365.83        114.3145
366.28        113.4361
366.73        112.5674
367.18        111.7154
367.63        110.8846
368.08        110.0709
368.53        109.2721
368.98         108.495
369.43        107.7425
369.88        107.0265
370.33        106.3695
370.78        105.7422
371.23        105.1015
371.68        104.4365
372.13         103.724
372.58        103.0663
373.03        102.6301
373.48        102.4111
373.93        102.3437
374.38        102.1747
374.83        101.5012
375.28        100.2865
375.72        98.68716
376.17        97.10931
376.62        95.96894
377.07        95.35625
377.52        95.11756
377.97        95.10025
378.42         95.0562
378.87        94.87848
379.32        94.62967
379.77        94.29092
380.22        93.82773
380.67        93.23857
381.11        92.51323
381.56        91.70972
382.01        90.96453
382.46        90.34395
382.91        89.85913
383.36        89.46645
383.81        89.07706
384.26        88.66656
384.71        88.24464
385.15        87.87525
385.60        87.71988
386.05         87.7515
386.50        87.89588
386.95        87.96861
387.40         87.6981
387.85        87.06167
388.29        86.13498
388.74         85.2218
389.19        84.50809
389.64        84.03735
390.09         83.7174
390.54         83.5074
390.98        83.31287
391.43        83.11223
391.88        82.99368
392.33        82.88348
392.78        82.52334
393.23        81.89164
393.67        81.72489
394.12        80.67506
394.57        80.75259
395.02        80.36664
395.47        80.43546
395.91        80.52903
396.36         80.5162
396.81        80.37064
397.26        80.13195
397.71        79.84884
398.15        79.49812
398.60         79.1843
399.05        78.92867
399.50        78.70708
399.95        78.41714
400.39        77.85823
400.84        77.95152
401.29        78.43849
401.74        78.50603
402.18        78.02892
402.63        77.25735
403.08        76.50548
403.53         76.2123
403.97        76.44042
404.42         76.9754
404.87        77.51577
405.32        77.61395
405.76        77.15666
406.21        76.39532
406.66        75.55412
407.11        74.87667
407.55        74.57047
408.00        74.72856
408.45         75.2233
408.90        75.76855
409.34        76.11346
409.79        75.88971
410.24        75.32135
410.68        75.19336
411.13        75.57098
411.58        76.00548
412.03        76.30122
412.47        76.33168
412.92        76.01014
413.37        75.44574
413.81          74.774
414.26        74.26479
414.71        73.95369
415.15        73.78669
415.60        73.73455
416.05        73.79446
416.49        73.94627
416.94        74.19357
417.39        74.43861
417.83        74.50317
418.28        74.36298
418.73        74.05521
419.17        73.72559
419.62        73.64882
420.07        73.86326
420.51        74.21722
420.96        74.58683
421.41        74.80755
421.85        74.74451
422.30        74.42012
422.74        73.91785
423.19        73.46949
423.64        73.19008
424.08        73.33421
424.53        73.78601
424.98        74.06388
425.42         74.0804
425.87         74.2083
426.31        74.41416
426.76        74.15736
427.21        73.44534
427.65        73.54629
428.10        74.19705
428.54        74.05567
428.99         73.2258
429.44        72.61555
429.88        72.41197
430.33        72.57434
430.77        72.95892
431.22         73.5556
431.66        74.19421
432.11        74.22834
432.56        73.68974
433.00        73.50938
433.45        73.99366
433.89         73.4718
434.34        74.32349
434.78        75.16184
435.23        73.79049
435.67         73.1315
436.12        72.67033
436.57        72.59084
437.01        72.72581
437.46        73.70445
437.90         73.2504
438.35        73.72839
438.79        74.37249
439.24        74.65601
439.68        74.56847
440.13        74.57082
440.57        74.73226
441.02        74.78808
441.46        74.70962
441.91        74.91714
442.35        74.89014
442.80        74.89919
443.24        74.78232
443.69        74.57905
444.13        74.33117
444.58        74.16695
445.02        74.06778
445.47        74.02741
445.91        74.02391
446.36        74.05032
446.80        74.07748
447.24        74.12939
447.69        74.19168
448.13        74.21515
448.58        74.21198
449.02        74.16461
449.47        74.13298
449.91         74.1749
450.36        74.31209
450.80        74.50485
451.25        74.69677
451.69        74.76361
452.13          74.688
452.58        74.53462
453.02        74.36572
453.47        74.26784
453.91         74.2464
454.36        74.45454
454.80        74.50451
455.24        74.63054
455.69        74.66844
456.13        74.64565
456.58        74.63864
457.02        74.12539
457.46        74.11531
457.91         74.0137
458.35        73.68114
458.79        73.52317
459.24         73.4627
459.68        73.46754
460.13        73.50058
460.57        73.43444
461.01        73.58031
461.46        73.30206
461.90        72.88267
462.34        73.39572
462.79        73.51453
463.23        73.30746
463.68        72.53551
464.12        72.17239
464.56        72.27843
465.01        72.31303
465.45        72.20251
465.89        72.30759
466.34        72.55036
466.78        72.46207
467.22        72.32881
467.67        72.01557
468.11        72.02167
468.55        71.84254
468.99        71.60746
469.44        71.39667
469.88        71.22168
470.32        71.08346
470.77        70.97015
471.21        70.89178
471.65        70.83131
472.10        70.80212
472.54        70.80701
472.98        70.86129
473.42        70.94689
473.87        71.13779
474.31        71.33838
474.75        71.21553
475.20        70.86182
475.64        70.83912
476.08        71.13586
476.52        71.00855
476.97        70.38829
477.41        70.38885
477.85        70.30891
478.29        69.45782
478.74        70.36649
479.18        70.47546
479.62        70.15488
480.06        70.16066
480.50        70.35793
480.95        70.23486
481.39        70.92686
481.83        69.96925
482.27        70.69051
482.72        70.66662
483.16        70.59618
483.60        70.61621
484.04        70.70232
484.48        70.74194
484.93        70.51701
485.37         70.7006
485.81        69.46824
486.25        68.98299
486.69        70.35255
487.14        70.34697
487.58        69.55286
488.02        69.49585
488.46        69.99104
488.90        70.24707
489.34        69.37006
489.79         70.1636
490.23        69.57233
490.67        69.87067
491.11         70.0733
491.55        69.69094
491.99        68.89333
492.43         68.5614
492.88        68.78934
493.32        69.11064
493.76        69.38598
494.20        69.60751
494.64        69.71593
495.08         69.7238
495.52         69.6601
495.96        69.54124
496.41        69.43363
496.85        69.41661
497.29        69.41484
497.73        69.45949
498.17        69.21713
498.61         68.8716
499.05        68.47235
499.49        68.45461
499.93        68.74117
500.37        68.80544
500.82        68.64412
501.26        68.62091
501.70        68.71583
502.14        68.91999
502.58        68.79773
503.02        68.81483
503.46        68.84978
503.90        68.87795
504.34         68.8966
504.78        68.91348
505.22        68.92207
505.66        68.92894
506.10         68.9311
506.54         68.9122
506.98        68.86749
507.42        68.99713
507.86        68.63057
508.30        68.90157
508.74        68.37686
509.18         68.1106
509.62        67.83518
510.06        67.75922
510.50        67.90857
510.94        68.23605
511.38        68.61177
511.82        68.78204
512.26        68.68779
512.70        68.40421
513.14        68.06404
513.58        67.87454
514.02        67.88952
514.46        68.04269
514.90        68.24703
515.34        68.36356
515.78        68.34892
516.22        68.24974
516.66        68.12167
517.10        68.04499
517.54        68.04174
517.98        68.08232
518.42        68.12357
518.86        68.10274
519.30        68.00706
519.74         67.8623
520.18        67.72019
520.62         67.6531
521.06        67.68182
521.50        67.79402
521.93        67.94175
522.37         68.0237
522.81        68.02503
523.25        67.96332
523.69        67.91294
524.13        67.99155
524.57        68.21117
525.01        68.52383
525.45        68.81491
525.89        68.90076
526.32        68.73442
526.76        68.40459
527.20         68.0243
527.64        67.77171
528.08        67.69551
528.52        67.74223
528.96        67.85486
529.40        67.94111
529.83        67.96329
530.27        67.96038
530.71        67.93771
531.15        67.90725
531.59        67.87444
532.03        67.82624
532.46        67.76051
532.90        67.70802
533.34        67.66899
533.78        67.64821
534.22        67.63627
534.66        67.61488
535.09        67.57549
535.53        67.53506
535.97        67.50656
536.41        67.52638
536.85        67.59467
537.28        67.69044
537.72        67.77332
538.16        67.77477
538.60         67.6821
539.04        67.52374
539.47        67.32586
539.91        67.18385
540.35        67.10266
540.79        67.07201
541.22        67.07401
541.66        67.09092
542.10        67.10885
542.54        67.13901
542.97         67.1758
543.41         67.2283
543.85          67.286
544.29        67.35461
544.72        67.39213
545.16          67.374
545.60        67.29404
546.04         67.1338
546.47         66.9621
546.91         66.9938
547.35        67.20339
547.79        67.33591
548.22        67.32194
548.66        67.41436
549.10         67.6097
549.53        67.56047
549.97        67.19315
550.41        67.76264
550.84        67.24899
551.28        67.20171
551.72        67.03414
552.15        67.16049
552.59        67.14939
553.03        67.11398
553.46        66.98784
553.90        66.99154
554.34        67.11576
554.77          67.303
555.21        67.47458
555.65        67.40119
556.08        67.12949
556.52        67.00212
556.96        67.04512
557.39        67.13678
557.83        67.26247
558.27        67.35762
558.70        67.43404
559.14        67.59772
559.57        67.77562
560.01        67.89012
560.45        67.90553
560.88        67.57688
561.32        67.34637
561.75        67.23835
562.19        67.34052
562.63        67.33601
563.06        67.21249
563.50        67.15099
563.93        67.14628
564.37        67.22568
564.80        67.36716
565.24        67.33575
565.68         67.1713
566.11        67.13016
566.55        67.23374
566.98        67.28106
567.42        67.32971
567.85        67.34838
568.29        67.32775
568.72        67.52681
569.16        68.04079
569.60        67.39986
570.03        67.65723
570.47        67.92688
570.90        67.79978
571.34        67.51918
571.77         67.7613
572.21        67.83624
572.64         67.9373
573.08        67.79907
573.51        67.53606
573.95        67.52282
574.38        68.11614
574.82        68.01357
575.25        67.66649
575.69         67.6151
576.12        67.22084
576.56        67.18084
576.99        67.43348
577.42        67.29542
577.86        67.19786
578.29         67.3138
578.73        68.31443
579.16        67.40556
579.60        67.67768
580.03        67.20464
580.47        67.85769
580.90         68.0639
581.33        67.17725
581.77        67.39769
582.20        67.71483
582.64        68.23144
583.07        67.29908
583.51        67.01998
583.94        67.20288
584.37        67.06219
584.81        66.88288
585.24        66.74718
585.68         67.6223
586.11        68.23415
586.54        67.41975
586.98        66.83138
587.41        67.82674
587.85        68.03834
588.28        67.87701
588.71        68.24277
589.15        67.47813
589.58        67.69235
590.01        66.82143
590.45        67.03983
590.88        67.37604
591.31        67.76687
591.75        67.76127
592.18        67.84933
592.61        68.31158
593.05        66.67384
593.48        67.38474
593.91        68.24628
594.35        67.02361
594.78         66.8489
595.21        66.58981
595.65        67.46091
596.08        66.82738
596.51        66.73199
596.94        67.22996
597.38        67.19324
597.81        67.16884
598.24        67.50732
598.68        67.15012
599.11        66.24131
599.54        67.57018
599.97        67.97323
600.41        66.38628
600.84        66.92837
601.27        66.74337
601.70        67.18389
602.14        67.38457
602.57        67.11289
603.00        66.50948
603.43        66.39403
603.87        66.59361
604.30        67.03219
604.73        66.78488
605.16        66.75761
605.60        66.91262
606.03        66.97726
606.46        66.94088
606.89         67.0855
607.32        66.95769
607.76        66.96677
608.19        67.03077
608.62        66.92206
609.05        66.67917
609.48        67.16451
609.92        67.03607
610.35        67.26249
610.78        67.46001
611.21        66.82159
611.64        66.66631
612.07        66.63529
612.50        67.09077
612.94        66.87399
613.37        67.27168
613.80         66.8279
614.23        67.23228
614.66        67.21908
615.09        67.17227
615.52        67.15233
615.96        67.13696
616.39        66.97066
616.82        66.66479
617.25        66.67696
617.68        66.49123
618.11        66.54646
618.54        66.61729
618.97        66.58158
619.40        66.49658
619.84         66.2869
620.27         66.5027
620.70        66.68931
621.13        66.92999
621.56        66.70544
621.99         66.3792
622.42        66.50019
622.85          66.519
623.28        66.51334
623.71        66.97369
624.14        66.19005
624.57        66.86182
625.00        66.76196
625.43        66.64475
625.86        66.46066
626.29        66.27838
626.72        66.25841
627.15        66.23309
627.58        66.39579
628.01        66.59063
628.44        66.56432
628.87         66.4178
629.30        66.19427
629.73        66.69496
630.16        66.84251
630.59         66.5533
631.02        66.52477
631.45        66.40812
631.88         66.3578
632.31        66.28588
632.74        66.24065
633.17        66.21097
633.60        66.17703
634.03        66.13838
634.46        66.08858
634.89         66.0434
635.32        66.04012
635.75        66.08009
636.18        66.13719
636.61        66.19478
637.04        66.24126
637.47        66.28471
637.89        66.29214
638.32        66.21915
638.75        66.19534
639.18         66.2578
639.61        65.72802
640.04        65.85295
640.47        65.77254
640.90         65.8577
641.33        66.06277
641.76        66.30487
642.18        66.42289
642.61        66.34392
643.04        66.12995
643.47        65.89722
643.90         65.8116
644.33        65.90651
644.76        66.21327
645.18        66.58614
645.61        66.60577
646.04        66.16796
646.47        66.10048
646.90        66.34549
647.33        66.36587
647.75          66.145
648.18        66.02489
648.61        66.02039
649.04        65.99484
649.47         65.9604
649.89        65.98235
650.32        66.01111
650.75        66.07282
651.18        66.16458
651.61        66.08252
652.03        65.92924
652.46        66.24385
652.89        66.78947
653.32        66.77929
653.74        66.35585
654.17        65.96124
654.60        65.26982
655.03        67.16867
655.46        65.39478
655.88        66.52788
656.31        68.06799
656.74        69.63661
657.16        69.40945
657.59        67.37537
658.02        65.96319
658.45        67.07388
658.87         66.8444
659.30        66.35475
659.73        66.89838
660.15        66.69269
660.58        66.88288
661.01        66.59438
661.44         66.1268
661.86        65.85356
662.29         65.8124
662.72        65.99262
663.14        66.26879
663.57        66.12938
664.00        65.69369
664.42        65.59808
664.85        65.88637
665.27        66.14081
665.70        66.26848
666.13        66.35917
666.55         66.3941
666.98        66.33041
667.41        66.20753
667.83        66.09495
668.26        66.01205
668.69        65.95616
669.11         65.9268
669.54        65.92735
669.96        65.95389
670.39        65.99894
670.82        66.05703
671.24        66.12839
671.67        66.19054
672.09        66.23552
672.52        66.26144
672.94        66.32602
673.37        65.91935
673.80        66.22273
674.22        65.80326
674.65        65.84135
675.07        65.97202
675.50        66.18738
675.92         66.4222
676.35        66.56068
676.77        66.58829
677.20        66.51532
677.62        66.40189
678.05         66.3467
678.47         66.3688
678.90        66.44069
679.32        66.50611
679.75        66.48875
680.17        66.37075
680.60        66.19901
681.02        66.02219
681.45        65.91985
681.87        65.91703
682.30        65.96483
682.72        66.06472
683.15        66.17738
683.57        66.30757
684.00        66.46894
684.42        66.60908
684.85        66.68359
685.27        66.68643
685.70        66.50262
686.12        66.25924
686.54        66.50918
686.97        67.12177
687.39         67.3642
687.82        67.14206
688.24        67.03313
688.66        67.04765
689.09        66.63174
689.51        66.26399
689.94        66.00839
690.36        66.01894
690.78        66.18441
691.21        66.42434
691.63        66.60245
692.06        66.66882
692.48        66.68607
692.90        66.66497
693.33        66.61118
693.75        66.53902
694.17        66.42946
694.60        66.33382
695.02        66.31541
695.44         66.3744
695.87        66.62215
696.29         66.9559
696.71        66.85997
697.14        66.45435
697.56        66.47798
697.98        66.89375
698.41        67.04884
698.83        66.91539
699.25        66.88457
699.68        66.94246
700.10        66.93355
700.52        66.84135
700.94        66.72506
701.37        66.60419
701.79        66.52504
702.21        66.49225
702.64        66.50101
703.06        66.53867
703.48        66.59814
703.90        66.67416
704.33        66.77666
704.75        66.86879
705.17        66.96039
705.59        67.02558
706.01        67.06561
706.44        67.08829
706.86        67.11026
707.28        67.13428
707.70        67.16737
708.12        67.21568
708.55        67.25998
708.97        67.30562
709.39         67.3756
709.81        67.47353
710.23        67.59293
710.66        67.71986
711.08        67.87505
711.50        68.00752
711.92        68.06455
712.34        68.03922
712.76        67.94788
713.19        67.81915
713.61         67.7494
714.03        67.74518
714.45        67.78922
714.87        67.86253
715.29        67.93209
715.71         67.9838
716.13        68.02506
716.56        68.03616
716.98         68.0692
717.40        68.09995
717.82         68.1208
718.24        68.12474
718.66        68.10559
719.08        68.06234
719.50         67.9964
719.92        67.92435
720.34        67.86942
720.76        67.83902
721.19        67.82706
721.61        67.82035
722.03        67.77068
722.45        67.66988
722.87        67.52497
723.29        67.39002
723.71        67.35185
724.13        67.42509
724.55        67.58747
724.97        67.75377
725.39         67.7822
725.81        67.65161
726.23        67.41698
726.65        67.18444
727.07        67.12392
727.49        67.27107
727.91        67.55617
728.33         67.9045
728.75        68.19077
729.17        68.36051
729.59        68.45348
730.01        68.44926
730.43        68.31497
730.85        68.07722
731.27        67.76398
731.69        67.48273
732.10        67.40603
732.52        67.56469
732.94        67.90717
733.36        68.34801
733.78         68.7122
734.20        68.92316
734.62        69.04461
735.04        69.08561
735.46         68.9991
735.88        68.84162
736.30        68.76858
736.72        68.76535
737.13        68.69418
737.55        68.50292
737.97        68.26543
738.39        68.05119
738.81         67.9013
739.23        67.87116
739.65        68.10793
740.06        68.45491
740.48        68.56936
740.90        68.39529
741.32        68.09579
741.74        67.79966
742.16        67.68348
742.57        67.81109
742.99        68.07162
743.41        68.37889
743.83         68.6567
744.25        68.82404
744.67        68.76173
745.08        68.53417
745.50        68.38269
745.92        68.35949
746.34         68.3333
746.75        68.31249
747.17        68.36125
747.59        68.47545
748.01        68.64719
748.42        68.83136
748.84        68.92008
749.26        68.90083
749.68        68.79508
750.09        68.65562
750.51        68.60413
750.93        68.65063
751.35        68.76254
751.76        68.88548
752.18        68.92318
752.60        68.85448
753.01         68.7242
753.43        68.56398
753.85        68.45602
754.27        68.43659
754.68        68.50363
755.10        68.62222
755.52        68.73685
755.93        68.81129
756.35        68.83846
756.77        68.89137
757.18        69.02219
757.60         69.2312
758.02        69.68821
758.43        70.16843
758.85        69.88982
759.26        69.03224
759.68        68.68239
760.10          68.923
760.51        69.08197
760.93        69.10829
761.34        69.30492
761.76        69.56785
762.18        69.66467
762.59         69.5611
763.01        69.15058
763.42        68.60947
763.84        68.33026
764.26        68.39655
764.67        68.54251
765.09        68.73383
765.50        69.09204
765.92        69.49915
766.33        69.56011
766.75         69.2416
767.16        69.12946
767.58        69.23903
768.00        69.13864
768.41        68.89452
768.83        69.06803
769.24        69.49246
769.66        69.43154
770.07        68.94803
770.49        68.63369
770.90        68.61572
771.32        68.92796
771.73        69.44061
772.15        69.61401
772.56        69.39366
772.97        69.32282
773.39        69.03071
773.80        69.05492
774.22        69.25795
774.63        69.65397
775.05        70.05521
775.46        70.25455
775.88        70.16627
776.29        69.89064
776.70        69.53538
777.12        69.30128
777.53        69.25502
777.95        69.31644
778.36        69.45758
778.77        69.61915
779.19        69.77753
779.60        70.00048
780.02        70.20365
780.43        70.35456
780.84        70.44477
781.26        70.26286
781.67        69.98827
782.09        70.41218
782.50        71.31738
782.91        71.42516
783.33        70.72746
783.74         70.3208
784.15        70.25613
784.57        69.90015
784.98        69.35855
785.39        69.12651
785.81        69.26106
786.22        69.61611
786.63        70.10907
787.04        70.60275
787.46        71.03112
787.87        71.40334
788.28        71.69691
788.70         71.8671
789.11        71.90553
789.52        71.83961
789.93        71.69176
790.35        71.50177
790.76        71.30479
791.17        71.10371
791.58        70.96841
792.00        70.91364
792.41         70.9492
792.82        71.25433
793.23        71.70661
793.65        71.58893
794.06        71.10568
794.47        71.42491
794.88        72.32192
795.29        72.54388
795.71        72.00871
796.12        71.42035
796.53        71.00204
796.94        70.85658
797.35        71.08028
797.76        71.64467
798.18        72.30904
798.59        72.71996
799.00        72.75526
799.41        72.51619
799.82        72.14437
800.23        71.89256
800.64        71.84389
801.06         71.8864
801.47        72.01363
801.88        72.14014
802.29        72.22974
802.70        72.31941
803.11        72.38369
803.52        72.36472
803.93        72.26144
804.34        72.08369
804.75        71.89565
805.17        71.82083
805.58        71.91584
805.99        72.09023
806.40        72.28888
806.81        72.52343
807.22        72.71479
807.63        72.65147
808.04        72.40729
808.45        72.31734
808.86         72.4288
809.27        72.58313
809.68        72.69083
810.09        72.67266
810.50        72.50304
810.91         72.2112
811.32        71.93274
811.73        71.87796
812.14        72.09073
812.55        72.51512
812.96        72.98835
813.37        73.21008
813.78          73.098
814.19        72.75326
814.60        72.34609
815.01        72.12066
815.42        72.13553
815.83        72.31498
816.24        72.57523
816.65        72.75399
817.05        72.78678
817.46         72.6964
817.87        72.55465
818.28        72.40525
818.69        72.27524
819.10        72.15309
819.51        72.06216
819.92        72.05428
820.33        72.13723
820.74        72.28565
821.14        72.48531
821.55        72.71874
821.96        72.96238
822.37        73.22694
822.78        73.43169
823.19        73.44118
823.60         73.2276
824.00         72.8176
824.41        72.36797
824.82        72.15852
825.23         72.2446
825.64        72.57214
826.04        72.95002
826.45        72.95706
826.86        72.52911
827.27        71.80091
827.68        71.05212
828.08        70.74374
828.49        70.94403
828.90        71.55222
829.31        72.35072
829.72        72.95775
830.12        73.26997
830.53        73.31362
830.94        73.26124
831.35        73.36433
831.75         73.7102
832.16        74.12711
832.57        74.50581
832.97        74.63679
833.38        74.47435
833.79        74.15813
834.20        73.76878
834.60        73.39086
835.01        73.10222
835.42        72.84502
835.82        72.75687
836.23        72.99722
836.64         73.5899
837.04        74.51653
837.45        75.39373
837.86        75.72876
838.26        75.39836
838.67        74.55568
839.08        73.55389
839.48        72.93113
839.89         72.8691
840.29        73.20003
840.70        73.72422
841.11         74.1292
841.51        74.32928
841.92        74.38945
842.33        74.39304
842.73        74.45441
843.14        74.56139
843.54        74.69391
843.95        74.81466
844.35        74.94402
844.76        75.04951
845.17        75.11388
845.57        75.15728
845.98         75.1711
846.38        75.17074
846.79        75.16264
847.19        75.05856
847.60         74.6664
848.00        74.00985
848.41         73.1799
848.81        72.45438
849.22        72.23968
849.62        72.63826
850.03        73.48196
850.43        74.53974
850.84        75.18179
851.24         75.2707
851.65        74.87905
852.05        74.24941
852.46        73.74509
852.86        73.48454
853.27        73.42083
853.67        73.38718
854.07        73.35004
854.48        73.23609
854.88        73.10532
855.29          72.943
855.69        72.91628
856.10         72.9565
856.50         73.1123
856.90        73.20647
857.31        73.02393
857.71        72.58818
858.12        71.94265
858.52        71.32787
858.92        71.08689
859.33        71.28724
859.73        71.86584
860.13        72.61242
860.54        73.18729
860.94        73.52355
861.34        73.62917
861.75         73.5272
862.15        73.33073
862.55        73.05892
862.96        72.70489
863.36        72.24835
863.76        71.68702
864.17        71.07029
864.57        70.45885
864.97        69.95452
865.38        69.64832
865.78         69.5799
866.18         69.6874
866.58        69.93716
866.99        70.23235
867.39        70.57043
867.79        70.95036
868.19        71.23077
868.60        71.20411
869.00        70.85925
869.40        70.22149
869.80        69.64207
870.21        69.72006
870.61        70.59351
871.01        72.02359
871.41        73.42712
871.81        73.88258
872.22        73.18732
872.62        71.63609
873.02        69.79447
873.42        68.60964
873.82        68.38374
874.22        68.87954
874.63        69.69508
875.03         70.2019
875.43        70.22614
875.83        69.94959
876.23        69.70213
876.63         70.0106
877.03        70.95979
877.44        72.28127
877.84        73.56081
878.24        74.05672
878.64        73.62766
879.04        72.58196
879.44        71.35982
879.84        70.59586
880.24         70.4443
880.64        70.67586
881.04        71.16402
881.44        71.69371
881.84        72.15041
882.24        72.63741
882.65        72.92658
883.05        72.75649
883.45         72.0714
883.85        70.99915
884.25        69.98118
884.65        69.69651
885.05        70.25768
885.45        71.42505
885.85        72.83479
886.25        73.84369
886.65        74.20144
887.05        74.09174
887.45        73.55106
887.85        72.67654
888.25        71.63795
888.65        70.48609
889.04        69.47856
889.44        69.02327
889.84        69.12234
890.24        69.71265
890.64         70.5967
891.04         71.3055
891.44        71.63292
891.84        71.68059
892.24        71.58361
892.64        71.56533
893.04        71.68245
893.44        71.83636
893.83        72.02232
894.23        72.17158
894.63        72.28518
895.03        72.40538
895.43         72.4845
895.83        72.43452
896.23        72.24802
896.63        71.93111
897.02        71.59853
897.42        71.50259
897.82        71.67318
898.22        72.08173
898.62        72.50832
899.01        72.59115
899.41        72.24986
899.81        71.59794
900.21        70.96238
900.61        70.85448
901.00        71.35369
901.40        72.27968
901.80        73.23081
902.20         73.5504
902.59        73.08148
902.99        72.05624
903.39        70.84481
903.79        69.99255
904.18        69.66059
904.58        69.72412
904.98        69.99953
905.38        70.21506
905.77        70.25494
906.17        70.18822
906.57        70.12698
906.96        70.26782
907.36        70.60332
907.76        71.08096
908.15        71.45284
908.55        71.20844
908.95        70.35456
909.34        69.08202
909.74        67.93473
910.14        67.60338
910.53        68.25999
910.93        69.62687
911.33        71.36013
911.72        72.90883
912.12          73.973
912.52         74.7065
912.91        75.13824
913.31         75.3203
913.70        75.31213
914.10        75.03107
914.49        74.57631
914.89        74.11636
915.29        73.72276
915.68        73.40753
916.08        73.18706
916.47        72.92151
916.87        72.63974
917.26        72.35342
917.66        72.15681
918.05        72.21897
918.45        72.51361
918.84        73.03099
919.24        73.52705
919.64        73.74013
920.03         73.6016
920.42        73.15985
920.82        72.64548
921.21        72.32105
921.61        72.26712
922.00        72.42046
922.40        72.63099
922.79         72.7332
923.19        72.64384
923.58        72.45383
923.98        72.24554
924.37        72.14986
924.77        72.19086
925.16        72.32191
925.55        72.47729
925.95        72.55927
926.34        72.55743
926.74        72.49324
927.13        72.39713
927.52        72.27895
927.92         72.1645
928.31        72.03438
928.70        71.92752
929.10          71.897
929.49        71.94449
929.89        72.01581
930.28        72.08907
930.67        72.04652
931.07        71.86471
931.46        71.62112
931.85        71.31977
932.24        70.96496
932.64        70.60537
933.03        70.26945
933.42        70.09409
933.82        70.29279
934.21        70.90092
934.60        71.76315
934.99        72.72859
935.39        73.52926
935.78        74.09981
936.17        74.47818
936.56        74.44586
936.96        73.71857
937.35        72.38081
937.74        70.63342
938.13        69.07134
938.53        68.44379
938.92        68.82454
939.31        70.05985
939.70        71.67016
940.09        72.68474
940.49        72.74352
940.88        72.10912
941.27        71.21266
941.66        70.72919
942.05        70.83089
942.44        71.33726
942.84        71.90046
943.23        72.00047
943.62        71.46207
944.01        70.49953
944.40        69.60458
944.79         69.4642
945.18        70.20128
945.57        71.61328
945.97        73.08794
946.36        73.80604
946.75        73.42326
947.14        72.20934
947.53        70.81051
947.92         70.2088
948.31        70.64643
948.70        71.86842
949.09        73.28989
949.48        73.86006
949.87        73.28372
950.26        71.91524
950.65        70.44237
951.04        69.80428
951.43        70.20164
951.82        71.38507
952.21        72.75861
952.60        73.25096
952.99        72.55965
953.38        71.03355
953.77        69.45116
954.16        68.83393
954.55        69.38123
954.94        70.90324
955.33        72.65327
955.72        73.06059
956.11        71.67091
956.50        69.06931
956.89        66.53704
957.28        65.73048
957.66        66.97265
958.05        69.72633
958.44         72.9839
958.83         74.6703
959.22        74.08206
959.61        71.95943
960.00        69.40636
960.39         67.8175
960.78        67.47565
961.16         67.9697
961.55        68.82747
961.94        69.22601
962.33        68.86623
962.72        68.15656
963.11        67.39651
963.49        66.92683
963.88        66.84938
964.27        66.99994
964.66        67.38911
965.04        68.12338
965.43        69.06999
965.82        70.20473
966.21        71.28748
966.60        71.86113
966.98        71.82541
967.37        71.36404
967.76        70.66297
968.15        69.97942
968.53         69.3851
968.92        68.73116
969.31        68.27152
969.69        68.49088
970.08        69.42248
970.47        71.10467
970.86         72.7251
971.24        72.86954
971.63         71.2705
972.02        68.42594
972.40         65.6685
972.79        65.06046
973.17        66.92944
973.56        70.51384
973.95        74.57893
974.33        76.79957
974.72        76.35964
975.11        74.04512
975.49        70.97057
975.88        69.16535
976.26        69.18527
976.65        70.38731
977.04        72.21369
977.42        73.64867
977.81        74.12581
978.19        74.08605
978.58        73.74005
978.96        73.27507
979.35        72.86419
979.74         72.3999
980.12        72.01312
980.51        71.94248
980.89        72.29108
981.28        72.86051
981.66        73.70504
982.05        74.58697
982.43        75.49895
982.82        76.43826
983.20        77.02821
983.59        76.53571
983.97        74.94714
984.35        72.54623
984.74         70.3512
985.12        69.75956
985.51        70.93246
985.89        73.54624
986.28         76.4645
986.66        78.13992
987.04        77.90777
987.43        76.21214
987.81        73.79237
988.20        72.25694
988.58        72.03244
988.96        72.75785
989.35        73.43908
989.73        72.70065
990.12        70.22813
990.50        66.66744
990.88         63.1362
991.27        61.38434
991.65         61.7763
992.03        63.76247
992.42        66.46266
992.80        68.83598
993.18        70.40525
993.56        71.47945
993.95        72.08443
994.33        72.44325
994.71        72.59623
995.10        72.48519
995.48        72.28406
995.86        72.39935
996.24        72.93078
996.63        73.71317
997.01        74.80163
997.39        75.98951
997.77        77.08215
998.15        78.09722
998.54         78.6614
998.92        78.23775
999.30        76.76066
999.68        74.38646
1000.06         71.7883
1000.45        70.23132
1000.83        70.23948
1001.21        71.55264
1001.59        73.60545
1001.97        75.37354
1002.35        76.47064
1002.73         77.1057
1003.12        77.44456
1003.50        77.70283
1003.88        77.99525
1004.26        78.20639
1004.64        78.22576
1005.02        77.94191
1005.40        77.39369
1005.78         76.7071
1006.16        76.14866
1006.54         76.0442
1006.92        76.43639
1007.30        77.24496
1007.69        78.15265
1008.07        78.61373
1008.45        78.31738
1008.83         77.3829
1009.21        76.10457
1009.59        75.01411
1009.97        74.30938
1010.35        73.87146
1010.73        73.59515
1011.11        73.29342
1011.49        72.91563
1011.86        72.61813
1012.24        72.29796
1012.62        72.00237
1013.00        71.71842
1013.38        71.36728
1013.76        70.99516
1014.14        70.75658
1014.52        70.66125
1014.90        70.64709
1015.28        70.50103
1015.66        69.84957
1016.04        68.67132
1016.41        67.23709
1016.79        65.88436
1017.17        65.30999
1017.55        65.74805
1017.93        66.84303
1018.31        68.39518
1018.69        70.52525
1019.06        73.48923
1019.44        77.42832
1019.82        82.43095
1020.20        86.79831
1020.58        88.55472
1020.95        87.65829
1021.33        84.92468
1021.71        81.12529
1022.09          76.187
1022.46        69.20609
1022.84        61.10974
1023.22        55.47504
1023.60        54.83517
1023.97        58.32957
1024.35        62.99308
1024.73        65.69904
