SpectraSmart Spectrum 2.9.0.0
--------- Device Information -----------
Spectrum Name :  反射率_0
Saving Time :  2024/04/30 00:32:11
Spectro-Module Model Name : SE2030-DUVN
Spectro-Module Serial Number : OS361AC55029948
Wavelength Start : 200
Wavelength End : 1025
Wavelength Unit : Wavelength(nm)
Spectrum Unit : Reflectance(%)
-----------Spectrum Setting ------------
Integration Time : 20ms
Average : 10
Boxcar : 0
Background removal :  enabled
linearity correction :  enabled
SC :  disabled
Intensity correction :  disabled
DWT denoise :  enabled
savitzky-golay :  disabled
FFT :  disabled
Running average :  disabled
Kalman :  disabled
High pass :  disabled
---------------BEGIN--------------------
Wavelength(nm)             Reflectance(%)
200.29               0
200.75        106.8855
201.21        87.34226
201.67        67.58739
202.13        53.56704
202.58        48.46404
203.04        50.88677
203.50        62.09358
203.96        83.17285
204.42        111.0909
204.88        142.3756
205.34        163.3906
205.80        158.0089
206.26        132.7597
206.72        101.5518
207.18        74.94041
207.64        58.10416
208.10        48.83754
208.55        43.55042
209.01        41.58282
209.47         43.0902
209.93        47.00278
210.39        52.72503
210.85        57.64479
211.31        59.66644
211.77        58.78917
212.23        54.43848
212.69        47.88336
213.14        46.35562
213.60        52.16633
214.06        61.45258
214.52         68.6578
214.98        70.19431
215.44        66.93233
215.90        60.26967
216.36        53.15817
216.81         51.3571
217.27        57.87735
217.73        73.25543
218.19         95.4508
218.65         110.707
219.11        109.8043
219.57        98.03492
220.02        85.66498
220.48        80.33918
220.94        81.20308
221.40        86.06531
221.86        92.07477
222.32        91.03596
222.77        81.70462
223.23        71.55293
223.69        63.62151
224.15        58.22812
224.61        54.37635
225.06        50.89585
225.52        48.72138
225.98        49.87444
226.44        53.75622
226.90        58.44495
227.36        62.00432
227.81        63.21302
228.27        62.41048
228.73        59.94207
229.19        56.48835
229.65        53.87336
230.10        52.87513
230.56        52.97239
231.02        53.25487
231.48        52.84577
231.93         51.5821
232.39        49.83659
232.85        48.04812
233.31        47.10749
233.77        47.31337
234.22        48.50664
234.68        49.98092
235.14        50.50195
235.60        49.80495
236.05        48.32458
236.51        47.08991
236.97        47.44665
237.43        49.80452
237.88        54.30293
238.34        60.35665
238.80        65.76852
239.26         68.5166
239.71        68.79269
240.17        67.56993
240.63        66.96844
241.08        67.94811
241.54        70.35657
242.00        75.26641
242.46        83.07263
242.91        92.13342
243.37         100.045
243.83          105.84
244.28        111.3116
244.74        117.6353
245.20        123.6688
245.66        129.6901
246.11        136.0762
246.57          141.97
247.03        149.1787
247.48        152.2868
247.94        141.2596
248.40         121.556
248.85        101.5868
249.31        89.14897
249.77        86.62473
250.22        93.07452
250.68        109.5081
251.14        135.8454
251.59        151.5903
252.05        141.3758
252.51        120.9741
252.96        104.2396
253.42        95.76902
253.88        92.32253
254.33         90.9736
254.79        90.39965
255.25        88.50912
255.70          85.205
256.16        82.26995
256.62         80.0613
257.07        78.47224
257.53        77.55821
257.99        76.77929
258.44        75.26441
258.90        72.87857
259.35         69.6755
259.81        66.63644
260.27        64.19511
260.72          62.685
261.18        62.06094
261.63        61.70279
262.09        61.29809
262.55        60.13621
263.00        58.22787
263.46        56.15478
263.91        54.10201
264.37        52.56801
264.83         51.4719
265.28        50.57147
265.74         49.8933
266.19        49.26657
266.65         48.7084
267.11        48.21208
267.56        47.68027
268.02        46.96689
268.47        46.01003
268.93        44.84197
269.38        43.55204
269.84        42.43296
270.30        41.57136
270.75        40.93056
271.21        40.37878
271.66        39.66626
272.12        38.74775
272.57        37.66359
273.03        36.62457
273.48        35.87539
273.94        35.50837
274.39        35.37295
274.85        35.27306
275.31        34.86198
275.76        34.07504
276.22        33.06723
276.67        32.02803
277.13        31.32572
277.58        30.96631
278.04        30.86207
278.49        30.76002
278.95        30.39802
279.40        29.69534
279.86        28.83917
280.31        27.96824
280.77        27.40096
281.22        27.15369
281.68        27.13613
282.13        27.21426
282.59        27.25766
283.04        27.19743
283.50        27.07916
283.95        26.88824
284.41        26.61199
284.86        26.26186
285.32        25.89371
285.77        25.52183
286.22        25.24242
286.68        25.08702
287.13         24.9915
287.59        25.00116
288.04        25.12114
288.50        25.34073
288.95        25.61254
289.41         25.8425
289.86        25.84994
290.32         25.6497
290.77        25.31786
291.22        24.99054
291.68         24.8799
292.13        25.04076
292.59        25.42972
293.04        26.04383
293.50        26.90705
293.95        27.98818
294.40        29.28684
294.86        30.64984
295.31        31.84363
295.77        32.81721
296.22        33.62049
296.68        34.43706
297.13        35.54015
297.58        36.99965
298.04        38.70053
298.49         40.4817
298.95        42.09755
299.40        43.47711
299.85        44.70691
300.31        45.90289
300.76        47.16655
301.21        48.56873
301.67        50.09043
302.12        51.66309
302.58        53.33329
303.03         55.0667
303.48        56.79008
303.94        58.52714
304.39         60.6902
304.84        62.56883
305.30        64.69633
305.75        66.75333
306.20        68.64806
306.66        70.36189
307.11        71.88068
307.57        73.30614
308.02        74.67721
308.47        76.06458
308.93        77.46159
309.38        78.84657
309.83        80.25948
310.29        81.69049
310.74        83.10931
311.19        84.44238
311.65        85.56036
312.10        86.43311
312.55        87.12708
313.00        87.77593
313.46        88.59441
313.91        89.61427
314.36          90.769
314.82        91.95291
315.27        93.02148
315.72        93.89296
316.18        94.60793
316.63        95.15278
317.08        95.52122
317.53        95.75258
317.99        95.89256
318.44        96.00137
318.89        96.19177
319.35         96.5051
319.80        96.91864
320.25         97.4831
320.70        98.26923
321.16         99.2245
321.61        100.3473
322.06        101.4063
322.51        102.0388
322.97        102.1542
323.42        101.8652
323.87        101.3983
324.32        101.1516
324.78        101.2274
325.23         101.588
325.68        102.0984
326.13        102.5233
326.59        102.7647
327.04        102.9333
327.49        103.1088
327.94        103.4602
328.39        104.0157
328.85        104.6558
329.30        105.3063
329.75        105.6556
330.20        105.6367
330.66        105.3435
331.11        104.9998
331.56        104.8886
332.01        105.1228
332.46        105.6418
332.92        106.3234
333.37        107.0979
333.82        107.8433
334.27        108.5713
334.72        109.2939
335.17        110.0364
335.63        110.7632
336.08        111.5068
336.53         112.119
336.98        112.4379
337.43        112.4508
337.88        112.2195
338.34        111.9774
338.79        112.1109
339.24        112.7012
339.69        113.6677
340.14        114.7418
340.59        115.4551
341.05        115.6966
341.50        115.6115
341.95        115.4619
342.40        115.6869
342.85        116.3757
343.30        117.3397
343.75        118.3626
344.20        119.1075
344.66        119.4866
345.11        119.6414
345.56        119.6127
346.01        119.4519
346.46        119.2376
346.91         118.957
347.36        118.8301
347.81        119.1979
348.26        120.0828
348.72        121.3578
349.17        122.7061
349.62        123.5045
350.07        123.5896
350.52        123.1625
350.97        122.5205
351.42         122.133
351.87        122.1404
352.32        122.3875
352.77        122.8026
353.22        123.2766
353.67        123.7204
354.13        124.1465
354.58        124.4376
355.03        124.3879
355.48        123.9596
355.93        123.2072
356.38        122.2519
356.83        121.2935
357.28        120.4112
357.73        119.5831
358.18        118.8153
358.63        118.1018
359.08        117.4367
359.53        116.8355
359.98        116.2825
360.43        115.7381
360.88        115.1903
361.33        114.6443
361.78        114.0872
362.23        113.5088
362.68         112.907
363.13        112.2724
363.58        111.6431
364.03        111.0826
364.48         110.593
364.93        110.1517
365.38        109.6836
365.83        109.0701
366.28        108.2984
366.73          107.42
367.18        106.5227
367.63        105.7409
368.08        105.1037
368.53        104.5619
368.98        104.0761
369.43        103.5752
369.88        103.0427
370.33        102.5303
370.78        102.0053
371.23        101.4158
371.68        100.7612
372.13        100.0203
372.58        99.34248
373.03        98.97385
373.48        98.92712
373.93        99.11794
374.38        99.23754
374.83        98.78378
375.28        97.68793
375.72        96.12923
376.17        94.55533
376.62        93.45319
377.07        92.92873
377.52        92.80542
377.97        92.89614
378.42        92.89481
378.87        92.68824
379.32        92.37611
379.77        91.97706
380.22        91.50705
380.67         90.9801
381.11        90.36449
381.56        89.71772
382.01        89.17421
382.46        88.77802
382.91        88.52398
383.36        88.32043
383.81        88.01032
384.26        87.55953
384.71        87.00256
385.15        86.44762
385.60        86.12611
386.05        86.04453
386.50        86.12681
386.95        86.19098
387.40        85.96207
387.85        85.41096
388.29         84.6091
388.74        83.85603
389.19        83.33847
389.64         83.0926
390.09        83.01569
390.54        83.02261
390.98        82.96185
391.43        82.82011
391.88        82.63283
392.33        82.36063
392.78        82.02162
393.23        81.64426
393.67        81.05282
394.12        80.40011
394.57        80.44225
395.02        80.03059
395.47        80.06412
395.91        80.12836
396.36        80.08315
396.81        79.89491
397.26        79.61731
397.71        79.32231
398.15        79.01556
398.60        78.80032
399.05        78.70634
399.50        78.66049
399.95        78.44595
400.39        77.86628
400.84        77.96391
401.29         78.5128
401.74        78.61643
402.18        78.18097
402.63        77.61567
403.08        77.12571
403.53        76.86322
403.97        76.85961
404.42        77.00915
404.87        77.18925
405.32        77.16617
405.76        76.87039
406.21        76.61319
406.66        76.37073
407.11        75.70583
407.55        74.90348
408.00        74.82668
408.45          75.437
408.90         76.0696
409.34        76.42667
409.79        76.18643
410.24        75.57436
410.68        75.45893
411.13        75.90165
411.58        76.34688
412.03          76.612
412.47        76.67393
412.92        76.45464
413.37        76.01589
413.81        75.47411
414.26        75.08767
414.71        74.88221
415.15         74.8017
415.60        74.81937
416.05        74.93285
416.49        75.12305
416.94        75.40323
417.39        75.65555
417.83        75.66629
418.28         75.4155
418.73        74.95955
419.17        74.51031
419.62        74.42912
420.07        74.75325
420.51        75.32996
420.96        75.95339
421.41        76.18416
421.85        75.90721
422.30        75.55258
422.74        75.15311
423.19        74.42361
423.64        73.60813
424.08        73.66653
424.53        74.47649
424.98        74.95234
425.42        74.96791
425.87         75.2354
426.31        75.66865
426.76        75.54319
427.21        74.82553
427.65        74.67789
428.10        74.96764
428.54        74.81159
428.99        74.28276
429.44        73.84283
429.88        73.65026
430.33        73.88079
430.77        74.35989
431.22        74.99043
431.66        75.58274
432.11        75.42735
432.56        74.59464
433.00        74.32284
433.45        74.98983
433.89        74.68726
434.34        75.07924
434.78        77.13929
435.23         74.8708
435.67         74.3441
436.12         73.9349
436.57        74.06223
437.01        74.58385
437.46        74.85201
437.90        74.87817
438.35        75.19614
438.79         75.7365
439.24        75.93814
439.68        75.81944
440.13        75.80614
440.57        75.94001
441.02        76.01548
441.46        76.00375
441.91        76.11286
442.35        76.19688
442.80        76.14481
443.24         76.0734
443.69         75.7691
444.13        75.38148
444.58        75.16946
445.02        75.11265
445.47        75.17409
445.91        75.30265
446.36        75.37825
446.80        75.33707
447.24        75.60561
447.69        75.50047
448.13        75.56159
448.58        75.60935
449.02        75.60949
449.47        75.59058
449.91        75.70869
450.36        75.77387
450.80        75.92564
451.25        76.08189
451.69        76.17638
452.13        76.19958
452.58        76.20444
453.02        76.20512
453.47        76.19796
453.91        76.16068
454.36        76.28763
454.80        76.22463
455.24        76.24426
455.69        76.23544
456.13        76.34433
456.58         76.4933
457.02        76.13659
457.46        75.46503
457.91        75.34074
458.35        75.66992
458.79        75.71304
459.24         75.4846
459.68        75.43463
460.13        75.55939
460.57        75.43803
461.01        75.63739
461.46        75.36992
461.90        74.79212
462.34        75.63763
462.79        75.45358
463.23        75.47136
463.68         75.0225
464.12        74.77619
464.56        74.74012
465.01        74.55077
465.45        74.25205
465.89        74.19042
466.34        74.31423
466.78        74.66977
467.22        74.58952
467.67        74.49364
468.11        74.33496
468.55        74.06735
468.99        73.78538
469.44        73.53445
469.88        73.35075
470.32        73.26234
470.77        73.24274
471.21        73.24213
471.65        73.23306
472.10        73.25373
472.54        73.28299
472.98        73.32961
473.42        73.38193
473.87        73.42419
474.31        73.43314
474.75        73.40817
475.20        73.37702
475.64          73.369
476.08        73.37112
476.52        73.24238
476.97        72.97096
477.41        72.66382
477.85        72.55519
478.29        72.08042
478.74        73.23933
479.18        73.21863
479.62        72.69337
480.06        72.54595
480.50        72.80086
480.95        72.62884
481.39        73.22546
481.83        72.21617
482.27        73.28912
482.72        72.99893
483.16        73.05873
483.60        73.09618
484.04        73.36095
484.48        73.54399
484.93        73.44934
485.37        73.65755
485.81        72.88253
486.25        71.96591
486.69          73.064
487.14        72.59044
487.58        71.98711
488.02        72.48786
488.46        73.19009
488.90        73.06557
489.34        72.44247
489.79        73.47305
490.23         72.2288
490.67        72.12926
491.11        71.98931
491.55        71.91837
491.99        71.88154
492.43         71.8869
492.88        71.94717
493.32        72.11428
493.76        72.27782
494.20        72.45998
494.64          72.603
495.08        72.75993
495.52        72.90996
495.96        72.81998
496.41        72.51685
496.85        72.59519
497.29        72.60624
497.73        72.25161
498.17        72.24606
498.61        71.89986
499.05        71.56746
499.49        71.53214
499.93        71.73146
500.37        71.88827
500.82         72.0107
501.26        71.75504
501.70        72.20882
502.14        72.29663
502.58        72.32961
503.02        72.34435
503.46        72.35133
503.90        72.32219
504.34        72.26694
504.78        72.23934
505.22         72.2432
505.66        72.26767
506.10        72.29314
506.54        72.32021
506.98        72.34583
507.42        72.40197
507.86        72.10336
508.30         72.3981
508.74        71.87369
509.18        71.62378
509.62        71.35751
510.06        71.27467
510.50        71.39807
510.94        71.68986
511.38        72.02944
511.82        72.17609
512.26        72.07683
512.70        71.80477
513.14        71.49004
513.58         71.3348
514.02        71.38954
514.46        71.58714
514.90        71.83713
515.34        71.99574
515.78        72.01517
516.22        71.93863
516.66        71.82081
517.10        71.74174
517.54        71.72603
517.98        71.75027
518.42        71.76973
518.86        71.71866
519.30        71.58793
519.74        71.40464
520.18         71.2414
520.62        71.20253
521.06         71.3091
521.50        71.53458
521.93        71.79219
522.37        71.91493
522.81        71.87408
523.25        71.71011
523.69        71.53198
524.13         71.5117
524.57        71.67753
525.01        71.96409
525.45        72.25161
525.89        72.34675
526.32        72.19485
526.76        71.89291
527.20          71.535
527.64         71.2682
528.08        71.13912
528.52        71.10184
528.96        71.13316
529.40        71.19738
529.83         71.2663
530.27        71.35963
530.71        71.44527
531.15        71.47475
531.59        71.43991
532.03        71.35101
532.46        71.22931
532.90        71.14451
533.34        71.10877
533.78        71.11003
534.22        71.13963
534.66        71.18224
535.09        71.22238
535.53        71.27623
535.97        71.32845
536.41        71.36918
536.85        71.39163
537.28        71.38956
537.72         71.3589
538.16        71.29072
538.60        71.18742
539.04        71.05922
539.47        70.90909
539.91        70.79766
540.35        70.71923
540.79        70.67934
541.22        70.66405
541.66        70.66098
542.10        70.66154
542.54        70.67292
542.97        70.70244
543.41        70.78347
543.85        70.90421
544.29         71.0596
544.72        71.18161
545.16        71.20573
545.60        71.11739
546.04        70.91208
546.47        70.67527
546.91        70.65665
547.35        70.84004
547.79        70.94837
548.22        70.92201
548.66        71.05101
549.10          71.335
549.53        71.39252
549.97        71.10125
550.41        71.78294
550.84        71.28279
551.28        71.10564
551.72        70.68237
552.15        70.96427
552.59         70.9969
553.03        71.01149
553.46        70.78643
553.90         70.7418
554.34        70.86615
554.77        70.99795
555.21        71.09256
555.65        71.01188
556.08        70.81191
556.52        70.81527
556.96        71.00656
557.39        71.17952
557.83        71.29803
558.27        71.36243
558.70        71.37247
559.14        71.43687
559.57         71.5152
560.01        71.65125
560.45        71.77332
560.88        71.46468
561.32        71.17482
561.75        70.99864
562.19        71.05479
562.63        71.01439
563.06        70.87398
563.50        70.86474
563.93        70.94678
564.37        71.01855
564.80        71.04426
565.24        71.07095
565.68         71.0844
566.11        71.10899
566.55         71.1436
566.98        71.07199
567.42        71.00424
567.85        70.96174
568.29        70.94049
568.72        71.20881
569.16        71.84138
569.60        71.18185
570.03        71.37342
570.47        71.85466
570.90        71.47036
571.34        71.33147
571.77        71.52107
572.21        71.63187
572.64        71.73273
573.08        71.63963
573.51        71.46402
573.95        71.40307
574.38         71.7422
574.82        71.75687
575.25        71.71859
575.69         71.4131
576.12        70.78269
576.56        71.21066
576.99        71.14386
577.42        71.48991
577.86        71.12389
578.29        70.86478
578.73         71.7796
579.16        71.58974
579.60        71.50245
580.03        71.78483
580.47        71.96735
580.90        71.74393
581.33        71.13357
581.77        71.17401
582.20        71.45245
582.64        71.67667
583.07         71.0871
583.51        70.74167
583.94         70.7418
584.37        70.58419
584.81        70.52003
585.24        71.07916
585.68        71.42613
586.11        72.55551
586.54        71.18377
586.98        70.71518
587.41        71.51982
587.85        71.92514
588.28        71.69973
588.71        71.64402
589.15        71.29529
589.58        71.25703
590.01        70.87854
590.45        70.99559
590.88         71.4707
591.31        71.63223
591.75        71.39356
592.18        71.85967
592.61        71.74244
593.05        70.49136
593.48        71.41071
593.91        71.98396
594.35        70.95448
594.78        70.67971
595.21        70.51948
595.65        70.87019
596.08        70.51619
596.51        70.88092
596.94        71.38037
597.38        71.47826
597.81        71.38657
598.24        71.48891
598.68        71.07332
599.11        70.89087
599.54        71.40085
599.97         71.9798
600.41        70.65234
600.84        70.82854
601.27        70.94273
601.70        71.31036
602.14        71.60971
602.57        71.25737
603.00        70.64503
603.43        70.53619
603.87        70.77283
604.30        71.25024
604.73        70.89123
605.16        70.88268
605.60        70.89773
606.03        70.98557
606.46        71.06315
606.89        71.05836
607.32         70.9556
607.76        71.07487
608.19        71.06571
608.62        71.07853
609.05         71.0359
609.48        71.26775
609.92        71.20286
610.35        71.33879
610.78        71.09642
611.21        70.46062
611.64        70.91218
612.07        70.94303
612.50        70.88248
612.94        71.04767
613.37        71.50539
613.80        71.12008
614.23          71.673
614.66        71.63629
615.09        71.55826
615.52        71.40306
615.96        71.18544
616.39        71.34795
616.82        70.77001
617.25        71.15812
617.68        70.83633
618.11        71.02773
618.54        71.23427
618.97         71.1743
619.40        70.91548
619.84        70.81329
620.27        70.94424
620.70        71.16467
621.13        71.39787
621.56        71.12903
621.99        71.16132
622.42        70.72032
622.85        71.37562
623.28        71.01088
623.71        71.60671
624.14        70.62215
624.57        71.10505
625.00        70.99139
625.43        71.05689
625.86         70.8881
626.29        70.97761
626.72        71.08092
627.15        70.96456
627.58        71.05768
628.01         71.1982
628.44        70.96066
628.87        70.48067
629.30        70.54823
629.73        71.10081
630.16        71.31634
630.59        71.13533
631.02        71.18623
631.45         71.1751
631.88        71.17713
632.31        71.09686
632.74        71.05553
633.17        70.93535
633.60        70.84936
634.03        70.77185
634.46        70.69131
634.89        70.61697
635.32        70.57735
635.75        70.57404
636.18        70.58742
636.61        70.60853
637.04        70.63629
637.47        70.68173
637.89        70.70322
638.32        70.65054
638.75        70.65804
639.18        70.76147
639.61        70.23689
640.04        70.40645
640.47        70.33582
640.90        70.42059
641.33        70.61645
641.76        70.85313
642.18         70.9901
642.61        70.95512
643.04        70.80177
643.47        70.63311
643.90        70.59396
644.33        70.70749
644.76        71.01377
645.18         71.3663
645.61        71.32887
646.04        70.80336
646.47        70.68787
646.90        70.90997
647.33        70.87719
647.75        70.56782
648.18        70.34727
648.61        70.29029
649.04        70.29842
649.47        70.38043
649.89        70.71504
650.32        71.12116
650.75        71.09264
651.18        70.73746
651.61        70.61479
652.03        70.82891
652.46        71.26453
652.89        71.61954
653.32        71.53385
653.74        71.23189
654.17        70.44432
654.60        70.17691
655.03        72.14329
655.46        70.32394
655.88        71.55291
656.31        73.46071
656.74        73.73653
657.16        72.78496
657.59        70.73109
658.02         70.5043
658.45        71.90291
658.87        71.51839
659.30        70.99796
659.73        71.37513
660.15         71.8595
660.58          71.491
661.01        71.50383
661.44        71.48145
661.86        71.04511
662.29        70.38631
662.72        70.59627
663.14        71.49174
663.57         71.4087
664.00        70.48777
664.42        70.21264
664.85        70.64703
665.27        70.93606
665.70        70.98865
666.13        71.09031
666.55        71.22643
666.98        71.30617
667.41        71.32504
667.83        71.27604
668.26        71.15549
668.69        70.98383
669.11        70.81812
669.54        70.73188
669.96        70.74004
670.39        70.87118
670.82        71.04727
671.24        71.03238
671.67        70.84251
672.09        70.77101
672.52        70.85346
672.94         70.9846
673.37        70.62048
673.80        71.13708
674.22        70.93539
674.65        71.11102
675.07        71.23808
675.50        71.36113
675.92        71.45599
676.35        71.47441
676.77        71.43066
677.20        71.31322
677.62         71.1873
678.05        71.16042
678.47        71.24741
678.90        71.42374
679.32        71.60123
679.75        71.64941
680.17        71.53341
680.60        71.30448
681.02        71.05058
681.45         70.9091
681.87        70.91782
682.30        71.04435
682.72        71.23293
683.15        71.27473
683.57        71.19669
684.00        71.20769
684.42        71.30717
684.85        71.39457
685.27        71.47579
685.70        71.46987
686.12        71.44006
686.54        71.86021
686.97        72.53931
687.39        72.66619
687.82        72.22528
688.24        71.99566
688.66        72.01125
689.09        71.82255
689.51        71.47456
689.94        71.27228
690.36        71.24147
690.78        71.28204
691.21        71.36447
691.63        71.50168
692.06        71.63795
692.48        71.66056
692.90        71.58526
693.33        71.55143
693.75        71.57436
694.17        71.55963
694.60         71.5281
695.02        71.54258
695.44        71.59644
695.87        71.75703
696.29        71.97738
696.71        71.88059
697.14         71.6587
697.56        71.66857
697.98        71.92071
698.41        71.97012
698.83        71.82018
699.25        71.82479
699.68        71.94622
700.10        71.96323
700.52        71.84737
700.94         71.7179
701.37        71.59312
701.79        71.48376
702.21        71.39719
702.64        71.34256
703.06        71.33023
703.48        71.38943
703.90         71.5188
704.33        71.71301
704.75        71.90353
705.17        72.05064
705.59        72.11475
706.01        72.11598
706.44        72.07471
706.86        72.04642
707.28        72.04929
707.70        72.02909
708.12        72.01969
708.55        72.15827
708.97        72.39895
709.39        72.49548
709.81          72.457
710.23        72.53246
710.66        72.72119
711.08        72.88414
711.50         72.9825
711.92        73.06357
712.34        73.12399
712.76        73.15185
713.19        73.13349
713.61         73.0974
714.03        73.03484
714.45        72.95728
714.87        72.89639
715.29        72.89352
715.71        72.95374
716.13        73.06341
716.56        73.17162
716.98        73.28091
717.40        73.34473
717.82        73.37076
718.24        73.36329
718.66        73.33376
719.08        73.28832
719.50        73.22055
719.92        73.14437
720.34        73.08269
720.76        73.04163
721.19         73.0146
721.61        72.99477
722.03        72.93946
722.45        72.84191
722.87        72.71133
723.29        72.58556
723.71        72.52513
724.13        72.54233
724.55        72.62164
724.97        72.71394
725.39        72.73634
725.81        72.67634
726.23        72.56837
726.65        72.46736
727.07        72.46278
727.49        72.57082
727.91        72.74472
728.33        72.95602
728.75        73.15688
729.17        73.32009
729.59        73.46839
730.01        73.54453
730.43        73.45921
730.85        73.21716
731.27        72.84907
731.69        72.50985
732.10        72.44437
732.52        72.70166
732.94        73.22224
733.36        73.81767
733.78        74.17768
734.20         74.2076
734.62         73.9012
735.04        73.47623
735.46        73.47097
735.88        73.86548
736.30        74.11044
736.72        74.09341
737.13        74.07034
737.55        73.98568
737.97        73.66351
738.39        73.24408
738.81        73.05238
739.23        73.14213
739.65        73.43896
740.06        73.76964
740.48        73.92144
740.90        73.82728
741.32        73.56499
741.74         73.2662
742.16        73.15257
742.57        73.29076
742.99        73.57144
743.41        73.88966
743.83        74.10535
744.25        74.15376
744.67        74.01174
745.08        73.77393
745.50        73.64591
745.92        73.68545
746.34        73.79579
746.75        73.93659
747.17        74.07561
747.59        74.18839
748.01        74.28676
748.42        74.37325
748.84         74.4203
749.26        74.43506
749.68        74.41409
750.09        74.35311
750.51        74.28812
750.93        74.21653
751.35        74.14475
751.76        74.08616
752.18        74.04115
752.60        74.00053
753.01        74.01692
753.43        74.08854
753.85        74.09535
754.27        74.01128
754.68        74.45623
755.10        74.35809
755.52        74.49576
755.93        74.53477
756.35        74.47608
756.77        74.41389
757.18        74.49481
757.60        74.75299
758.02        75.19118
758.43        75.75793
758.85        75.48606
759.26        74.65847
759.68        74.11109
760.10        73.89974
760.51        74.80112
760.93        74.45334
761.34        74.74245
761.76        74.90243
762.18        75.08714
762.59        75.19964
763.01        74.73936
763.42        73.95609
763.84        73.61101
764.26        73.81721
764.67        74.12907
765.09        74.44356
765.50        74.81522
765.92        75.15694
766.33        75.09399
766.75        74.92384
767.16        74.79567
767.58        74.81064
768.00        74.71591
768.41          74.569
768.83        74.67654
769.24        74.94044
769.66        75.04193
770.07        74.95339
770.49        74.76463
770.90        74.59244
771.32        74.81378
771.73        75.33884
772.15        75.48434
772.56        75.20869
772.97        75.14774
773.39        74.88055
773.80        74.93741
774.22        75.15807
774.63         75.5737
775.05        75.98454
775.46        76.17358
775.88        76.04939
776.29        75.70729
776.70        75.27626
777.12        74.99532
777.53        74.94254
777.95        75.03722
778.36        75.20942
778.77        75.33112
779.19        75.36545
779.60         75.3905
780.02        75.40638
780.43        75.52483
780.84        75.75125
781.26        75.84105
781.67        75.85094
782.09        76.31039
782.50        77.01019
782.91        76.92931
783.33        76.14378
783.74        75.70417
784.15        75.69026
784.57        75.53824
784.98        75.27094
785.39        75.19276
785.81        75.32053
786.22         75.5652
786.63        75.90164
787.04        76.28144
787.46        76.66797
787.87        77.04147
788.28        77.34641
788.70        77.49124
789.11        77.45651
789.52        77.28922
789.93        77.05263
790.35        76.84789
790.76        76.72861
791.17        76.67691
791.58        76.70803
792.00          76.788
792.41        76.91559
792.82        77.16888
793.23        77.48587
793.65        77.53621
794.06        77.41014
794.47        77.62319
794.88        78.05418
795.29        78.11295
795.71        77.74565
796.12        77.30562
796.53         76.9589
796.94        76.87598
797.35        77.12886
797.76        77.66663
798.18        78.27932
798.59        78.66962
799.00        78.72721
799.41        78.54014
799.82        78.22439
800.23        77.98681
800.64        77.90211
801.06        77.88032
801.47        77.94003
801.88        78.02863
802.29        78.12073
802.70        78.23665
803.11        78.35128
803.52        78.40748
803.93        78.39777
804.34        78.33427
804.75        78.24025
805.17         78.1787
805.58        78.20049
805.99        78.20913
806.40        78.22382
806.81        78.42749
807.22        78.74269
807.63        78.80972
808.04         78.6515
808.45        78.62417
808.86        78.75243
809.27        78.83042
809.68        78.81834
810.09        78.76035
810.50        78.65677
810.91        78.49881
811.32        78.36118
811.73        78.36009
812.14        78.51506
812.55        78.79792
812.96        79.10498
813.37        79.24162
813.78        79.15505
814.19        78.90924
814.60        78.61147
815.01        78.41497
815.42        78.35746
815.83        78.39295
816.24        78.47683
816.65        78.52557
817.05        78.50997
817.46        78.42789
817.87        78.33388
818.28          78.241
818.69        78.16481
819.10        78.10818
819.51        78.08729
819.92          78.136
820.33        78.25637
820.74        78.41774
821.14        78.62614
821.55        78.90271
821.96        79.22974
822.37        79.60709
822.78         79.9185
823.19        79.96402
823.60        79.69669
824.00        79.16318
824.41        78.56382
824.82        78.24438
825.23        78.28345
825.64        78.62266
826.04          79.046
826.45        79.07442
826.86        78.63654
827.27        77.88318
827.68        77.14833
828.08        76.97993
828.49        77.45373
828.90        78.43261
829.31        79.61014
829.72        80.45634
830.12        80.82055
830.53        80.75037
830.94        80.49156
831.35        80.42439
831.75        80.68194
832.16        81.05537
832.57        81.39003
832.97        81.39412
833.38        81.00917
833.79        80.42547
834.20         79.7802
834.60        79.22427
835.01        78.85622
835.42        78.59927
835.82        78.55936
836.23        78.84201
836.64        79.45267
837.04        80.37794
837.45         81.2644
837.86        81.68184
838.26        81.51103
838.67        80.87666
839.08        80.05032
839.48        79.44834
839.89        79.23955
840.29        79.30247
840.70        79.54216
841.11        79.81721
841.51        80.08694
841.92        80.36179
842.33         80.6445
842.73        80.90606
843.14        81.07944
843.54         81.1903
843.95        81.22903
844.35        81.26726
844.76        81.29309
845.17        81.26503
845.57        81.22208
845.98        81.19038
846.38        81.19051
846.79        81.22726
847.19        81.17314
847.60         80.7532
848.00        79.98382
848.41        78.99365
848.81        78.11844
849.22        77.85197
849.62        78.32492
850.03        79.33908
850.43        80.64642
850.84        81.56556
851.24         81.9231
851.65        81.76809
852.05        81.31355
852.46        80.87663
852.86        80.56815
853.27        80.38105
853.67        80.15002
854.07        79.85472
854.48         79.4331
854.88        78.95964
855.29        78.50233
855.69        78.42294
856.10        78.69975
856.50         79.3243
856.90        79.97878
857.31        80.24367
857.71        80.07351
858.12          79.539
858.52          78.912
858.92        78.59328
859.33        78.68378
859.73        79.11984
860.13        79.68957
860.54        80.05929
860.94         80.1747
861.34        80.03819
861.75        79.74944
862.15        79.54162
862.55        79.44077
862.96        79.41633
863.36        79.25417
863.76        78.64771
864.17          77.619
864.57        76.34023
864.97        75.18622
865.38        74.65967
865.78        74.90158
866.18        75.74857
866.58        76.95153
866.99          77.951
867.39        78.54784
867.79         78.8268
868.19         78.8167
868.60         78.5873
869.00        78.20564
869.40        77.61179
869.80        77.05333
870.21        76.96981
870.61        77.48242
871.01         78.4481
871.41        79.42439
871.81        79.68376
872.22        79.06745
872.62         77.8003
873.02        76.34248
873.42        75.46667
873.82        75.41016
874.22        75.98073
874.63        76.80116
875.03        77.28649
875.43        77.28288
875.83        76.94112
876.23        76.62134
876.63         76.9095
877.03        77.90188
877.44        79.33262
877.84        80.71985
878.24        81.19514
878.64        80.60413
879.04        79.30326
879.44        77.84693
879.84         77.0377
880.24        77.05461
880.64         77.6073
881.04        78.45995
881.44        79.21895
881.84        79.71307
882.24        80.09072
882.65        80.18816
883.05        79.87462
883.45        79.13922
883.85        78.07701
884.25        77.09207
884.65        76.80869
885.05         77.3269
885.45        78.43045
885.85        79.79385
886.25        80.82921
886.65         81.2972
887.05         81.3604
887.45        80.99274
887.85        80.19239
888.25        79.10526
888.65        77.80864
889.04        76.63074
889.44        76.09135
889.84        76.19691
890.24        76.85217
890.64        77.78616
891.04        78.39452
891.44        78.45465
891.84        78.15383
892.24        77.72328
892.64        77.49387
893.04        77.54764
893.44        77.75386
893.83        78.10786
894.23        78.52679
894.63        78.98172
895.03        79.49645
895.43        79.95828
895.83        80.19055
896.23        80.15965
896.63        79.87282
897.02         79.4847
897.42        79.32362
897.82        79.44544
898.22        79.81139
898.62        80.16534
899.01        80.08376
899.41        79.48611
899.81        78.52744
900.21        77.61385
900.61        77.36215
901.00        77.87846
901.40        78.96037
901.80         80.1281
902.20        80.59414
902.59        80.15897
902.99        79.07191
903.39        77.79134
903.79        77.00644
904.18        76.89135
904.58        77.26855
904.98        77.81267
905.38        78.03029
905.77        77.77827
906.17        77.22604
906.57         76.6552
906.96        76.52759
907.36        76.90668
907.76         77.6554
908.15        78.44201
908.55        78.59651
908.95        78.04927
909.34        77.02899
909.74        76.04323
910.14        75.72653
910.53        76.26169
910.93        77.38163
911.33        78.83817
911.72        80.25482
912.12        81.36383
912.52        82.26259
912.91        82.90531
913.31        83.19448
913.70        83.13883
914.10        82.71297
914.49         82.0103
914.89        81.18814
915.29         80.3587
915.68        79.56856
916.08        78.95707
916.47        78.57171
916.87        78.47749
917.26        78.62156
917.66         78.9983
918.05        79.61288
918.45        80.34932
918.84        81.20872
919.24        81.91051
919.64        82.15955
920.03        81.89772
920.42        81.20051
920.82        80.34549
921.21        79.66255
921.61        79.27744
922.00         79.1338
922.40        79.17506
922.79         79.3804
923.19        79.66858
923.58        80.06512
923.98        80.46435
924.37        80.70918
924.77        80.74463
925.16        80.58003
925.55        80.28198
925.95        79.98466
926.34        79.76502
926.74        79.61073
927.13        79.46195
927.52        79.17631
927.92        78.75829
928.31        78.25129
928.70         77.8648
929.10        77.90633
929.49        78.42366
929.89        79.27542
930.28        80.18405
930.67        80.58698
931.07        80.33781
931.46        79.62907
931.85         78.7473
932.24        78.13107
932.64        77.92577
933.03        78.04319
933.42        78.38484
933.82        78.75448
934.21        79.08922
934.60        79.37303
934.99        79.71356
935.39        80.25238
935.78        81.04413
936.17        81.99297
936.56        82.65846
936.96        82.38557
937.35        81.12686
937.74        79.18852
938.13        77.32702
938.53        76.50202
938.92        76.83431
939.31        78.12401
939.70        79.77966
940.09        80.64149
940.49         80.3339
940.88        79.22053
941.27        77.93536
941.66        77.42789
942.05        77.90973
942.44        79.10632
942.84        80.46445
943.23        81.09029
943.62        80.65445
944.01        79.47475
944.40        78.18471
944.79        77.69198
945.18        78.19353
945.57        79.41903
945.97        80.74656
946.36         81.3641
946.75        80.91407
947.14        79.68556
947.53        78.29397
947.92        77.64933
948.31         77.9818
948.70        79.06135
949.09        80.31664
949.48        80.73682
949.87          80.053
950.26        78.60094
950.65        77.11721
951.04         76.6144
951.43        77.29008
951.82        78.87729
952.21        80.65526
952.60        81.31001
952.99        80.48478
953.38        78.62118
953.77        76.66605
954.16        75.87237
954.55        76.49087
954.94        78.26784
955.33        80.39938
955.72        81.15996
956.11        80.00076
956.50        77.54961
956.89        75.08035
957.28        74.24583
957.66        75.39623
958.05        77.97759
958.44        81.06728
958.83        82.76354
959.22        82.40448
959.61        80.67403
960.00        78.54671
960.39        77.25851
960.78        77.06026
961.16        77.56955
961.55        78.37212
961.94        78.79553
962.33        78.58091
962.72        78.10932
963.11        77.51988
963.49        76.92921
963.88        76.41762
964.27        75.86129
964.66        75.54341
965.04        76.05359
965.43        77.36817
965.82        79.35253
966.21        81.33936
966.60        82.10726
966.98        81.39943
967.37        79.71634
967.76        77.76101
968.15        76.47514
968.53        76.07283
968.92        76.21157
969.31        76.86897
969.69        78.00465
970.08        79.40565
970.47        81.22914
970.86        82.83632
971.24        83.12805
971.63        81.90111
972.02        79.49894
972.40        77.04794
972.79        76.37019
973.17        77.76611
973.56        80.59594
973.95        83.83424
974.33         85.5148
974.72        84.94008
975.11        82.79785
975.49        80.05222
975.88        78.47837
976.26        78.53767
976.65        79.62624
977.04        81.21992
977.42        82.36644
977.81        82.53332
978.19        82.16875
978.58        81.46918
978.96        80.60632
979.35        79.77568
979.74        78.91106
980.12         78.2875
980.51        78.35686
980.89        79.26949
981.28        80.74834
981.66        82.64739
982.05        84.37281
982.43        85.79575
982.82        86.93736
983.20        87.53426
983.59        87.06489
983.97        85.58443
984.35        83.29345
984.74        81.13605
985.12        80.38228
985.51        81.20143
985.89        83.36922
986.28        85.84864
986.66         87.2391
987.04         86.9363
987.43        85.34203
987.81        83.21124
988.20        82.14005
988.58        82.52327
988.96        83.96364
989.35        85.33376
989.73        85.06174
990.12        82.76976
990.50        79.14316
990.88        75.38567
991.27        73.42265
991.65         73.6768
992.03        75.54303
992.42        78.13391
992.80        80.38715
993.18        81.80342
993.56        82.71087
993.95        83.04977
994.33        82.92618
994.71        82.38113
995.10         81.4463
995.48        80.44436
995.86        79.98177
996.24        80.18566
996.63         80.8121
997.01        81.89265
997.39        83.13546
997.77        84.32597
998.15        85.57982
998.54        86.40108
998.92        86.06148
999.30        84.48759
999.68        81.81072
1000.06        79.11366
1000.45        78.42376
1000.83        80.37434
1001.21        84.39499
1001.59         89.0251
1001.97        91.82874
1002.35        92.10082
1002.73        90.48565
1003.12        88.03101
1003.50        86.33872
1003.88        85.96624
1004.26        86.48487
1004.64        87.33699
1005.02        87.62978
1005.40         87.1276
1005.78        86.17094
1006.16        85.38347
1006.54        85.56748
1006.92        86.87512
1007.30        89.15794
1007.69        91.53845
1008.07        92.41037
1008.45         91.1151
1008.83        88.05767
1009.21        84.70224
1009.59        83.54108
1009.97        85.18044
1010.35        88.80434
1010.73        92.93584
1011.11        95.15782
1011.49        94.77334
1011.86        92.63982
1012.24        89.49397
1012.62        86.60787
1013.00        84.42983
1013.38        82.59327
1013.76        81.04379
1014.14         79.8299
1014.52        78.96919
1014.90        78.58196
1015.28        78.68999
1015.66        79.12055
1016.04        79.77584
1016.41        80.77783
1016.79        81.54628
1017.17        81.20288
1017.55        79.91556
1017.93        78.26165
1018.31        77.24267
1018.69        77.96395
1019.06        80.71577
1019.44         85.4622
1019.82        92.10661
1020.20        97.87296
1020.58        99.95629
1020.95        98.53334
1021.33         95.2559
1021.71        91.88689
1022.09        88.57038
1022.46        84.36967
1022.84         79.4991
1023.22        75.28709
1023.60        73.28827
1023.97        73.79888
1024.35        75.64885
1024.73        77.30145
