SpectraSmart Spectrum 2.9.0.0
--------- Device Information -----------
Spectrum Name :  反射率_0
Saving Time :  2024/04/30 00:21:59
Spectro-Module Model Name : SE2030-DUVN
Spectro-Module Serial Number : OS361AC55029948
Wavelength Start : 200
Wavelength End : 1025
Wavelength Unit : Wavelength(nm)
Spectrum Unit : Reflectance(%)
-----------Spectrum Setting ------------
Integration Time : 20ms
Average : 10
Boxcar : 0
Background removal :  enabled
linearity correction :  enabled
SC :  disabled
Intensity correction :  disabled
DWT denoise :  enabled
savitzky-golay :  disabled
FFT :  disabled
Running average :  disabled
Kalman :  disabled
High pass :  disabled
---------------BEGIN--------------------
Wavelength(nm)             Reflectance(%)
200.29               0
200.75        60.79351
201.21         45.9575
201.67        29.91793
202.13        19.79093
202.58        18.93725
203.04        26.26741
203.50        40.40981
203.96         57.4299
204.42        73.56216
204.88        87.92413
205.34        96.17644
205.80        94.07504
206.26        84.64139
206.72        72.51588
207.18        61.61854
207.64        53.77729
208.10        48.09335
208.55        43.32316
209.01        39.38712
209.47        37.56126
209.93        38.11794
210.39         40.5935
210.85        42.95198
211.31        43.27098
211.77        41.32393
212.23        36.73596
212.69        30.96515
213.14        31.00561
213.60        38.43121
214.06        48.64016
214.52        56.52295
214.98        59.21513
215.44         57.7174
215.90        53.50075
216.36        48.48824
216.81        46.37869
217.27        49.25785
217.73        56.97849
218.19        69.57578
218.65         81.9125
219.11        88.04049
219.57        88.08724
220.02        85.02316
220.48        82.25629
220.94        79.58633
221.40        75.75684
221.86         69.4753
222.32        61.11943
222.77        53.75579
223.23         49.4506
223.69        47.10514
224.15        45.04205
224.61        42.64455
225.06         39.8722
225.52        37.53942
225.98        37.27911
226.44        39.14255
226.90        41.80495
227.36        44.01253
227.81        45.03637
228.27        45.06675
228.73        44.37883
229.19        43.48832
229.65        43.39007
230.10        44.20379
230.56        45.43533
231.02        46.43801
231.48         46.7084
231.93        46.22372
232.39        45.26883
232.85        44.21769
233.31        43.81356
233.77        44.30443
234.22        45.63206
234.68        47.16813
235.14        47.78458
235.60        47.24842
236.05        45.90921
236.51        44.84015
236.97        45.48256
237.43        48.27722
237.88        53.44965
238.34        60.19395
238.80        65.57667
239.26        67.25413
239.71        65.64686
240.17         62.5279
240.63        60.94934
241.08        62.03429
241.54        65.76758
242.00        73.16235
242.46        82.69722
242.91        90.33762
243.37        93.96883
243.83        94.69249
244.28         96.0378
244.74         99.1131
245.20        102.5114
245.66        106.2896
246.11        110.5834
246.57        114.7878
247.03        120.3561
247.48        123.6199
247.94        117.1549
248.40        104.3162
248.85        90.74868
249.31        82.16909
249.77        80.28622
250.22        84.51629
250.68        95.60136
251.14        113.5297
251.59        124.4187
252.05        117.8993
252.51        104.5637
252.96         93.9792
253.42         89.8518
253.88        90.02634
254.33        92.49627
254.79        95.84666
255.25        96.72202
255.70        94.54077
256.16        91.83289
256.62        89.75137
257.07        88.87452
257.53        89.34871
257.99        90.32545
258.44        90.64717
258.90        89.71492
259.35        87.32245
259.81        84.77078
260.27        82.56414
260.72        81.11452
261.18        80.52795
261.63        80.07407
262.09        79.57407
262.55        78.36808
263.00        76.44022
263.46         74.4389
263.91        72.39705
264.37        70.75423
264.83        69.41428
265.28        68.17362
265.74        67.22009
266.19        66.56643
266.65        66.25813
267.11         66.1685
267.56        66.03262
268.02        65.50774
268.47        64.47604
268.93        63.05072
269.38        61.37544
269.84         59.8521
270.30        58.62279
270.75        57.59617
271.21        56.70567
271.66        55.76032
272.12        54.70993
272.57        53.57419
273.03        52.41481
273.48        51.22046
273.94        50.09246
274.39        48.98358
274.85        47.95687
275.31        46.97924
275.76        46.02427
276.22        45.14895
276.67        44.33813
277.13        43.70678
277.58        43.18356
278.04        42.77249
278.49        42.33116
278.95        41.79227
279.40        41.08224
279.86        40.32315
280.31        39.51099
280.77        38.79229
281.22        38.15747
281.68        37.62408
282.13        37.18418
282.59        36.90397
283.04        36.73584
283.50         36.6667
283.95        36.58774
284.41        36.36513
284.86        35.96415
285.32        35.48893
285.77        34.98217
286.22        34.59821
286.68        34.38369
287.13        34.24523
287.59        34.20724
288.04        34.23729
288.50         34.3255
288.95        34.42901
289.41        34.49976
289.86        34.40191
290.32        34.16581
290.77        33.86004
291.22        33.56925
291.68        33.41998
292.13        33.46087
292.59        33.69322
293.04        34.20311
293.50        35.15939
293.95        36.54239
294.40        38.29455
294.86        40.16355
295.31        41.75758
295.77        42.97535
296.22        43.90424
296.68        44.77045
297.13        45.91731
297.58        47.44075
298.04        49.20071
298.49        51.03077
298.95        52.69011
299.40        54.10401
299.85        55.37517
300.31        56.61663
300.76        57.90405
301.21        59.31401
301.67        60.84396
302.12        62.43849
302.58        64.17126
303.03        65.99802
303.48        67.85123
303.94         69.7528
304.39        71.97953
304.84        74.01121
305.30        76.22907
305.75        78.33208
306.20        80.17525
306.66        81.74847
307.11        83.04834
307.57        84.25677
308.02        85.51177
308.47        86.90551
308.93        88.40152
309.38        89.90006
309.83        91.32533
310.29        92.64577
310.74        93.86852
311.19        94.98937
311.65         95.9835
312.10        96.84164
312.55        97.59655
313.00        98.33492
313.46        99.19968
313.91        100.2005
314.36         101.295
314.82        102.4042
315.27        103.4262
315.72        104.2915
316.18        105.0253
316.63         105.593
317.08        105.9585
317.53        106.1524
317.99        106.2275
318.44        106.2614
318.89        106.3974
319.35         106.677
319.80        107.0606
320.25        107.5704
320.70        108.2319
321.16        108.9838
321.61        109.8557
322.06        110.6371
322.51        111.0032
322.97          110.89
323.42        110.4087
323.87        109.8162
324.32        109.5542
324.78        109.7194
325.23        110.2602
325.68        110.9729
326.13        111.5025
326.59         111.716
327.04        111.7567
327.49        111.7579
327.94        111.9884
328.39        112.5063
328.85        113.1535
329.30        113.8466
329.75        114.2401
330.20        114.2474
330.66         113.977
331.11        113.6258
331.56        113.4231
332.01        113.4777
332.46        113.7402
332.92        114.1455
333.37        114.7433
333.82        115.4432
334.27        116.2348
334.72        117.0715
335.17        117.8713
335.63        118.5635
336.08        119.2158
336.53        119.7242
336.98        120.0058
337.43        120.0687
337.88        119.9402
338.34        119.8133
338.79        120.0178
339.24         120.615
339.69        121.5402
340.14        122.5408
340.59        123.1738
341.05         123.341
341.50        123.1838
341.95        122.9569
342.40          123.09
342.85        123.6714
343.30        124.5152
343.75        125.4269
344.20        126.1004
344.66         126.452
345.11        126.6165
345.56         126.595
346.01        126.3734
346.46        126.0263
346.91        125.5705
347.36        125.2799
347.81        125.5785
348.26        126.4972
348.72        127.8615
349.17         129.323
349.62        130.2016
350.07        130.3068
350.52        129.8672
350.97        129.1386
351.42        128.5242
351.87        128.1769
352.32        127.9695
352.77        127.9628
353.22        128.2645
353.67         128.823
354.13         129.575
354.58        130.2523
355.03        130.3984
355.48        129.9065
355.93        128.9136
356.38        127.6232
356.83        126.3631
357.28        125.2628
357.73        124.2601
358.18        123.3714
358.63        122.6142
359.08        121.9687
359.53        121.4365
359.98         120.952
360.43         120.389
360.88        119.7109
361.33        118.9471
361.78        118.0988
362.23        117.1833
362.68        116.2274
363.13        115.2327
363.58        114.2879
364.03        113.5292
364.48        112.9779
364.93        112.5988
365.38        112.2745
365.83         111.813
366.28        111.1653
366.73         110.378
367.18        109.5503
367.63        108.8427
368.08        108.2849
368.53        107.8184
368.98        107.3522
369.43        106.7392
369.88        105.9591
370.33        105.0916
370.78        104.2148
371.23        103.4539
371.68         102.846
372.13        102.3223
372.58        101.8949
373.03         101.586
373.48        101.3507
373.93        101.1647
374.38        100.8503
374.83        100.1259
375.28        98.98448
375.72        97.54111
376.17        96.12339
376.62        95.03867
377.07        94.36059
377.52        93.97639
377.97        93.81237
378.42        93.74774
378.87        93.69952
379.32        93.67554
379.77         93.5797
380.22         93.2661
380.67         92.7084
381.11        91.93948
381.56        91.04704
382.01         90.2182
382.46        89.54025
382.91        88.99799
383.36        88.57284
383.81        88.21609
384.26        87.90038
384.71        87.63109
385.15        87.39307
385.60        87.21989
386.05        87.06985
386.50        86.91215
386.95        86.68362
387.40        86.30338
387.85        85.78463
388.29        85.13851
388.74        84.54587
389.19        84.02556
389.64        83.59254
390.09        83.20509
390.54        82.90434
390.98        82.75451
391.43        82.77681
391.88        82.88286
392.33         82.9017
392.78        82.72443
393.23        82.31438
393.67        81.47017
394.12        80.45184
394.57        80.20039
395.02        79.64584
395.47        79.73216
395.91        79.99294
396.36        80.07121
396.81        79.90017
397.26          79.668
397.71        79.41047
398.15        79.06194
398.60        78.73484
399.05        78.38067
399.50        78.04524
399.95        77.89169
400.39        77.64618
400.84        77.84013
401.29        78.19961
401.74        78.16493
402.18        77.66236
402.63        76.92605
403.08        76.23901
403.53         75.9222
403.97        76.03893
404.42        76.48079
404.87         76.9706
405.32        77.05009
405.76        76.61073
406.21        75.88042
406.66        75.08638
407.11        74.50612
407.55        74.30154
408.00        74.51062
408.45        74.98834
408.90        75.33567
409.34        75.40715
409.79        75.24764
410.24        74.97638
410.68        74.84337
411.13        74.88802
411.58        74.96088
412.03        74.99264
412.47        74.94027
412.92        74.75818
413.37        74.50869
413.81        74.20603
414.26        73.94646
414.71         73.7188
415.15        73.51264
415.60        73.33681
416.05        73.25795
416.49          73.291
416.94        73.42426
417.39        73.56489
417.83        73.54607
418.28        73.34308
418.73        72.99368
419.17        72.65358
419.62        72.58825
420.07        72.82074
420.51        73.23853
420.96        73.66312
421.41        73.73148
421.85        73.36176
422.30        72.87994
422.74        72.37134
423.19        71.79836
423.64        71.29887
424.08        71.41723
424.53        72.04881
424.98        72.32944
425.42        72.35559
425.87        72.67522
426.31        72.91635
426.76        72.57194
427.21        71.57995
427.65        71.34729
428.10        71.75787
428.54         71.6782
428.99        71.12151
429.44        70.85977
429.88        70.70755
430.33        70.69948
430.77         70.7406
431.22        71.26936
431.66        72.04775
432.11        72.01264
432.56        71.21809
433.00        70.75454
433.45        70.97372
433.89         71.1135
434.34        71.80799
434.78        73.07919
435.23        71.07264
435.67        70.31476
436.12        69.89333
436.57        69.91807
437.01        70.27502
437.46        70.44458
437.90        70.42349
438.35        70.69982
438.79        71.19779
439.24         71.3754
439.68        71.24736
440.13        71.22605
440.57         71.3364
441.02        71.37868
441.46        71.33034
441.91        71.35144
442.35        71.34263
442.80         71.3846
443.24        71.39928
443.69        71.24477
444.13        70.94704
444.58        70.74215
445.02        70.60822
445.47        70.47501
445.91        70.34898
446.36        70.30323
446.80        70.32088
447.24        70.39808
447.69        70.50995
448.13        70.59141
448.58        70.64175
449.02        70.64989
449.47        70.65055
449.91        70.66436
450.36         70.7088
450.80        70.75388
451.25        70.78859
451.69        70.76454
452.13        70.68363
452.58        70.59263
453.02        70.50062
453.47        70.42607
453.91        70.36076
454.36        70.41402
454.80        70.27155
455.24        70.40414
455.69        70.62671
456.13        70.58138
456.58        70.31845
457.02        69.99208
457.46        69.86013
457.91        69.77882
458.35        69.75005
458.79        69.68499
459.24        69.61578
459.68        69.61565
460.13        69.67647
460.57        69.54404
461.01         69.7421
461.46        69.20999
461.90        69.08068
462.34        69.15189
462.79        69.51208
463.23         69.2912
463.68        68.56721
464.12        68.15859
464.56        68.10007
465.01        67.99258
465.45        67.81615
465.89        67.76841
466.34        67.81595
466.78        68.29937
467.22        68.35093
467.67        68.36546
468.11        68.11108
468.55        67.70456
468.99        67.25996
469.44        66.89642
469.88        66.67423
470.32        66.59637
470.77        66.60086
471.21        66.58497
471.65        66.50607
472.10        66.41445
472.54        66.34621
472.98        66.37162
473.42        66.48756
473.87        66.71684
474.31        66.94624
474.75        66.88776
475.20        66.59613
475.64        66.47479
476.08        66.54337
476.52         66.3518
476.97        65.85999
477.41        65.80726
477.85        65.67636
478.29        65.20756
478.74         65.4051
479.18        65.83092
479.62        65.50343
480.06        65.59324
480.50        65.69682
480.95        65.51143
481.39        66.13931
481.83         65.2152
482.27        66.05412
482.72        65.96781
483.16        65.76944
483.60        65.75951
484.04        65.90021
484.48        66.17599
484.93         66.4537
485.37         66.1699
485.81        65.61615
486.25        65.41128
486.69        66.53418
487.14        66.43656
487.58        65.02409
488.02        65.41512
488.46        66.03178
488.90        65.23919
489.34        64.80869
489.79        65.44515
490.23         64.8414
490.67        64.99971
491.11        64.98456
491.55        64.71419
491.99        64.25988
492.43        64.07461
492.88        64.21744
493.32        64.45935
493.76        64.70491
494.20        64.91387
494.64        65.04255
495.08        65.08971
495.52        65.07016
495.96        65.03448
496.41        65.02892
496.85        65.02049
497.29         64.9309
497.73        65.06614
498.17        64.76736
498.61        64.44473
499.05        64.05409
499.49        64.13634
499.93        64.57256
500.37        64.62598
500.82          64.299
501.26         64.1971
501.70        64.32553
502.14        64.30581
502.58        64.16407
503.02        64.12303
503.46        64.19771
503.90        64.33691
504.34        64.48129
504.78         64.5127
505.22        64.41271
505.66        64.26818
506.10        64.13847
506.54        64.08304
506.98        64.12164
507.42        64.35226
507.86        64.22224
508.30        64.56831
508.74        64.06101
509.18        63.72554
509.62        63.34695
510.06        63.17287
510.50        63.24848
510.94        63.51238
511.38        63.85022
511.82        64.04259
512.26        64.03527
512.70        63.87321
513.14        63.64111
513.58        63.53347
514.02        63.60146
514.46        63.53325
514.90         63.7269
515.34        63.73643
515.78        63.67366
516.22        63.56088
516.66        63.44114
517.10        63.36514
517.54        63.34249
517.98        63.35699
518.42        63.37808
518.86        63.36079
519.30        63.29461
519.74        63.19775
520.18        63.09738
520.62        63.03004
521.06        63.01106
521.50        63.03861
521.93        63.09811
522.37        63.14587
522.81        63.17725
523.25        63.18877
523.69        63.21765
524.13        63.32343
524.57        63.50592
525.01        63.74083
525.45        63.93589
525.89        63.94443
526.32        63.73545
526.76         63.3826
527.20        63.00529
527.64        62.79163
528.08        62.78448
528.52        62.92666
528.96         63.1288
529.40        63.24563
529.83        63.23062
530.27        63.13839
530.71        63.01233
531.15        62.92619
531.59        62.90242
532.03        62.91105
532.46        62.92487
532.90        62.93198
533.34         62.9195
533.78        62.90302
534.22        62.88811
534.66        62.87848
535.09        62.87061
535.53        62.87248
535.97        62.87923
536.41        62.90007
536.85        62.93137
537.28         62.9627
537.72        62.98051
538.16        62.95919
538.60        62.89265
539.04        62.79235
539.47        62.65646
539.91        62.53347
540.35        62.42079
540.79        62.32779
541.22        62.25387
541.66          62.208
542.10        62.18847
542.54        62.19643
542.97        62.23606
543.41        62.33016
543.85        62.46463
544.29        62.63735
544.72        62.77694
545.16        62.80956
545.60         62.7196
546.04        62.50513
546.47        62.26102
546.91        62.23942
547.35        62.43095
547.79        62.58192
548.22        62.61187
548.66        62.73051
549.10        62.92859
549.53        62.89312
549.97        62.54694
550.41        63.07041
550.84        62.58692
551.28        62.48178
551.72        62.22094
552.15        62.45919
552.59        62.39165
553.03         62.4735
553.46        62.45955
553.90        62.46025
554.34        62.45453
554.77         62.4046
555.21        62.34337
555.65        62.27134
556.08        62.22821
556.52        62.34752
556.96        62.55837
557.39        62.70916
557.83        62.75628
558.27        62.62257
558.70        62.41009
559.14        62.39704
559.57        62.55793
560.01        62.76366
560.45        62.91826
560.88        62.70021
561.32        62.49129
561.75        62.34799
562.19         62.3812
562.63        62.32861
563.06        62.19059
563.50        62.15395
563.93        62.19131
564.37        62.23615
564.80        62.26157
565.24        62.30219
565.68        62.34373
566.11         62.4071
566.55        62.49001
566.98        62.48002
567.42        62.45278
567.85        62.47655
568.29        62.57487
568.72        62.79727
569.16        63.16403
569.60        62.97157
570.03         63.0833
570.47        63.17946
570.90        63.15307
571.34        62.95433
571.77        63.20601
572.21        63.38178
572.64        63.61386
573.08        63.55099
573.51        63.24594
573.95         63.3377
574.38        63.71304
574.82        63.31096
575.25        63.34226
575.69        63.00195
576.12        62.77527
576.56        62.59497
576.99        62.98838
577.42        62.89315
577.86        63.04423
578.29         63.2285
578.73        63.73801
579.16        63.20018
579.60         63.3018
580.03         63.0493
580.47        63.36546
580.90        63.67132
581.33         63.0408
581.77        63.23327
582.20        63.74924
582.64        64.11456
583.07        63.22837
583.51        62.72378
583.94        62.64446
584.37        62.44526
584.81        62.29795
585.24        62.85848
585.68        63.41755
586.11         63.7886
586.54        62.82384
586.98        62.47963
587.41        63.13267
587.85        63.48091
588.28        63.36705
588.71        63.54764
589.15        62.72953
589.58        63.09816
590.01        62.33135
590.45        62.41394
590.88        62.73946
591.31        63.06152
591.75        63.10197
592.18        63.05888
592.61        63.24436
593.05        62.09989
593.48        62.77296
593.91        63.88201
594.35         62.5514
594.78        62.36819
595.21        62.18576
595.65        62.64138
596.08        61.94418
596.51        62.17743
596.94        62.55663
597.38        62.73731
597.81        62.59556
598.24         62.4156
598.68        62.20323
599.11        62.31985
599.54        62.84375
599.97        63.43034
600.41        61.73933
600.84        62.44629
601.27        62.23556
601.70        62.42281
602.14        62.75412
602.57        62.41756
603.00        61.74969
603.43         61.8677
603.87         62.1488
604.30        62.47845
604.73         62.2484
605.16        62.11461
605.60        62.00957
606.03        62.14256
606.46        62.41049
606.89        62.63661
607.32        62.29385
607.76        62.22481
608.19        62.32946
608.62        62.24613
609.05         62.0536
609.48        62.14464
609.92        62.30884
610.35        62.22207
610.78        62.57169
611.21        62.00072
611.64        62.18613
612.07        62.09802
612.50        62.14839
612.94        62.21041
613.37        62.33122
613.80        62.14135
614.23        62.37753
614.66        62.39798
615.09        62.41748
615.52        62.39777
615.96        62.43488
616.39        62.40732
616.82        61.78431
617.25         61.9977
617.68        61.71527
618.11         62.1676
618.54        62.13889
618.97        62.41147
619.40        61.73587
619.84        61.61983
620.27        61.81275
620.70        62.00518
621.13        62.10054
621.56        61.92931
621.99        61.95237
622.42        61.48272
622.85        61.85003
623.28        61.66186
623.71        62.38916
624.14        61.16424
624.57        62.07722
625.00        61.94549
625.43        61.90297
625.86        61.61551
626.29        61.42368
626.72        61.65587
627.15        61.48022
627.58        61.70849
628.01         61.9552
628.44        61.89809
628.87        61.55132
629.30        61.48366
629.73        61.64905
630.16        61.92795
630.59        61.54151
631.02        61.57915
631.45        61.57196
631.88        61.57943
632.31        61.49417
632.74        61.70034
633.17        61.59243
633.60        61.60294
634.03        61.55278
634.46        61.45601
634.89        61.33197
635.32        61.23765
635.75        61.19228
636.18        61.16849
636.61        61.16401
637.04        61.18557
637.47          61.241
637.89        61.29086
638.32        61.28331
638.75        61.31837
639.18        61.42051
639.61        60.96575
640.04        61.09525
640.47        60.98933
640.90        60.99473
641.33        61.07731
641.76        61.20176
642.18        61.28913
642.61        61.28592
643.04        61.22499
643.47         61.1661
643.90        61.18644
644.33        61.29174
644.76        61.52962
645.18        61.78841
645.61        61.71669
646.04        61.24059
646.47        61.13086
646.90        61.32141
647.33        61.29466
647.75        61.03127
648.18        60.84952
648.61        60.81455
649.04        60.84637
649.47        60.93805
649.89        61.22372
650.32        61.55449
650.75        61.47155
651.18         61.0828
651.61          61.013
652.03        61.28134
652.46        61.49928
652.89         61.5469
653.32        61.41088
653.74        61.24174
654.17        61.15444
654.60        60.88859
655.03        61.91071
655.46        60.73541
655.88        61.55882
656.31        64.88501
656.74        66.94381
657.16        66.07631
657.59        63.53519
658.02        61.64031
658.45        61.84744
658.87        61.98971
659.30        61.59388
659.73        61.92212
660.15        62.08238
660.58        61.89406
661.01        61.80555
661.44        61.63161
661.86        61.23743
662.29        60.74208
662.72        60.83036
663.14        61.37526
663.57        61.27044
664.00        60.63124
664.42        60.47972
664.85        60.85859
665.27        61.15456
665.70        61.27898
666.13         61.4133
666.55        61.53595
666.98        61.57226
667.41        61.53567
667.83        61.45613
668.26        61.34335
668.69        61.21144
669.11        61.08035
669.54        60.98146
669.96        60.92665
670.39         60.9107
670.82        60.93119
671.24         60.9893
671.67         61.0636
672.09        61.14367
672.52        61.22816
672.94        61.37421
673.37        61.10305
673.80        61.49065
674.22        61.18293
674.65        61.26302
675.07        61.37281
675.50         61.4604
675.92        61.50896
676.35        61.53516
676.77        61.54768
677.20        61.50457
677.62        61.44325
678.05        61.43691
678.47        61.49218
678.90        61.59496
679.32        61.68494
679.75        61.67353
680.17        61.53547
680.60        61.32887
681.02        61.13491
681.45        61.01432
681.87        60.98165
682.30        61.26322
682.72        61.40162
683.15        61.47601
683.57        61.40971
684.00        61.51963
684.42        61.75681
684.85        61.85872
685.27        61.82559
685.70         61.6684
686.12         61.5014
686.54        61.82745
686.97        62.50111
687.39         62.7259
687.82         62.4203
688.24        62.43433
688.66        62.35001
689.09         62.1376
689.51        61.73759
689.94        61.48451
690.36        61.41806
690.78        61.41028
691.21        61.45446
691.63        61.63951
692.06        61.88727
692.48        61.96969
692.90        61.89117
693.33        61.84742
693.75        61.84214
694.17        61.76749
694.60        61.68995
695.02        61.52533
695.44        61.67313
695.87        61.89198
696.29        62.18846
696.71        62.06808
697.14        61.63673
697.56        61.55756
697.98        61.82909
698.41        61.93204
698.83        61.84864
699.25        61.90223
699.68        62.05293
700.10        62.11796
700.52        62.06516
700.94         61.9624
701.37        61.82624
701.79        61.69994
702.21        61.59635
702.64        61.51148
703.06        61.46668
703.48        61.50838
703.90        61.63876
704.33        61.85112
704.75        62.06825
705.17        62.22438
705.59        62.27585
706.01        62.24585
706.44        62.17083
706.86        62.13081
707.28        62.14909
707.70        62.17178
708.12        62.20402
708.55        62.32817
708.97        62.49792
709.39        62.50962
709.81        62.40693
710.23        62.46468
710.66        62.69416
711.08         62.9558
711.50        63.16353
711.92        63.27662
712.34        63.27483
712.76         63.1733
713.19        63.01188
713.61         62.9021
714.03        62.86216
714.45        62.87436
714.87        62.92565
715.29        62.99088
715.71        63.05673
716.13        63.12914
716.56        63.18487
716.98        63.26043
717.40         63.3258
717.82        63.37365
718.24        63.39042
718.66        63.36051
719.08        63.28637
719.50        63.17833
719.92        63.06458
720.34        62.98883
720.76        62.96255
721.19        62.96707
721.61        62.99753
722.03        63.01806
722.45        63.01749
722.87        63.00644
723.29        62.98404
723.71        62.94905
724.13        62.90398
724.55        62.84829
724.97        62.80631
725.39        62.79422
725.81        62.81529
726.23         62.9108
726.65        63.05894
727.07        63.00151
727.49        63.08155
727.91        63.01148
728.33        62.94617
728.75        62.95786
729.17        63.06499
729.59        63.24958
730.01        63.41112
730.43         63.3995
730.85        63.19621
731.27        62.84928
731.69        62.50746
732.10        62.46246
732.52        62.77692
732.94        63.26247
733.36        63.70292
733.78         64.3703
734.20        64.19202
734.62        63.95959
735.04        63.57999
735.46        63.57803
735.88        63.94236
736.30        64.14931
736.72        64.10655
737.13        64.15605
737.55        64.19155
737.97        63.74339
738.39        63.02797
738.81        62.78754
739.23        63.07754
739.65        63.50403
740.06        63.84658
740.48        64.00784
740.90        63.91314
741.32        63.57867
741.74        63.14783
742.16        62.91655
742.57        62.97511
742.99        63.14758
743.41        63.36577
743.83        63.67632
744.25        63.95596
744.67         63.8686
745.08        63.50799
745.50        63.35094
745.92        63.45817
746.34        63.56589
746.75        63.62397
747.17        63.66633
747.59        63.67696
748.01        63.65541
748.42        63.63237
748.84        63.63058
749.26        63.66471
749.68        63.71807
750.09        63.75893
750.51        63.77089
750.93        63.73838
751.35        63.68118
751.76        63.61303
752.18        63.54752
752.60        63.49361
753.01        63.45142
753.43        63.42904
753.85        63.46515
754.27        63.57401
754.68        63.77541
755.10        63.99397
755.52        64.10908
755.93        64.07722
756.35        63.90065
756.77        63.75394
757.18        63.82631
757.60        64.14383
758.02        64.92192
758.43        65.78649
758.85        65.53651
759.26         64.3987
759.68        63.90336
760.10        64.19453
760.51        64.43546
760.93        64.52219
761.34        64.69925
761.76        64.84888
762.18        64.78583
762.59        64.51872
763.01         64.0323
763.42        63.53564
763.84        63.32568
764.26        63.47699
764.67        63.87567
765.09        64.37598
765.50        64.72265
765.92        64.83905
766.33        64.75977
766.75        64.49461
767.16        64.28587
767.58         64.1506
768.00        64.02692
768.41          63.936
768.83        63.89791
769.24        63.89919
769.66        64.04252
770.07        64.25551
770.49        64.22649
770.90        64.03357
771.32        64.22214
771.73        64.71812
772.15        64.82913
772.56        64.52087
772.97        64.37637
773.39        64.05199
773.80        64.02412
774.22        64.16548
774.63        64.49493
775.05        64.84158
775.46        65.01936
775.88        64.94408
776.29        64.70028
776.70        64.37453
777.12         64.1305
777.53        64.03359
777.95        64.03363
778.36        64.10915
778.77        64.21333
779.19        64.32058
779.60        64.46943
780.02         64.6386
780.43        64.84142
780.84         65.0507
781.26        65.21152
781.67        65.33176
782.09        65.46996
782.50        65.60761
782.91        65.62528
783.33        65.51538
783.74        65.30336
784.15        65.01221
784.57        64.63589
784.98        64.28642
785.39        64.15977
785.81        64.29623
786.22        64.63068
786.63        65.07906
787.04        65.50112
787.46        65.84039
787.87        66.10355
788.28        66.28275
788.70        66.36765
789.11        66.35411
789.52        66.25559
789.93        66.10414
790.35        65.93717
790.76        65.80424
791.17        65.75461
791.58        65.77847
792.00        65.79447
792.41        65.80737
792.82        65.83156
793.23        65.89509
793.65        66.04005
794.06        66.26669
794.47        66.53632
794.88        66.74792
795.29        66.75997
795.71        66.52785
796.12        66.13085
796.53        65.71568
796.94        65.56807
797.35        65.76943
797.76        66.23286
798.18        66.77985
798.59        67.15944
799.00        67.26907
799.41        67.18896
799.82        66.98779
800.23        66.78615
800.64        66.63924
801.06        66.48608
801.47        66.38605
801.88        66.36967
802.29        66.43488
802.70        66.57424
803.11        66.74001
803.52         66.8361
803.93        66.84531
804.34        66.80264
804.75        66.71895
805.17        66.66283
805.58        66.69099
805.99        66.61936
806.40        66.53123
806.81        66.91705
807.22        67.61813
807.63        67.78686
808.04        67.45049
808.45        67.39944
808.86        67.67577
809.27        67.79517
809.68        67.71877
810.09        67.63875
810.50        67.56244
810.91        67.44084
811.32        67.30946
811.73        67.22094
812.14        67.18436
812.55        67.19967
812.96        67.22923
813.37        67.19321
813.78        67.08031
814.19        66.92926
814.60        66.78249
815.01        66.69639
815.42        66.68409
815.83        66.72106
816.24        66.80679
816.65        66.93676
817.05        67.09656
817.46        67.24975
817.87         67.3754
818.28        67.39507
818.69        67.30534
819.10        67.13106
819.51        66.95157
819.92        66.91563
820.33        67.06076
820.74        67.32742
821.14        67.64756
821.55        67.92561
821.96        68.11745
822.37        68.25673
822.78        68.30653
823.19           68.21
823.60        67.96702
824.00         67.5845
824.41        67.17508
824.82        66.94607
825.23        66.93854
825.64        67.12766
826.04        67.37058
826.45        67.33495
826.86        66.98181
827.27        66.42048
827.68        65.88602
828.08        65.77295
828.49        66.12193
828.90         66.8288
829.31        67.69673
829.72        68.38446
830.12        68.78709
830.53        68.91789
830.94         68.8765
831.35        68.80006
831.75        68.76476
832.16        68.66029
832.57        68.51301
832.97        68.33951
833.38        68.16373
833.79        68.05986
834.20        68.00485
834.60        67.92691
835.01        67.84479
835.42        67.73021
835.82        67.73312
836.23        68.04189
836.64        68.68469
837.04        69.61878
837.45        70.44556
837.86        70.65316
838.26         70.1299
838.67        69.06258
839.08        67.85821
839.48        67.12486
839.89        67.06171
840.29        67.48499
840.70        68.16662
841.11        68.74054
841.51        69.09819
841.92        69.31647
842.33        69.46896
842.73        69.65967
843.14        69.86894
843.54        70.05244
843.95        70.18795
844.35        70.32871
844.76        70.44546
845.17        70.51685
845.57        70.51281
845.98        70.34296
846.38        70.01555
846.79        69.57494
847.19        69.03137
847.60        68.36285
848.00        67.64252
848.41        66.92473
848.81         66.3927
849.22        66.29736
849.62        66.70341
850.03        67.49514
850.43        68.51155
850.84        69.26736
851.24         69.6496
851.65        69.66231
852.05        69.46529
852.46        69.29767
852.86        69.22647
853.27        69.23651
853.67        69.18093
854.07        69.03554
854.48        68.74992
854.88        68.37744
855.29        67.96361
855.69        67.78518
856.10        67.82882
856.50        68.11774
856.90        68.41073
857.31        68.37907
857.71        68.00591
858.12        67.35296
858.52        66.68053
858.92        66.37531
859.33        66.52454
859.73         67.0586
860.13        67.74062
860.54        68.19096
860.94        68.34084
861.34        68.21889
861.75        67.94412
862.15        67.77666
862.55        67.75909
862.96        67.82461
863.36        67.80584
863.76        67.47067
864.17        66.81958
864.57          65.992
864.97        65.20538
865.38        64.73305
865.78        64.66615
866.18         64.8882
866.58        65.32661
866.99          65.804
867.39        66.25731
867.79        66.70733
868.19        67.00139
868.60        66.91164
869.00        66.43743
869.40        65.62202
869.80        64.83694
870.21        64.72211
870.61        65.44959
871.01        66.78821
871.41        68.20937
871.81          68.873
872.22        68.56509
872.62        67.51908
873.02        66.19293
873.42        65.35733
873.82        65.25293
874.22        65.69339
874.63         66.2925
875.03         66.4547
875.43        66.05118
875.83        65.27285
876.23        64.56615
876.63        64.65329
877.03        65.65655
877.44        67.24685
877.84        68.87875
878.24        69.58224
878.64        69.14102
879.04        67.93431
879.44        66.43586
879.84        65.32938
880.24        64.81426
880.64        64.66402
881.04        64.83415
881.44        65.24721
881.84          65.828
882.24        66.65668
882.65        67.44001
883.05        67.76966
883.45        67.50264
883.85        66.74462
884.25        65.93569
884.65        65.77998
885.05        66.39825
885.45        67.55056
885.85        68.81818
886.25        69.47726
886.65        69.29848
887.05        68.52515
887.45        67.39598
887.85        66.32545
888.25         65.5362
888.65        64.95654
889.04        64.59841
889.44        64.54359
889.84        64.72775
890.24        65.14753
890.64        65.72963
891.04        66.26041
891.44        66.62729
891.84        66.86745
892.24        66.94714
892.64        66.86092
893.04        66.64362
893.44        66.27395
893.83        65.98422
894.23        66.11055
894.63        66.72756
895.03         67.7251
895.43        68.72084
895.83        69.12334
896.23        68.81642
896.63        67.95764
897.02        66.92709
897.42        66.42908
897.82        66.61469
898.22        67.29324
898.62        68.07602
899.01         68.3239
899.41        67.87043
899.81        66.96124
900.21         65.9586
900.61        65.40214
901.00        65.42509
901.40        65.84425
901.80        66.40627
902.20        66.71066
902.59        66.63193
902.99         66.3002
903.39        65.87642
903.79         65.5809
904.18        65.48138
904.58        65.53198
904.98        65.63065
905.38        65.64963
905.77          65.535
906.17        65.31585
906.57        65.12097
906.96        65.17621
907.36        65.48158
907.76        65.99985
908.15        66.46046
908.55        66.29716
908.95        65.49591
909.34        64.25564
909.74        63.13127
910.14        62.83786
910.53         63.5543
910.93        64.99136
911.33        66.78946
911.72        68.38096
912.12        69.45226
912.52        70.13735
912.91        70.48431
913.31        70.58579
913.70        70.50562
914.10        70.17247
914.49        69.60316
914.89         68.8279
915.29        67.93124
915.68        67.00039
916.08        66.23808
916.47        65.79627
916.87        65.75249
917.26        66.00754
917.66        66.47742
918.05        67.02944
918.45        67.53288
918.84        68.04787
919.24        68.37961
919.64         68.3602
920.03        67.98306
920.42        67.27925
920.82        66.53851
921.21        66.11956
921.61        66.12231
922.00        66.47706
922.40        66.98128
922.79        67.35178
923.19        67.45895
923.58        67.40325
923.98        67.28991
924.37        67.29874
924.77        67.46375
925.16         67.7177
925.55        67.95497
925.95        68.02299
926.34        67.90311
926.74        67.63782
927.13        67.32874
927.52        67.09558
927.92        66.98837
928.31        66.96206
928.70        66.96632
929.10         66.9063
929.49        66.75076
929.89        66.49643
930.28        66.22755
930.67        66.01704
931.07        65.89354
931.46        65.87299
931.85        65.85335
932.24        65.68507
932.64         65.3713
933.03        64.96979
933.42        64.67978
933.82        64.82283
934.21        65.46169
934.60        66.42082
934.99        67.46197
935.39        68.17754
935.78        68.48161
936.17        68.46886
936.56        68.08456
936.96        67.31122
937.35         66.2725
937.74        65.04179
938.13        64.02165
938.53        63.71435
938.92        64.14936
939.31        65.25535
939.70        66.61037
940.09        67.36551
940.49        67.22934
940.88        66.42614
941.27        65.44115
941.66        65.02312
942.05         65.3468
942.44        66.24306
942.84        67.23827
943.23        67.54383
943.62        66.91763
944.01        65.63447
944.40        64.38683
944.79        64.17776
945.18         65.1827
945.57           67.09
945.97        69.08321
946.36        69.97731
946.75        69.32745
947.14        67.53906
947.53        65.42909
947.92        64.22192
948.31        64.24191
948.70        65.17268
949.09        66.42205
949.48        66.92595
949.87        66.37623
950.26        65.14754
950.65        63.87622
951.04        63.42188
951.43        63.95952
951.82         65.2257
952.21         66.6544
952.60         67.2375
952.99        66.68016
953.38        65.31673
953.77         63.8446
954.16         63.1772
954.55        63.49853
954.94        64.62435
955.33        65.95792
955.72        66.24855
956.11        65.13293
956.50        63.09332
956.89        61.11245
957.28        60.44714
957.66        61.35456
958.05        63.40042
958.44        65.83812
958.83        67.13503
959.22        66.75464
959.61        65.23179
960.00        63.36378
960.39        62.15152
960.78        61.80558
961.16        62.04753
961.55        62.53218
961.94        62.67389
962.33        62.28125
962.72        61.64633
963.11        61.06009
963.49        60.87555
963.88        61.15775
964.27        61.75536
964.66        62.51345
965.04        63.22873
965.43         63.7085
965.82        64.00936
966.21        64.14716
966.60        64.14807
966.98        64.06396
967.37        63.92751
967.76        63.72456
968.15        63.42283
968.53        63.02862
968.92        62.51318
969.31         62.1582
969.69        62.48223
970.08        63.55549
970.47        65.34795
970.86        67.15373
971.24        67.75947
971.63         66.8868
972.02        64.93179
972.40        62.95379
972.79        62.63724
973.17        64.26376
973.56         67.1908
973.95        70.43302
974.33        72.11739
974.72        71.58608
975.11        69.50854
975.49        66.80109
975.88        65.16743
976.26        65.04944
976.65        65.88979
977.04        67.25755
977.42        68.36071
977.81        68.72678
978.19        68.74731
978.58        68.47527
978.96        67.85068
979.35        67.01082
979.74        65.92495
980.12         64.9963
980.51         64.9296
980.89        65.92162
981.28        67.63557
981.66        69.73358
982.05        71.32714
982.43        72.20537
982.82        72.52176
983.20        72.21562
983.59        71.16919
983.97        69.55061
984.35        67.42172
984.74        65.58083
985.12         65.1126
985.51        66.09837
985.89         68.3885
986.28        70.86147
986.66         71.9596
987.04         71.0836
987.43        68.67805
987.81        65.72707
988.20        64.30341
988.58        64.90643
988.96         67.0315
989.35        69.28633
989.73        69.61223
990.12        67.48674
990.50        63.73259
990.88        59.67129
991.27        57.42471
991.65        57.51307
992.03        59.26961
992.42           61.87
992.80        64.37048
993.18        66.27616
993.56        67.89983
993.95        69.05692
994.33        69.53049
994.71        69.23348
995.10        68.22058
995.48        66.92528
995.86        66.12605
996.24        66.02961
996.63         66.4211
997.01         67.2409
997.39        68.09821
997.77        68.76555
998.15        69.32654
998.54        69.60529
998.92        69.34768
999.30        68.52802
999.68        67.22402
1000.06        65.74581
1000.45        64.69506
1000.83        64.35599
1001.21         64.5941
1001.59        65.35712
1001.97        66.47214
1002.35        67.79107
1002.73        69.36398
1003.12        70.79381
1003.50          71.382
1003.88        71.08813
1004.26        70.09698
1004.64        69.02821
1005.02        68.99232
1005.40        70.15736
1005.78         72.0014
1006.16        73.96109
1006.54        75.28536
1006.92        75.77284
1007.30        75.70611
1007.69        74.92895
1008.07        73.30392
1008.45         70.9554
1008.83        68.03673
1009.21        65.40684
1009.59        64.44545
1009.97        65.42045
1010.35        67.88947
1010.73        71.02978
1011.11        73.38992
1011.49        74.44928
1011.86        74.67273
1012.24        73.93412
1012.62        72.30359
1013.00        69.90283
1013.38        66.51701
1013.76        62.98641
1014.14        61.19136
1014.52        61.79244
1014.90        64.52979
1015.28        67.79342
1015.66        68.87952
1016.04        67.18003
1016.41        63.47324
1016.79          59.292
1017.17         57.7418
1017.55        59.45031
1017.93        62.78152
1018.31        66.37141
1018.69        69.34343
1019.06        71.88101
1019.44        74.46486
1019.82        77.21665
1020.20        79.23283
1020.58        79.59031
1020.95        78.22932
1021.33        75.95777
1021.71        73.52499
1022.09        70.86344
1022.46        67.41753
1022.84        63.70676
1023.22        61.02785
1023.60        60.50267
1023.97        61.96067
1024.35        63.98379
1024.73        65.00513
