SpectraSmart Spectrum 2.9.0.0
--------- Device Information -----------
Spectrum Name :  反射率_0
Saving Time :  2024/04/30 00:01:02
Spectro-Module Model Name : SE2030-DUVN
Spectro-Module Serial Number : OS361AC55029948
Wavelength Start : 200
Wavelength End : 1025
Wavelength Unit : Wavelength(nm)
Spectrum Unit : Reflectance(%)
-----------Spectrum Setting ------------
Integration Time : 20ms
Average : 10
Boxcar : 0
Background removal :  enabled
linearity correction :  enabled
SC :  disabled
Intensity correction :  disabled
DWT denoise :  enabled
savitzky-golay :  disabled
FFT :  disabled
Running average :  disabled
Kalman :  disabled
High pass :  disabled
---------------BEGIN--------------------
Wavelength(nm)             Reflectance(%)
200.29               0
200.75         60.3411
201.21        61.80196
201.67        64.30227
202.13        64.24411
202.58        60.32158
203.04        52.66999
203.50        45.21645
203.96        47.27076
204.42        61.37948
204.88        83.46648
205.34        102.4853
205.80        103.5373
206.26        89.18777
206.72         70.0663
207.18        53.18806
207.64        41.84267
208.10        34.81458
208.55        29.67252
209.01        26.37822
209.47        26.50062
209.93        29.66217
210.39        34.78635
210.85        39.46379
211.31        41.77759
211.77        41.84997
212.23        39.78586
212.69        36.52587
213.14        36.66455
213.60        41.18102
214.06        47.40148
214.52        52.60036
214.98        55.48854
215.44        56.73027
215.90        57.12743
216.36        57.74005
216.81        60.45275
217.27        66.33698
217.73        75.66086
218.19        87.47935
218.65        95.26354
219.11        94.39366
219.57        87.35177
220.02        78.96578
220.48        72.46477
220.94        66.73676
221.40        60.03248
221.86        51.65261
222.32        43.87943
222.77         39.7118
223.23        39.26409
223.69        39.73985
224.15        38.85753
224.61        36.35608
225.06         32.3295
225.52        28.38814
225.98        27.90815
226.44        31.09774
226.90        35.69778
227.36        39.17419
227.81        39.79586
228.27        37.85588
228.73        33.95204
229.19        29.69822
229.65        28.51338
230.10        30.89284
230.56        34.87312
231.02        38.32652
231.48         39.4802
231.93        38.35741
232.39        35.73243
232.85           32.54
233.31        30.54806
233.77        30.38751
234.22        31.65585
234.68        33.42112
235.14        33.97217
235.60        32.90727
236.05        30.92808
236.51        29.20143
236.97        29.19237
237.43        31.32876
237.88        35.58801
238.34        41.48359
238.80         46.9178
239.26         49.9034
239.71        50.62431
240.17        49.79313
240.63        49.13902
241.08        49.39531
241.54        50.16306
242.00        52.27593
242.46        57.38262
242.91        65.55291
243.37         74.6889
243.83        81.85105
244.28         86.0386
244.74        87.75606
245.20         86.4899
245.66        82.94418
246.11        79.47141
246.57        77.45705
247.03        77.40255
247.48        77.30375
247.94        72.92721
248.40        65.91055
248.85        59.22186
249.31        55.54501
249.77        55.50506
250.22        58.90903
250.68        66.45343
251.14        77.94626
251.59        84.21475
252.05        79.03624
252.51        69.68999
252.96         62.4832
253.42        59.69743
253.88        59.83705
254.33        61.48443
254.79        63.89424
255.25         64.8484
255.70         63.8234
256.16        62.41295
256.62        61.16272
257.07        60.29795
257.53        59.99958
257.99        59.77961
258.44        59.19026
258.90        58.39503
259.35        57.16494
259.81        56.04115
260.27        54.97155
260.72        53.90925
261.18        52.96773
261.63        51.85163
262.09        50.72803
262.55        49.53554
263.00        48.26913
263.46        47.16019
263.91        45.96856
264.37        44.64407
264.83        43.12989
265.28        41.42868
265.74        39.92715
266.19        39.02016
266.65        38.80112
267.11        39.04394
267.56         39.3368
268.02        39.08755
268.47         38.1571
268.93        36.73054
269.38        35.08419
269.84        33.82788
270.30        33.12756
270.75        32.79897
271.21        32.59172
271.66        32.11869
272.12        31.28521
272.57        30.21343
273.03        29.08072
273.48        28.07936
273.94        27.33268
274.39        26.73744
274.85        26.25103
275.31        25.76394
275.76        25.22731
276.22        24.68864
276.67        24.16625
277.13        23.75078
277.58        23.41018
278.04        23.14246
278.49        22.82399
278.95         22.3552
279.40        21.70304
279.86        20.97871
280.31        20.27677
280.77         19.8352
281.22        19.65495
281.68        19.66722
282.13        19.75448
282.59        19.78104
283.04        19.69159
283.50        19.51709
283.95        19.25941
284.41        18.92267
284.86        18.52467
285.32        18.10331
285.77        17.66681
286.22        17.28324
286.68        16.97798
287.13        16.70838
287.59        16.51845
288.04        16.42318
288.50        16.42171
288.95        16.48451
289.41        16.53305
289.86        16.42466
290.32        16.16444
290.77        15.80438
291.22         15.4578
291.68        15.30552
292.13        15.38065
292.59         15.6274
293.04        16.01042
293.50        16.49082
293.95        17.03902
294.40        17.67362
294.86        18.29529
295.31         18.7639
295.77        19.06022
296.22        19.21742
296.68        19.39777
297.13        19.84267
297.58        20.60194
298.04        21.56162
298.49        22.56575
298.95        23.35659
299.40        23.87343
299.85        24.21386
300.31        24.46801
300.76        24.72423
301.21        25.06098
301.67        25.46137
302.12        25.95566
302.58        26.72482
303.03        27.77147
303.48        28.91309
303.94        30.02297
304.39        31.62325
304.84        32.46573
305.30        33.57425
305.75        34.65336
306.20        35.86596
306.66        37.23777
307.11        38.70555
307.57        40.24312
308.02        41.74868
308.47        43.23414
308.93        44.74715
309.38        46.31523
309.83        48.01988
310.29        49.86353
310.74        51.79813
311.19        53.74841
311.65         55.6018
312.10        57.32426
312.55        58.94932
313.00        60.57262
313.46        62.35046
313.91        64.29967
314.36        66.37356
314.82        68.44988
315.27        70.35406
315.72        72.00999
316.18        73.45712
316.63        74.75746
317.08        76.03388
317.53        77.32757
317.99        78.61458
318.44        79.83161
318.89        80.89703
319.35        81.79842
319.80        82.57051
320.25        83.32719
320.70        84.24481
321.16        85.33169
321.61        86.57378
322.06         87.7654
322.51        88.57651
322.97        88.92195
323.42        88.90818
323.87        88.75856
324.32        88.85464
324.78        89.28375
325.23        89.99697
325.68        90.79773
326.13        91.34795
326.59        91.53377
327.04        91.49387
327.49        91.40286
327.94        91.58453
328.39        92.11302
328.85        92.83544
329.30        93.61886
329.75        94.06123
330.20        94.05582
330.66        93.72971
331.11        93.29749
331.56        93.03249
332.01         93.0517
332.46        93.28573
332.92        93.66623
333.37        94.20775
333.82        94.82018
334.27        95.50294
334.72        96.20415
335.17        96.82903
335.63        97.32109
336.08        97.74876
336.53        98.04372
336.98        98.17233
337.43         98.1557
337.88        98.00269
338.34        97.89799
338.79        98.15315
339.24        98.81539
339.69        99.82645
340.14        100.8901
340.59        101.4941
341.05        101.5315
341.50        101.1581
341.95        100.7205
342.40        100.7907
342.85        101.4871
343.30        102.5936
343.75        103.7995
344.20          104.61
344.66        104.8954
345.11        104.8329
345.56        104.5615
346.01        104.2932
346.46        104.1352
346.91        104.0162
347.36        104.0337
347.81        104.3458
348.26        104.9452
348.72        105.7756
349.17        106.6435
349.62        107.1434
350.07        107.1745
350.52        106.8652
350.97        106.4182
351.42        106.1551
351.87        106.1744
352.32        106.3758
352.77        106.7094
353.22        107.0984
353.67        107.4725
354.13        107.8194
354.58        108.0612
355.03        108.0655
355.48         107.795
355.93        107.2815
356.38        106.5537
356.83        105.6664
357.28        104.6775
357.73        103.6157
358.18        102.5841
358.63        101.7312
359.08        101.0877
359.53        100.6156
359.98        100.2358
360.43        99.80772
360.88        99.28606
361.33        98.71166
361.78        98.08891
362.23        97.42996
362.68        96.75164
363.13        96.04282
363.58        95.36127
364.03         94.8037
364.48        94.38147
364.93         94.0659
365.38        93.76999
365.83        93.35355
366.28        92.78059
366.73        92.08508
367.18        91.34198
367.63         90.6693
368.08        90.09498
368.53        89.58932
368.98        89.08598
369.43        88.47464
369.88        87.74702
370.33        86.96266
370.78        86.21085
371.23        85.63528
371.68        85.26198
372.13        85.01241
372.58        84.83061
373.03        84.62876
373.48         84.3504
373.93        84.01474
374.38        83.53378
374.83        82.77922
375.28         81.7785
375.72        80.58533
376.17        79.46538
376.62        78.66362
377.07        78.22182
377.52        78.05311
377.97        78.02701
378.42        77.92438
378.87        77.67056
379.32        77.32423
379.77        76.91975
380.22        76.50784
380.67        76.09871
381.11        75.65677
381.56        75.18534
382.01        74.71804
382.46        74.27639
382.91        73.88327
383.36        73.51193
383.81        73.10597
384.26        72.65873
384.71        72.18247
385.15         71.7382
385.60        71.47467
386.05         71.3838
386.50        71.41296
386.95        71.43729
387.40        71.26996
387.85        70.88497
388.29        70.31348
388.74        69.76516
389.19        69.34235
389.64        69.07457
390.09        68.90245
390.54        68.78372
390.98        68.67133
391.43        68.57774
391.88        68.42087
392.33        68.18379
392.78        68.09479
393.23        68.06358
393.67         67.5221
394.12        66.67832
394.57        66.60281
395.02         66.3686
395.47        66.49454
395.91        66.59397
396.36        66.56648
396.81        66.37757
397.26        66.07633
397.71          65.731
398.15        65.41117
398.60        65.18922
399.05        64.93784
399.50        64.68746
399.95        64.55502
400.39        64.35203
400.84        64.67619
401.29        65.25137
401.74        65.35834
402.18        64.90586
402.63        64.22575
403.08        63.60258
403.53        63.32714
403.97        63.46886
404.42        63.92086
404.87        64.43555
405.32         64.6078
405.76        64.33911
406.21        63.82011
406.66        63.21485
407.11        62.78072
407.55        62.65122
408.00        62.68544
408.45         62.8485
408.90         63.3057
409.34        63.83516
409.79        63.74789
410.24        63.21686
410.68        63.13433
411.13        63.55897
411.58        63.98968
412.03        64.27938
412.47        64.41576
412.92        64.32515
413.37        64.05096
413.81        63.69519
414.26        63.47842
414.71        63.42316
415.15        63.49824
415.60        63.62933
416.05        63.72807
416.49        63.77201
416.94        63.79675
417.39        63.83341
417.83         63.9088
418.28        64.03981
418.73        64.20794
419.17        64.40889
419.62        64.65474
420.07        64.91486
420.51        65.15942
420.96        65.38656
421.41        65.48442
421.85        65.41688
422.30        65.48196
422.74        65.58908
423.19         65.2637
423.64        64.70006
424.08        64.93047
424.53        65.85195
424.98        66.36043
425.42        66.34535
425.87         66.5793
426.31         67.0006
426.76        66.81699
427.21         66.0772
427.65        66.14355
428.10         66.8551
428.54        67.01552
428.99        66.65755
429.44        66.50011
429.88         66.6189
430.33        66.81849
430.77           67.03
431.22        67.52415
431.66        68.16213
432.11        68.20075
432.56         67.6972
433.00        67.60815
433.45        68.16831
433.89        68.21898
434.34        68.64838
434.78        69.89796
435.23        68.48023
435.67        68.06758
436.12        67.81667
436.57        68.18496
437.01         69.0106
437.46        69.49715
437.90        69.60199
438.35        69.89342
438.79        70.35469
439.24        70.54849
439.68        70.51607
440.13        70.62065
440.57        70.87447
441.02        71.04156
441.46         71.0808
441.91        71.21449
442.35        71.31178
442.80        71.28843
443.24        71.20799
443.69        70.98483
444.13        70.73407
444.58        70.64824
445.02        70.70637
445.47        70.90298
445.91        71.16753
446.36        71.33224
446.80        71.33153
447.24        71.62362
447.69        71.52249
448.13        71.61592
448.58        71.72186
449.02        71.81714
449.47        71.93542
449.91        72.10945
450.36        72.35435
450.80        72.63436
451.25        72.89548
451.69        73.01337
452.13        72.97427
452.58        72.85299
453.02        72.74062
453.47        72.67894
453.91        72.65573
454.36        72.97346
454.80        73.32529
455.24        73.04732
455.69        73.60142
456.13         73.5145
456.58        73.42185
457.02        72.50508
457.46        72.78687
457.91        72.60917
458.35        72.47774
458.79         72.4544
459.24        72.60291
459.68        72.71455
460.13        72.64867
460.57        73.07442
461.01        73.13849
461.46        72.41427
461.90        72.00407
462.34        72.74039
462.79        72.56501
463.23        72.58877
463.68          72.159
464.12        71.94528
464.56        71.96291
465.01        71.86751
465.45        71.66383
465.89        71.69904
466.34        71.95112
466.78        72.09525
467.22        72.20924
467.67        72.18294
468.11        72.06635
468.55        71.78183
468.99        71.42888
469.44        71.18228
469.88        71.08205
470.32         71.1004
470.77        71.16965
471.21        71.20197
471.65        71.15678
472.10        71.07852
472.54        71.01309
472.98        71.05686
473.42        71.20982
473.87        71.47445
474.31        71.73409
474.75        71.71108
475.20        71.41022
475.64        71.27615
476.08        71.39825
476.52        71.08847
476.97        70.24462
477.41        71.01403
477.85        70.56905
478.29        69.89855
478.74        70.95878
479.18        71.03658
479.62        70.67211
480.06        70.60406
480.50        70.78063
480.95        70.65609
481.39        71.20222
481.83        70.42223
482.27         71.3945
482.72        71.39524
483.16        71.41238
483.60        71.44203
484.04        71.53539
484.48        71.70983
484.93        71.78071
485.37        71.23361
485.81        70.57092
486.25        69.70385
486.69        71.32526
487.14        71.46282
487.58        70.29317
488.02        70.46684
488.46        70.98347
488.90        71.19924
489.34        70.63374
489.79        71.19198
490.23        70.49864
490.67        70.49556
491.11        70.48109
491.55        70.31967
491.99        70.06158
492.43         69.9991
492.88        70.16305
493.32        70.42427
493.76         70.6889
494.20         70.8772
494.64        70.95307
495.08        70.92618
495.52        70.82199
495.96        70.73563
496.41        70.71387
496.85        70.65981
497.29        70.51041
497.73        70.70679
498.17        70.41737
498.61        70.22676
499.05        69.98483
499.49        69.97993
499.93        70.10854
500.37        70.06596
500.82        69.94494
501.26        69.49948
501.70        69.82203
502.14        70.11736
502.58        70.07073
503.02        70.20576
503.46        70.33531
503.90        70.44168
504.34        70.50799
504.78        70.54556
505.22        70.53223
505.66        70.51736
506.10        70.52854
506.54          70.437
506.98        70.18751
507.42        70.71313
507.86         69.9566
508.30        70.30419
508.74        69.88258
509.18        69.74618
509.62        69.57359
510.06        69.55097
510.50        69.70514
510.94        69.98191
511.38        70.28542
511.82        70.41802
512.26        70.33622
512.70         70.1008
513.14        69.82012
513.58        69.66219
514.02        69.67261
514.46        69.80097
514.90        69.98052
515.34        70.10364
515.78        70.13355
516.22        70.10117
516.66        70.04602
517.10        70.02592
517.54        70.05362
517.98        70.10532
518.42        70.13742
518.86        70.08635
519.30        69.94452
519.74         69.7428
520.18        69.54383
520.62        69.43606
521.06        69.44637
521.50        69.55999
521.93         69.7298
522.37         69.8533
522.81        69.90878
523.25        69.90617
523.69        69.90717
524.13        70.01154
524.57        70.22696
525.01        70.51244
525.45        70.75375
525.89        70.76993
526.32        70.52315
526.76         70.1081
527.20         69.6618
527.64        69.39732
528.08        69.36652
528.52        69.50259
528.96        69.71981
529.40        69.87888
529.83        69.92719
530.27        69.91545
530.71        69.86183
531.15        69.80026
531.59        69.74698
532.03          69.686
532.46        69.61485
532.90        69.56586
533.34        69.53785
533.78         69.5324
534.22        69.54663
534.66        69.57065
535.09        69.59235
535.53        69.62504
535.97        69.65179
536.41        69.66265
536.85        69.65289
537.28        69.61845
537.72        69.56555
538.16        69.50001
538.60        69.42509
539.04        69.34502
539.47        69.24632
539.91        69.16302
540.35        69.08513
540.79        69.02679
541.22        68.98817
541.66        68.98022
542.10        68.99992
542.54        69.04426
542.97        69.11461
543.41        69.23431
543.85        69.38788
544.29        69.57592
544.72        69.72371
545.16        69.75513
545.60        69.65736
546.04          69.427
546.47        69.16317
546.91        69.16317
547.35        69.41877
547.79        69.59171
548.22        69.58482
548.66         69.8718
549.10        70.04299
549.53        70.06828
549.97          69.724
550.41        70.31722
550.84        69.73969
551.28         69.5395
551.72        69.17697
552.15        69.43769
552.59        69.32803
553.03        69.67659
553.46        69.11351
553.90        69.08157
554.34        69.23181
554.77         69.3767
555.21        69.46321
555.65        69.39438
556.08        69.23289
556.52        69.26552
556.96        69.48057
557.39        69.68214
557.83        69.83544
558.27        69.93452
558.70        69.98688
559.14        70.02836
559.57        70.03635
560.01        70.07477
560.45        70.12577
560.88        69.87639
561.32        69.74591
561.75         69.7258
562.19         69.8909
562.63        69.89211
563.06        69.72849
563.50        69.68471
563.93        69.72493
564.37        69.71139
564.80        69.62273
565.24        69.54107
565.68        69.48774
566.11        69.52339
566.55        69.65665
566.98        69.74371
567.42        69.82178
567.85        69.89088
568.29        69.96178
568.72        69.99903
569.16        70.44138
569.60        69.89609
570.03        70.23151
570.47        70.27025
570.90        70.51123
571.34        70.01917
571.77        70.35117
572.21         70.2756
572.64        70.25368
573.08        70.26753
573.51        69.94003
573.95        70.40952
574.38        70.60204
574.82        70.24878
575.25         70.2112
575.69        70.26176
576.12        69.93067
576.56        69.44028
576.99         69.8945
577.42        69.84048
577.86        69.58392
578.29        69.81825
578.73         70.5497
579.16        69.99057
579.60        69.88531
580.03        70.17828
580.47        70.62063
580.90        70.60756
581.33        69.93285
581.77        69.60632
582.20        69.97146
582.64        70.39423
583.07        69.83058
583.51        69.60283
583.94        69.62554
584.37        69.37224
584.81        69.10301
585.24        69.49926
585.68        69.94524
586.11        70.67512
586.54        69.80465
586.98        69.29876
587.41        70.28539
587.85        70.56045
588.28        70.49815
588.71        70.68234
589.15        69.74387
589.58        70.05032
590.01        69.54564
590.45        69.70445
590.88        70.01614
591.31        70.29572
591.75        70.29126
592.18        70.34951
592.61        70.71255
593.05        69.33314
593.48        70.18747
593.91         70.9886
594.35        69.67161
594.78        69.44538
595.21        69.37952
595.65        70.12038
596.08        69.62649
596.51        69.70296
596.94         70.0281
597.38        70.17016
597.81         70.1538
598.24        70.08441
598.68        70.15582
599.11         69.5033
599.54        70.28987
599.97        70.71283
600.41         69.4271
600.84        69.68182
601.27        69.71844
601.70        69.84338
602.14        70.12135
602.57        69.86033
603.00        69.61433
603.43        69.63345
603.87        69.74848
604.30        70.41917
604.73        70.03801
605.16        69.97173
605.60        69.80815
606.03        69.98036
606.46        70.30127
606.89         70.4342
607.32        70.01157
607.76        69.91942
608.19        70.13962
608.62        70.14471
609.05        69.91687
609.48        70.24719
609.92          70.403
610.35        69.89283
610.78        70.60143
611.21         69.8812
611.64        69.95739
612.07        70.09412
612.50        70.07781
612.94        70.21202
613.37        70.36518
613.80        70.39384
614.23        70.63541
614.66        70.67976
615.09        70.61868
615.52        70.53326
615.96        70.44717
616.39        70.24583
616.82        69.92574
617.25        70.12115
617.68        69.68423
618.11        69.87046
618.54        70.21243
618.97        70.19005
619.40        69.86077
619.84        69.77036
620.27        69.99583
620.70        70.28694
621.13        70.50577
621.56        70.28269
621.99        70.04428
622.42        69.54605
622.85        70.24475
623.28        70.06255
623.71        70.63898
624.14        69.46782
624.57        70.28841
625.00        70.15248
625.43        70.06004
625.86        69.83824
626.29        69.79327
626.72        69.73114
627.15        69.71013
627.58        69.77031
628.01        69.85564
628.44        69.86333
628.87         69.8214
629.30        69.81268
629.73         69.8046
630.16        70.18201
630.59        69.85606
631.02        70.02768
631.45        70.09443
631.88        70.03027
632.31        69.66802
632.74         70.2421
633.17        69.69895
633.60        69.70043
634.03        69.64124
634.46        69.56242
634.89        69.46854
635.32        69.41734
635.75        69.43382
636.18        69.47852
636.61        69.52848
637.04         69.5555
637.47        69.56292
637.89        69.51452
638.32        69.39371
638.75        69.37601
639.18         69.5026
639.61         69.0787
640.04        69.35016
640.47        69.23652
640.90        69.14757
641.33        69.23882
641.76        69.46043
642.18        69.55141
642.61         69.4466
643.04        69.28219
643.47        69.15249
643.90         69.1395
644.33        69.25929
644.76         69.5751
645.18        69.93067
645.61        69.87807
646.04        69.32017
646.47         69.1321
646.90        69.28818
647.33        69.28785
647.75         69.1256
648.18         69.1388
648.61        69.31055
649.04        69.43046
649.47        69.48141
649.89        69.58473
650.32        69.68601
650.75        69.67207
651.18         69.5902
651.61         69.5713
652.03        69.67816
652.46        69.89564
652.89        70.00176
653.32        69.98969
653.74        70.03004
654.17        69.19908
654.60        68.60445
655.03        70.81615
655.46        68.53104
655.88         70.0774
656.31          70.744
656.74        72.28068
657.16        72.44366
657.59        70.29803
658.02        69.11729
658.45        70.09945
658.87        70.30353
659.30         70.1985
659.73        70.45708
660.15        70.62617
660.58        70.38744
661.01        70.21156
661.44         69.9709
661.86        69.56015
662.29        69.12087
662.72        69.39834
663.14        70.19354
663.57        70.09856
664.00         69.2653
664.42        69.04961
664.85        69.51514
665.27        69.85666
665.70         69.9702
666.13        70.10706
666.55        70.24668
666.98        70.30079
667.41        70.28378
667.83        70.22211
668.26         70.1223
668.69        70.00017
669.11        69.88171
669.54        69.80077
669.96        69.76701
670.39        69.79227
670.82        69.85524
671.24        69.87859
671.67        69.85974
672.09        69.91123
672.52        70.02804
672.94        70.17209
673.37        69.79441
673.80         70.1938
674.22        69.83689
674.65        69.92258
675.07        70.05356
675.50        70.23832
675.92        70.40824
676.35        70.44289
676.77        70.33982
677.20        70.11992
677.62        69.88199
678.05        69.78239
678.47        69.85294
678.90        70.05166
679.32        70.28432
679.75         70.4109
680.17        70.38689
680.60        70.26545
681.02        70.11573
681.45        70.04221
681.87        70.07407
682.30        70.19068
682.72        70.35813
683.15        70.38087
683.57        70.30827
684.00        70.40289
684.42         70.6158
684.85        70.71404
685.27        70.69138
685.70        70.52711
686.12        70.34777
686.54        70.71097
686.97        71.44524
687.39        71.69586
687.82        71.39124
688.24        71.25076
688.66        71.28891
689.09        70.99346
689.51        70.58081
689.94         70.3067
690.36         70.2529
690.78        70.31742
691.21        70.45062
691.63        70.58028
692.06        70.66537
692.48         70.7239
692.90        70.75348
693.33        70.75565
693.75        70.72732
694.17         70.6556
694.60        70.59318
695.02        70.53626
695.44         70.5066
695.87         70.8171
696.29        71.31097
696.71         71.0946
697.14        70.36227
697.56        70.34593
697.98        70.98985
698.41        71.24221
698.83        71.05924
699.25        71.04929
699.68        71.19649
700.10        71.23747
700.52        71.14663
700.94        71.01766
701.37        70.85725
701.79        70.69466
702.21        70.54143
702.64        70.39604
703.06        70.30156
703.48        70.34128
703.90        70.52232
704.33        70.82871
704.75        71.14178
705.17        71.33425
705.59        71.34516
706.01        71.21655
706.44        71.03464
706.86        70.95761
707.28        71.02241
707.70         71.1519
708.12        71.30536
708.55        71.47234
708.97        71.59949
709.39        71.56009
709.81        71.40413
710.23        71.37211
710.66        71.48897
711.08         71.6469
711.50        71.79216
711.92        71.92402
712.34        72.02615
712.76         72.0976
713.19        72.12948
713.61        72.15402
714.03         72.1582
714.45         72.1445
714.87        72.12126
715.29        72.09985
715.71        72.08332
716.13        72.06875
716.56        72.04335
716.98        72.07516
717.40        72.13697
717.82        72.21944
718.24        72.29111
718.66        72.30213
719.08        72.24342
719.50        72.13113
719.92        71.99942
720.34        71.90405
720.76        71.86134
721.19         71.8476
721.61        71.85895
722.03        71.85954
722.45        71.83855
722.87        71.80747
723.29        71.77045
723.71        71.73177
724.13        71.69389
724.55        71.65786
724.97        71.64123
725.39        71.62659
725.81         71.6119
726.23        71.68813
726.65        71.86224
727.07        71.71153
727.49        71.92024
727.91        71.91557
728.33        71.93434
728.75        72.01943
729.17        72.19406
729.59        72.39645
730.01        72.50237
730.43        72.49429
730.85        72.39317
731.27        71.61517
731.69        71.46361
732.10         71.3373
732.52        71.62087
732.94         72.1938
733.36        72.87473
733.78        73.32665
734.20        73.42853
734.62        73.24083
735.04        72.94968
735.46        72.80769
735.88        72.88083
736.30        72.95889
736.72         72.9767
737.13        73.06963
737.55        73.11362
737.97        72.79138
738.39        72.26677
738.81        72.07186
739.23        72.27622
739.65        72.68943
740.06        73.09309
740.48        73.25174
740.90        73.09332
741.32        72.72327
741.74        72.29364
742.16         72.0648
742.57        72.12614
742.99         72.3181
743.41        72.56724
743.83        72.88871
744.25        73.16748
744.67         73.1133
745.08        72.80817
745.50        72.67928
745.92        72.77872
746.34        72.84798
746.75        72.88865
747.17        72.98679
747.59        73.13126
748.01        73.38712
748.42        73.65507
748.84        73.58463
749.26        73.25632
749.68        73.03741
750.09        72.99313
750.51         73.1256
750.93        73.32343
751.35        73.28704
751.76        73.05005
752.18        72.93713
752.60           72.95
753.01        73.07014
753.43         72.8884
753.85        72.85986
754.27        72.88961
754.68        72.97293
755.10        73.08018
755.52         73.1805
755.93        73.24344
756.35        73.23051
756.77        73.22874
757.18        73.38113
757.60        73.70901
758.02        74.27899
758.43        74.70905
758.85        74.76735
759.26        73.26157
759.68        72.75842
760.10        72.93819
760.51        73.53511
760.93        73.67802
761.34        73.82639
761.76        73.73637
762.18        73.81728
762.59        73.99301
763.01        73.47305
763.42        72.50906
763.84        72.13325
764.26        72.46848
764.67        72.88735
765.09        73.28662
765.50        73.89597
765.92        74.52304
766.33          74.551
766.75         73.9852
767.16        73.71711
767.58        73.81613
768.00        73.68401
768.41        73.36578
768.83        73.55314
769.24        74.05678
769.66        73.87545
770.07        73.15675
770.49        73.02989
770.90        73.50049
771.32        73.81178
771.73        73.89059
772.15        73.94015
772.56        73.94746
772.97        74.05658
773.39        73.80072
773.80        73.84705
774.22        74.03114
774.63        74.34345
775.05         74.6377
775.46        74.78229
775.88        74.70676
776.29        74.49833
776.70         74.2217
777.12        73.99783
777.53        73.88357
777.95        73.84021
778.36        73.87257
778.77        73.97107
779.19        74.11804
779.60        74.34225
780.02        74.58003
780.43        74.80376
780.84        74.98198
781.26        75.01463
781.67        74.96151
782.09        75.13371
782.50        75.48127
782.91        75.39093
783.33        75.19091
783.74        74.95661
784.15         74.8095
784.57        74.58164
784.98         74.3456
785.39        74.21302
785.81        74.35796
786.22        74.60516
786.63        74.95952
787.04        75.35268
787.46        75.74393
787.87        76.10957
788.28        76.41294
788.70        76.58728
789.11        76.60863
789.52        76.54553
789.93        76.41525
790.35        76.15462
790.76        75.85342
791.17        75.73264
791.58        75.79948
792.00        75.84056
792.41        75.85818
792.82        75.98161
793.23        76.19379
793.65        76.33721
794.06        76.42983
794.47         76.6305
794.88         76.8467
795.29        76.81994
795.71        76.50626
796.12        76.06059
796.53        75.64776
796.94        75.54302
797.35        75.82637
797.76         76.4171
798.18        77.08614
798.59        77.50533
799.00        77.55499
799.41        77.33297
799.82        76.97326
800.23        76.71017
800.64        76.62782
801.06        76.63099
801.47        76.71837
801.88        76.80795
802.29        76.86453
802.70        76.91037
803.11        76.95321
803.52        76.99153
803.93        77.03848
804.34        77.09874
804.75        77.13162
805.17        77.14455
805.58        77.17942
805.99        77.00424
806.40        76.75369
806.81        77.16291
807.22        78.01235
807.63        78.05285
808.04        77.35533
808.45        77.13168
808.86        77.46538
809.27        77.65726
809.68        77.61443
810.09        77.54467
810.50        77.44218
810.91        77.24619
811.32        77.07983
811.73         77.1411
812.14        77.45729
812.55        77.97979
812.96        78.52094
813.37         78.7261
813.78           78.51
814.19        78.00717
814.60        77.41863
815.01         77.0253
815.42        76.90112
815.83        76.96147
816.24        77.15796
816.65        77.39025
817.05        77.59551
817.46        77.76427
817.87        77.88245
818.28        77.86694
818.69        77.71609
819.10        77.44675
819.51        77.13747
819.92        76.95175
820.33        76.94534
820.74        77.06912
821.14        77.28571
821.55        77.53847
821.96         77.7859
822.37        78.04857
822.78        78.25707
823.19        78.28732
823.60        78.11353
824.00        77.76274
824.41        77.34911
824.82        77.09191
825.23        77.04297
825.64        77.16257
826.04        77.35963
826.45         77.3802
826.86        77.19444
827.27        76.87878
827.68        76.56662
828.08         76.4863
828.49        76.64715
828.90        77.01613
829.31        77.48694
829.72        77.87927
830.12        78.15634
830.53        78.26991
830.94        78.34198
831.35        78.53348
831.75        78.89432
832.16        79.29511
832.57        79.59713
832.97        79.53091
833.38        79.06819
833.79        78.37834
834.20        77.66235
834.60        77.18554
835.01        77.05101
835.42        77.13973
835.82        77.47064
836.23        77.99419
836.64        78.66576
837.04        79.51979
837.45        80.22722
837.86        80.40979
838.26         79.9923
838.67         79.0924
839.08        78.05849
839.48        77.42281
839.89        77.36197
840.29        77.72128
840.70        78.28973
841.11        78.72754
841.51         78.9408
841.92        78.99103
842.33        78.96925
842.73        79.00743
843.14        79.09689
843.54        79.21832
843.95          79.322
844.35        79.41173
844.76        79.45287
845.17        79.43295
845.57        79.40218
845.98        79.39801
846.38        79.44272
846.79        79.52507
847.19        79.51044
847.60        79.12303
848.00        78.37257
848.41        77.38581
848.81         76.4938
849.22        76.17944
849.62        76.57639
850.03        77.50311
850.43        78.71674
850.84        79.55161
851.24        79.84435
851.65        79.63864
852.05         79.1842
852.46        78.85445
852.86        78.74636
853.27        78.81191
853.67        78.79617
854.07        78.55943
854.48        78.02626
854.88        77.29958
855.29        76.52062
855.69        76.20823
856.10        76.41331
856.50        77.08586
856.90        77.85039
857.31        78.18743
857.71        78.01732
858.12         77.4447
858.52        76.75269
858.92        76.35789
859.33        76.37669
859.73        76.74042
860.13        77.24596
860.54         77.5817
860.94        77.69632
861.34        77.58266
861.75         77.3529
862.15        77.25359
862.55        77.29734
862.96        77.43757
863.36        77.39414
863.76         76.7592
864.17         75.5504
864.57        73.99129
864.97        72.53517
865.38        71.80525
865.78        71.97215
866.18        72.82961
866.58        74.12505
866.99        75.27981
867.39        76.05768
867.79        76.55416
868.19        76.70441
868.60        76.43776
869.00        75.81873
869.40        74.83614
869.80        73.89467
870.21        73.70754
870.61        74.46346
871.01        75.92766
871.41        77.51563
871.81        78.27742
872.22        77.96458
872.62        76.83421
873.02        75.36973
873.42        74.39101
873.82        74.16444
874.22        74.49969
874.63        75.00639
875.03         75.0809
875.43        74.59409
875.83        73.73527
876.23        72.98835
876.63        73.12888
877.03        74.28625
877.44        76.12512
877.84        78.00283
878.24        78.78458
878.64        78.23222
879.04        76.77401
879.44        75.04588
879.84        73.97807
880.24        73.79847
880.64        74.18446
881.04        74.91121
881.44        75.60561
881.84         76.1045
882.24        76.57365
882.65        76.83685
883.05        76.71616
883.45        76.17268
883.85        75.28046
884.25        74.44518
884.65        74.31277
885.05        74.97735
885.45         76.2058
885.85         77.6215
886.25        78.55454
886.65        78.76266
887.05        78.45778
887.45         77.7004
887.85        76.63416
888.25        75.45156
888.65        74.18338
889.04        73.12446
889.44        72.73805
889.84        73.01567
890.24        73.89298
890.64        75.04119
891.04        75.73338
891.44        75.72031
891.84        75.21515
892.24         74.5927
892.64        74.39188
893.04        74.71736
893.44        75.37401
893.83        76.20255
894.23        76.84132
894.63        77.18947
895.03        77.37756
895.43        77.43874
895.83        77.41767
896.23        77.34528
896.63         77.1533
897.02        76.95449
897.42        77.01088
897.82        77.33546
898.22        77.91156
898.62        78.42864
899.01        78.36759
899.41        77.63783
899.81        76.41933
900.21        75.20667
900.61        74.76215
901.00        75.22771
901.40        76.36515
901.80        77.64459
902.20        78.18469
902.59        77.75964
902.99        76.65926
903.39        75.35704
903.79         74.5625
904.18        74.45963
904.58         74.8479
904.98        75.42881
905.38        75.75886
905.77        75.68881
906.17        75.36484
906.57        74.99102
906.96        74.90572
907.36        75.14782
907.76        75.61837
908.15         76.0658
908.55        75.96334
908.95        75.29452
909.34        74.26023
909.74        73.32475
910.14        73.04941
910.53        73.59171
910.93        74.70349
911.33        76.15973
911.72        77.61773
912.12         78.8138
912.52        79.82549
912.91        80.56086
913.31        80.85354
913.70        80.70245
914.10        80.11604
914.49        79.24978
914.89        78.35382
915.29        77.55859
915.68         76.8698
916.08         76.3959
916.47        76.13685
916.87        76.13528
917.26        76.35941
917.66        76.76769
918.05        77.30308
918.45        77.85188
918.84        78.43095
919.24        78.86592
919.64        79.04103
920.03        78.93876
920.42        78.58154
920.82        78.11915
921.21        77.68879
921.61        77.36433
922.00        77.13297
922.40         77.0225
922.79         77.1572
923.19         77.4977
923.58        78.02739
923.98         78.5613
924.37        78.81818
924.77        78.73164
925.16        78.37705
925.55        77.91498
925.95        77.62896
926.34        77.61903
926.74        77.78381
927.13        78.00584
927.52        78.05756
927.92        77.88827
928.31         77.5645
928.70        77.19321
929.10        76.92081
929.49        76.79373
929.89         76.7296
930.28        76.69632
930.67        76.56263
931.07        76.30636
931.46        76.01481
931.85        75.72585
932.24        75.48919
932.64        75.34328
933.03        75.28547
933.42        75.36786
933.82        75.66103
934.21        76.16602
934.60         76.7681
934.99        77.39228
935.39        77.89886
935.78        78.27886
936.17         78.5443
936.56        78.47467
936.96         77.7785
937.35        76.51437
937.74        74.87094
938.13         73.4132
938.53        72.84219
938.92        73.22526
939.31         74.4397
939.70        75.98312
940.09        76.86034
940.49        76.72893
940.88        75.85174
941.27         74.7953
941.66        74.42912
942.05        74.94876
942.44        76.14377
942.84        77.42108
943.23         77.8091
943.62        77.00282
944.01        75.34151
944.40        73.67976
944.79        73.24799
945.18        74.28477
945.57        76.44946
945.97         78.7827
946.36        79.85744
946.75        79.15797
947.14        77.14248
947.53        74.85047
947.92        73.85556
948.31        74.52981
948.70        76.44008
949.09        78.64783
949.48        79.46716
949.87        78.44453
950.26        76.19968
950.65        73.78393
951.04        72.62919
951.43        73.04999
951.82        74.61984
952.21        76.61573
952.60        77.71429
952.99        77.46764
953.38        76.29917
953.77         74.9313
954.16         74.3117
954.55        74.64986
954.94        75.72404
955.33        76.94923
955.72         77.1429
956.11         75.9724
956.50         73.9166
956.89        71.96232
957.28        71.35524
957.66        72.35453
958.05        74.53669
958.44        77.11213
958.83        78.45047
959.22        78.00659
959.61        76.35904
960.00        74.39648
960.39        73.25666
960.78         73.1607
961.16        73.76726
961.55          74.662
961.94         75.1402
962.33        74.92812
962.72        74.38593
963.11        73.70053
963.49        73.06355
963.88        72.57462
964.27        72.12803
964.66        71.92199
965.04        72.39185
965.43        73.48802
965.82        75.09055
966.21         76.7571
966.60         77.6515
966.98        77.55996
967.37        76.82191
967.76        75.74123
968.15        74.72725
968.53        73.91348
968.92        73.08925
969.31        72.59222
969.69        73.08089
970.08        74.58253
970.47        77.06017
970.86        79.47826
971.24        80.02362
971.63        78.31291
972.02         74.9922
972.40        71.51706
972.79        70.12922
973.17         71.2483
973.56        74.07815
973.95        77.56848
974.33        79.72281
974.72        79.77643
975.11        78.41859
975.49        76.44917
975.88        75.37639
976.26        75.60377
976.65        76.57491
977.04        77.90862
977.42        78.95531
977.81        79.28822
978.19        79.25766
978.58        78.98747
978.96        78.53028
979.35        78.02252
979.74        77.43356
980.12        76.97555
980.51        76.98428
980.89        77.59393
981.28        78.55807
981.66        79.83372
982.05        81.02345
982.43        82.06607
982.82        82.95612
983.20        83.41583
983.59        82.88015
983.97        81.38106
984.35        79.15775
984.74        77.08486
985.12        76.33235
985.51        77.05293
985.89         79.0219
986.28        81.32397
986.66        82.77303
987.04         82.8057
987.43        81.77197
987.81        80.21854
988.20        79.38115
988.58        79.55251
988.96         80.4332
989.35        81.14909
989.73        80.55911
990.12        78.39721
990.50        75.20619
990.88        71.98235
991.27        70.29662
991.65        70.48941
992.03        72.12425
992.42        74.40712
992.80        76.41241
993.18        77.69644
993.56         78.4846
993.95        78.86847
994.33        79.21902
994.71        79.56037
995.10        79.81109
995.48        79.81631
995.86        79.48077
996.24        78.83171
996.63        77.82169
997.01        76.99689
997.39        77.08102
997.77        78.18309
998.15        80.08823
998.54        81.87899
998.92        82.13946
999.30        80.57556
999.68        77.58485
1000.06        74.22739
1000.45        72.51173
1000.83        73.18585
1001.21        75.64959
1001.59        78.97816
1001.97        81.62114
1002.35        82.98344
1002.73        83.44482
1003.12        83.20457
1003.50        82.49967
1003.88        81.57508
1004.26        80.40327
1004.64        79.14308
1005.02        78.16367
1005.40        77.62742
1005.78         77.4733
1006.16        77.83941
1006.54        78.88879
1006.92        80.57623
1007.30        82.89093
1007.69        85.17699
1008.07        86.18597
1008.45         85.3712
1008.83         83.0249
1009.21        80.08239
1009.59        78.20885
1009.97        77.95001
1010.35        78.87556
1010.73        80.51515
1011.11          82.037
1011.49        83.04968
1011.86         83.8028
1012.24         84.0991
1012.62        83.82103
1013.00        82.96655
1013.38        81.48872
1013.76        79.48822
1014.14        77.41479
1014.52        75.53178
1014.90        73.81613
1015.28        72.49021
1015.66        71.66917
1016.04        71.35506
1016.41        71.77798
1016.79        72.41472
1017.17        72.30896
1017.55         71.4783
1017.93        70.33748
1018.31        69.81705
1018.69        71.04499
1019.06        74.36536
1019.44        79.88224
1019.82        87.31465
1020.20        93.20377
1020.58        94.42446
1020.95        91.43347
1021.33        86.85815
1021.71        83.43506
1022.09         81.4388
1022.46        80.00871
1022.84        78.67407
1023.22        76.14748
1023.60        72.75544
1023.97        69.83475
1024.35        68.25701
1024.73        68.46834
