SpectraSmart Spectrum 2.9.0.0
--------- Device Information -----------
Spectrum Name :  反射率_0
Saving Time :  2024/04/29 23:59:00
Spectro-Module Model Name : SE2030-DUVN
Spectro-Module Serial Number : OS361AC55029948
Wavelength Start : 200
Wavelength End : 1025
Wavelength Unit : Wavelength(nm)
Spectrum Unit : Reflectance(%)
-----------Spectrum Setting ------------
Integration Time : 20ms
Average : 10
Boxcar : 0
Background removal :  enabled
linearity correction :  enabled
SC :  disabled
Intensity correction :  disabled
DWT denoise :  enabled
savitzky-golay :  disabled
FFT :  disabled
Running average :  disabled
Kalman :  disabled
High pass :  disabled
---------------BEGIN--------------------
Wavelength(nm)             Reflectance(%)
200.29               0
200.75        56.67142
201.21        51.51439
201.67        47.40895
202.13        45.67527
202.58        46.87436
203.04        50.68884
203.50        57.18732
203.96        66.54596
204.42         77.0779
204.88         86.8308
205.34        90.59493
205.80        83.03964
206.26        68.35564
206.72        53.04086
207.18         40.5325
207.64        31.91323
208.10        25.98227
208.55         20.8867
209.01        17.87954
209.47        20.36637
209.93        27.58442
210.39        37.21584
210.85        44.68679
211.31        46.22481
211.77        41.62981
212.23        30.02993
212.69        13.96578
213.14         8.33855
213.60        19.59904
214.06        38.72506
214.52        54.61103
214.98        60.41128
215.44        57.70019
215.90        49.43043
216.36        39.38451
216.81        34.76768
217.27        39.33271
217.73        52.66288
218.19        73.55963
218.65        90.72091
219.11         94.6446
219.57        88.65659
220.02        79.99384
220.48        74.44218
220.94        71.44871
221.40        68.83361
221.86         64.7768
222.32        57.71294
222.77        49.86796
223.23        44.60854
223.69        41.49044
224.15        39.09533
224.61        36.78713
225.06        34.27797
225.52        32.62548
225.98         33.7398
226.44        37.22572
226.90        41.33647
227.36         44.4646
227.81        45.70787
228.27        45.36229
228.73        43.77432
229.19        41.64872
229.65        40.54512
230.10        40.87185
230.56        41.96095
231.02        42.89994
231.48        42.88297
231.93         41.8259
232.39        40.06602
232.85        38.08627
233.31        36.85997
233.77        36.70506
234.22        37.45907
234.68        38.36367
235.14        38.06805
235.60        36.37537
236.05        33.90395
236.51        31.80384
236.97         31.4924
237.43        33.36299
237.88        37.43713
238.34         43.3341
238.80        49.17299
239.26        52.98802
239.71        54.75958
240.17         54.9094
240.63        54.97881
241.08        55.73003
241.54        56.74813
242.00         58.6811
242.46        62.73092
242.91        68.91018
243.37        75.68474
243.83        81.04597
244.28        84.28635
244.74        85.78861
245.20        85.22733
245.66        83.33495
246.11        82.17694
246.57        82.83555
247.03        85.77021
247.48        88.61454
247.94         86.0425
248.40        79.39538
248.85        72.09258
249.31        67.83281
249.77        67.87843
250.22        72.17229
250.68        81.53708
251.14        95.85866
251.59        103.9296
252.05        97.78587
252.51        86.23389
252.96        76.99553
253.42         72.7989
253.88        71.68475
254.33        71.86602
254.79        72.41991
255.25        71.39422
255.70        68.73196
256.16        66.16251
256.62        64.03426
257.07        62.26548
257.53        60.99094
257.99        59.83775
258.44         58.4892
258.90        57.33481
259.35        56.15113
259.81        55.26448
260.27         54.5626
260.72         53.9825
261.18        53.57807
261.63        53.01511
262.09        52.32418
262.55        51.25581
263.00        49.82675
263.46        48.39075
263.91        46.84657
264.37        45.30882
264.83        43.72816
265.28        42.03985
265.74        40.57452
266.19        39.64206
266.65        39.32079
267.11        39.43166
267.56        39.57368
268.02        39.16097
268.47        38.06315
268.93        36.45644
269.38        34.66677
269.84        33.39089
270.30        32.80852
270.75        32.71096
271.21        32.75467
271.66        32.42044
272.12        31.59143
272.57        30.42128
273.03        29.18398
273.48        28.22449
273.94          27.688
274.39        27.41261
274.85        27.23721
275.31        26.88901
275.76        26.30357
276.22        25.59753
276.67         24.9037
277.13        24.47741
277.58        24.30646
278.04        24.31919
278.49         24.2949
278.95        24.00326
279.40        23.38335
279.86        22.60001
280.31        21.79997
280.77        21.29913
281.22        21.12152
281.68        21.17666
282.13        21.32952
282.59         21.4275
283.04         21.4086
283.50        21.31583
283.95        21.15936
284.41        20.95205
284.86        20.71009
285.32        20.47087
285.77        20.22239
286.22        20.01213
286.68         19.8667
287.13        19.74567
287.59         19.7225
288.04        19.85407
288.50        20.13556
288.95        20.50264
289.41        20.83903
289.86        20.94301
290.32        20.81627
290.77        20.54451
291.22        20.25785
291.68        20.15742
292.13        20.30549
292.59        20.66719
293.04         21.2615
293.50        22.13698
293.95        23.27608
294.40        24.67351
294.86        26.18124
295.31        27.56939
295.77        28.78226
296.22        29.86878
296.68        30.99066
297.13        32.38748
297.58        34.12046
298.04        36.07827
298.49         38.1214
298.95         40.0407
299.40         41.7709
299.85        43.38183
300.31        44.96612
300.76        46.59087
301.21        48.32099
301.67        50.15548
302.12        52.03952
302.58        54.03939
303.03        56.12672
303.48        58.22064
303.94        60.35902
304.39        62.94903
304.84        65.31619
305.30        67.96114
305.75        70.53039
306.20        72.85967
306.66        74.91734
307.11        76.69539
307.57        78.36305
308.02        80.06123
308.47        81.87183
308.93        83.74471
309.38        85.56678
309.83          87.238
310.29        88.72382
310.74        90.05113
311.19        91.21953
311.65        92.21181
312.10        93.03138
312.55        93.70792
313.00        94.37494
313.46        95.24425
313.91        96.33539
314.36        97.59632
314.82        98.86064
315.27        99.88083
315.72        100.5642
316.18        100.9815
316.63        101.2292
317.08        101.4809
317.53        101.8103
317.99        102.2041
318.44        102.6042
318.89        102.9362
319.35        103.1887
319.80        103.3917
320.25          103.68
320.70        104.2594
321.16        105.1222
321.61          106.24
322.06        107.3235
322.51        107.9174
322.97          107.91
323.42         107.446
323.87        106.8372
324.32        106.6095
324.78        106.8825
325.23        107.5787
325.68        108.4338
326.13        108.9943
326.59         109.109
327.04        108.9576
327.49        108.7674
327.94        108.9545
328.39        109.6122
328.85        110.5418
329.30         111.562
329.75        112.1571
330.20        112.1857
330.66        111.8076
331.11        111.2951
331.56        111.0007
332.01        111.0773
332.46        111.4431
332.92        112.0051
333.37        112.7619
333.82        113.5993
334.27        114.5156
334.72        115.4783
335.17        116.4262
335.63        117.2857
336.08        118.1065
336.53        118.7311
336.98        118.9955
337.43        118.9012
337.88        118.5155
338.34         118.116
338.79        118.1641
339.24        118.7541
339.69        119.7796
340.14        120.9426
340.59        121.7173
341.05        121.9706
341.50        121.8734
341.95        121.6627
342.40        121.7385
342.85         122.202
343.30        122.8823
343.75        123.6579
344.20        124.3463
344.66        124.8842
345.11        125.3572
345.56         125.696
346.01        125.7693
346.46        125.6042
346.91        125.2448
347.36        124.9668
347.81        125.1988
348.26        125.9949
348.72        127.1942
349.17        128.4947
349.62        129.2989
350.07        129.4384
350.52        129.1109
350.97        128.5634
351.42        128.1802
351.87        128.0898
352.32        128.1659
352.77        128.3859
353.22        128.7248
353.67        129.1175
354.13        129.5449
354.58        129.8753
355.03        129.8784
355.48         129.498
355.93        128.7979
356.38        127.8637
356.83        126.8391
357.28         125.802
357.73        124.7493
358.18        123.7491
358.63        122.8966
359.08        122.2043
359.53        121.6502
359.98        121.1612
360.43        120.6068
360.88        119.9442
361.33        119.2018
361.78        118.3911
362.23        117.5389
362.68        116.6651
363.13         115.765
363.58        114.8751
364.03        114.0535
364.48        113.3143
364.93        112.6501
365.38        112.0297
365.83        111.4008
366.28        110.7452
366.73        110.0654
367.18        109.3801
367.63        108.7188
368.08        108.0773
368.53        107.4422
368.98        106.7684
369.43        105.9833
369.88        105.0955
370.33        104.1602
370.78        103.2539
371.23        102.5013
371.68        101.9328
372.13        101.4835
372.58        101.1415
373.03        100.8858
373.48        100.6601
373.93        100.4455
374.38        100.0876
374.83        99.34914
375.28        98.23325
375.72        96.84014
376.17        95.47297
376.62        94.40526
377.07        93.70293
377.52         93.2644
377.97        93.03592
378.42        92.92727
378.87        92.86668
379.32        92.85741
379.77        92.78049
380.22        92.45743
380.67        91.85321
381.11        91.00085
381.56        90.02508
382.01        89.17358
382.46         88.5404
382.91        88.09226
383.36        87.73459
383.81         87.3039
384.26        86.76011
384.71        86.15199
385.15         85.5734
385.60        85.22417
386.05        85.10133
386.50        85.12616
386.95         85.1332
387.40        84.87913
387.85        84.33728
388.29        83.56764
388.74        82.83652
389.19        82.28642
389.64        81.94924
390.09        81.73905
390.54        81.61232
390.98        81.48524
391.43         81.3543
391.88        81.23933
392.33        81.08228
392.78        80.76653
393.23        80.29722
393.67        79.73865
394.12        79.28951
394.57        78.84756
395.02        78.70309
395.47         78.7513
395.91        78.97129
396.36         79.0121
396.81        78.83167
397.26        78.58117
397.71        78.25892
398.15        77.79636
398.60        77.31048
399.05        76.76368
399.50        76.25026
399.95        76.02016
400.39        75.80262
400.84        76.03425
401.29        76.42467
401.74        76.44482
402.18        76.00705
402.63        75.30964
403.08        74.63607
403.53        74.33288
403.97        74.46753
404.42        74.92072
404.87        75.41671
405.32        75.50851
405.76        75.09061
406.21        74.37518
406.66         73.5933
407.11        73.06477
407.55        72.93979
408.00        73.16853
408.45        73.61594
408.90        74.01508
409.34        74.20826
409.79        74.08823
410.24        73.81299
410.68        73.79507
411.13        74.07937
411.58        74.44484
412.03        74.73012
412.47        74.75689
412.92        74.44902
413.37        73.92017
413.81        73.30949
414.26        72.89269
414.71        72.69845
415.15        72.66832
415.60        72.72409
416.05        72.78035
416.49        72.80515
416.94         72.8326
417.39        72.84204
417.83        72.77844
418.28         72.6496
418.73        72.46172
419.17        72.30595
419.62        72.35071
420.07        72.60085
420.51        72.97629
420.96        73.37775
421.41        73.56725
421.85         73.4752
422.30        73.35203
422.74        73.18333
423.19         72.8492
423.64         72.4495
424.08         72.4442
424.53        72.80573
424.98        73.06856
425.42        73.17574
425.87        73.57378
426.31        74.08624
426.76        73.83121
427.21        72.84258
427.65          72.653
428.10        73.13971
428.54        73.11671
428.99         72.6118
429.44        72.21893
429.88        72.08332
430.33        72.25288
430.77        72.60107
431.22         73.2499
431.66        73.98918
432.11        73.83411
432.56        72.93298
433.00        72.84948
433.45        73.80766
433.89        73.89426
434.34        73.97795
434.78        75.38084
435.23         73.7044
435.67        73.11176
436.12        72.55698
436.57        72.51844
437.01        72.84841
437.46        73.60643
437.90        73.35349
438.35        73.82632
438.79        74.48257
439.24        74.72125
439.68        74.54148
440.13        74.39659
440.57        74.40296
441.02        74.44968
441.46        74.53008
441.91        74.82111
442.35        75.10371
442.80        75.20747
443.24        75.08765
443.69        74.90548
444.13        74.70992
444.58         74.5487
445.02        74.40984
445.47        74.34566
445.91        74.34747
446.36        74.39439
446.80        74.45854
447.24        74.60286
447.69        74.74236
448.13        74.86317
448.58         74.9507
449.02        74.98814
449.47         75.0258
449.91        75.10925
450.36        75.26062
450.80        75.44353
451.25        75.61554
451.69        75.67609
452.13        75.61304
452.58        75.48357
453.02        75.34741
453.47        75.27525
453.91        75.26656
454.36        75.50301
454.80        75.59209
455.24        75.65531
455.69        75.68842
456.13        75.60359
456.58        75.57437
457.02        74.95778
457.46        75.22559
457.91        75.14839
458.35        75.06291
458.79        75.01623
459.24        75.08544
459.68        75.02766
460.13         74.7686
460.57        75.17882
461.01        75.40063
461.46        74.66357
461.90        74.62236
462.34        75.35954
462.79        75.79066
463.23        75.59406
463.68        74.53613
464.12        74.00838
464.56        74.05298
465.01         74.0097
465.45        73.86234
465.89        73.80735
466.34        73.76342
466.78        74.38346
467.22        74.46091
467.67        74.04998
468.11        74.29234
468.55        73.96442
468.99        73.59473
469.44        73.30421
469.88        73.15664
470.32        73.10778
470.77        73.09559
471.21        73.07909
471.65        73.01784
472.10        72.94446
472.54        72.89655
472.98        72.92868
473.42        73.02972
473.87        73.29436
474.31        73.58137
474.75        73.40839
475.20        72.92043
475.64        72.86237
476.08        73.19527
476.52        73.13574
476.97        72.65209
477.41        72.31342
477.85        72.34046
478.29        71.68056
478.74        72.63218
479.18        72.58749
479.62        72.27272
480.06        72.21886
480.50        72.44562
480.95        72.22106
481.39        72.73444
481.83        72.05608
482.27        72.73083
482.72        72.82209
483.16        72.72749
483.60        72.60247
484.04        72.92864
484.48        73.09782
484.93        73.08318
485.37        72.99258
485.81        72.17365
486.25        71.34173
486.69        72.45879
487.14        72.08016
487.58        71.81936
488.02        71.61198
488.46         72.4679
488.90         72.3214
489.34        71.79802
489.79        72.79871
490.23        71.58894
490.67        71.71448
491.11        71.93553
491.55        71.80393
491.99        71.36951
492.43        71.24741
492.88        71.49397
493.32        71.79409
493.76        72.03935
494.20         72.2019
494.64        72.24268
495.08        72.16563
495.52         72.0142
495.96        71.89388
496.41        71.87133
496.85        71.88641
497.29        71.83447
497.73        72.09115
498.17        71.78732
498.61        71.47657
499.05        71.05869
499.49        71.06062
499.93        71.40031
500.37        71.45671
500.82        71.22502
501.26        71.19179
501.70        71.37219
502.14        71.41005
502.58        71.30795
503.02         71.3975
503.46        71.72773
503.90        71.50066
504.34        71.95883
504.78        71.97262
505.22        71.90179
505.66         71.7534
506.10        71.61137
506.54        71.45305
506.98        71.66961
507.42        71.70757
507.86        71.33636
508.30        71.63194
508.74        71.20431
509.18        71.02394
509.62        70.77842
510.06        70.69026
510.50        70.77811
510.94        70.99427
511.38        71.24918
511.82        71.35889
512.26        71.28269
512.70        71.07958
513.14        70.84435
513.58        70.72058
514.02        70.74651
514.46         70.8758
514.90        71.04691
515.34        71.16312
515.78        71.19039
516.22        71.15451
516.66        71.09354
517.10        71.06255
517.54        71.07636
517.98        71.11941
518.42        71.14596
518.86        71.08848
519.30        70.93866
519.74        70.72104
520.18        70.51785
520.62        70.44926
521.06        70.54155
521.50         70.7706
521.93        71.03651
522.37        71.14931
522.81        71.07729
523.25        70.86654
523.69        70.65573
524.13        70.66214
524.57        70.91928
525.01        71.34693
525.45        71.77728
525.89        71.93886
526.32        71.76022
526.76        71.36205
527.20        70.89317
527.64        70.58546
528.08        70.50292
528.52         70.5714
528.96        70.71994
529.40        70.83713
529.83        70.87606
530.27        70.88318
530.71        70.86279
531.15        70.82252
531.59        70.77012
532.03        70.69633
532.46        70.60248
532.90        70.52757
533.34        70.47542
533.78        70.44804
534.22         70.4456
534.66        70.46366
535.09        70.49161
535.53        70.54092
535.97        70.59806
536.41        70.65726
536.85        70.71061
537.28        70.74971
537.72        70.76377
538.16        70.73265
538.60        70.65482
539.04        70.54185
539.47        70.39892
539.91        70.29094
540.35        70.21427
540.79         70.1735
541.22        70.15569
541.66        70.14993
542.10        70.14866
542.54         70.1599
542.97        70.19029
543.41        70.27233
543.85        70.39255
544.29        70.54259
544.72        70.65799
545.16        70.68005
545.60        70.59735
546.04        70.40708
546.47        70.18033
546.91        70.15792
547.35        70.32624
547.79        70.36921
548.22        70.26122
548.66        70.44641
549.10        70.87427
549.53        70.91019
549.97        70.45852
550.41        71.05771
550.84        70.59302
551.28        70.49183
551.72         70.1442
552.15        70.36153
552.59        70.23223
553.03        70.20741
553.46        70.06572
553.90        70.04505
554.34        70.13071
554.77        70.26596
555.21        70.40081
555.65        70.33956
556.08         70.1325
556.52        70.11211
556.96        70.26517
557.39        70.40376
557.83        70.50359
558.27        70.52293
558.70        70.49493
559.14        70.58861
559.57        70.75024
560.01        70.81301
560.45        70.76665
560.88        70.55905
561.32        70.56193
561.75        70.42735
562.19        70.29125
562.63        70.19072
563.06        70.12827
563.50        70.11717
563.93         70.1276
564.37        70.16164
564.80        70.18489
565.24        70.23902
565.68        70.30838
566.11         70.2607
566.55        70.34233
566.98        70.24691
567.42        70.15491
567.85        70.08859
568.29        70.06912
568.72        70.28899
569.16        70.82173
569.60        70.23801
570.03        70.68715
570.47        70.76782
570.90        70.84464
571.34         70.5351
571.77        70.80076
572.21        70.79693
572.64        70.75031
573.08        70.75343
573.51        70.55386
573.95        70.32821
574.38        70.84048
574.82        70.51567
575.25         70.5199
575.69        70.60432
576.12        69.94814
576.56        69.95094
576.99         69.9752
577.42        70.05011
577.86        69.97161
578.29        69.89924
578.73        70.49099
579.16        70.04893
579.60        70.17735
580.03        70.20498
580.47        70.89519
580.90        70.72568
581.33        70.05415
581.77        69.93559
582.20        69.97109
582.64        70.42255
583.07        70.06116
583.51        69.92156
583.94         69.9179
584.37        69.76258
584.81        69.63195
585.24        69.99158
585.68        70.30882
586.11        70.74126
586.54        69.90434
586.98         70.0434
587.41        70.53262
587.85        71.09122
588.28        70.47111
588.71        71.31732
589.15        70.22671
589.58        70.43625
590.01        69.92862
590.45        69.94248
590.88        70.19865
591.31        70.52764
591.75        70.65408
592.18        70.81703
592.61        71.27102
593.05        69.74139
593.48        70.31198
593.91         71.3764
594.35         69.9562
594.78        69.78992
595.21         69.5246
595.65        70.49231
596.08        69.61976
596.51        69.74819
596.94        70.13631
597.38        70.46246
597.81        70.61235
598.24        70.20626
598.68        70.22515
599.11        69.49898
599.54        70.39288
599.97        70.97761
600.41        69.47953
600.84        69.75769
601.27        69.86662
601.70         70.1082
602.14        70.37551
602.57        70.13142
603.00        69.63249
603.43        69.54605
603.87        69.68819
604.30        70.13712
604.73        69.89369
605.16        69.93872
605.60        69.97804
606.03         70.1284
606.46        70.23895
606.89        70.34667
607.32          69.986
607.76        69.91232
608.19        70.06479
608.62         70.0698
609.05        69.92442
609.48        70.32711
609.92        70.41733
610.35        70.29389
610.78         70.5201
611.21        69.95779
611.64        69.85572
612.07        70.06332
612.50        70.14952
612.94        69.88592
613.37        70.37189
613.80        70.13194
614.23        70.51385
614.66        70.47408
615.09        70.36769
615.52        70.26164
615.96        70.13577
616.39        70.33097
616.82        70.10743
617.25        70.03093
617.68        69.66019
618.11        69.74261
618.54        70.08836
618.97        70.14243
619.40        69.80261
619.84        69.74332
620.27         69.9901
620.70         70.3082
621.13        70.53201
621.56        70.24461
621.99        70.14435
622.42        69.25979
622.85         70.2233
623.28        70.11965
623.71        70.42882
624.14        69.33947
624.57        70.05241
625.00        69.92114
625.43        69.80437
625.86        69.65254
626.29        69.50883
626.72        69.63573
627.15         69.5555
627.58        69.77718
628.01         70.0508
628.44         69.9488
628.87        69.56178
629.30        69.64334
629.73         70.0998
630.16        70.57486
630.59         70.1564
631.02        70.21472
631.45        70.23582
631.88        70.15277
632.31        69.83051
632.74         70.1971
633.17        69.77744
633.60        69.76907
634.03        69.73811
634.46        69.70628
634.89        69.67435
635.32        69.68565
635.75        69.75228
636.18        69.83544
636.61        69.91271
637.04        69.96101
637.47         69.9838
637.89        69.95107
638.32        69.83966
638.75        69.80062
639.18        69.87319
639.61          69.439
640.04        69.59327
640.47        69.50794
640.90        69.51203
641.33        69.58457
641.76        69.69303
642.18        69.76328
642.61        69.74215
643.04        69.65884
643.47        69.58218
643.90        69.60294
644.33          69.728
644.76        70.01327
645.18         70.3287
645.61        70.26904
646.04        69.74947
646.47        69.64336
646.90        69.87443
647.33        69.88725
647.75        69.66481
648.18        69.48879
648.61        69.41292
649.04        69.62209
649.47         69.6887
649.89        69.95785
650.32         70.1797
650.75        70.06541
651.18        69.74585
651.61         69.7194
652.03        70.02012
652.46        70.39824
652.89        70.57283
653.32        70.30656
653.74        69.86597
654.17        69.17634
654.60        68.87947
655.03        70.77507
655.46        69.09246
655.88        69.83466
656.31        70.19244
656.74        71.26032
657.16        71.60397
657.59        70.19253
658.02        69.24606
658.45        70.08366
658.87        70.38603
659.30        69.59264
659.73        70.72394
660.15        70.73537
660.58          70.338
661.01        70.16981
661.44        70.18224
661.86         69.7738
662.29         69.0986
662.72        69.26305
663.14        70.08994
663.57        70.03669
664.00         69.2341
664.42        69.04099
664.85        69.51279
665.27        69.86231
665.70        69.98264
666.13        70.10113
666.55        70.19878
666.98        70.20283
667.41        70.13433
667.83        70.02805
668.26        69.89308
668.69        69.74001
669.11         69.6095
669.54        69.54021
669.96        69.53623
670.39        69.65723
670.82        69.83426
671.24        69.78838
671.67         69.5664
672.09        69.58218
672.52        69.82138
672.94        69.99605
673.37        69.55921
673.80        69.94805
674.22        69.63593
674.65        69.77705
675.07        69.97592
675.50         70.1222
675.92        70.40515
676.35        70.45599
676.77        70.32678
677.20        70.17399
677.62        70.12904
678.05        69.64321
678.47        69.92149
678.90        70.02309
679.32        70.22338
679.75        70.23466
680.17        69.99366
680.60        70.12579
681.02        69.69598
681.45         69.6374
681.87         69.6788
682.30        69.86147
682.72        70.11062
683.15         70.0922
683.57        69.89445
684.00        69.98139
684.42        70.30801
684.85        70.45564
685.27        70.40874
685.70        70.29315
686.12        70.20449
686.54        70.51098
686.97        71.07326
687.39        71.27705
687.82        71.05257
688.24        70.91498
688.66        70.87059
689.09        70.59387
689.51        70.17798
689.94        69.94632
690.36        69.93739
690.78        70.05851
691.21        70.23315
691.63        70.35788
692.06        70.38583
692.48        70.32787
692.90        70.22679
693.33        70.18211
693.75        70.21504
694.17        70.25901
694.60        70.32478
695.02        70.42597
695.44        70.54066
695.87        70.78564
696.29        71.07287
696.71        70.92016
697.14        70.45978
697.56        70.41252
697.98         70.7506
698.41        70.84947
698.83        70.68311
699.25        70.62888
699.68        70.68185
700.10        70.70562
700.52        70.67894
700.94        70.65632
701.37        70.60992
701.79        70.51213
702.21        70.35821
702.64        70.16794
703.06        70.00366
703.48        69.97617
703.90        70.10683
704.33        70.37508
704.75        70.66792
705.17        70.86581
705.59        70.90211
706.01         70.8146
706.44        70.68054
706.86        70.61504
707.28        70.64493
707.70        70.78201
708.12        70.96888
708.55        70.99505
708.97        70.89211
709.39        70.93784
709.81        71.13794
710.23        71.28177
710.66         71.3502
711.08        71.48428
711.50        71.64774
711.92        71.75311
712.34        71.79178
712.76        71.78961
713.19        71.74079
713.61        71.68664
714.03        71.62599
714.45        71.55334
714.87        71.49294
715.29        71.50282
715.71        71.59127
716.13        71.64788
716.56        71.79268
716.98          71.893
717.40        71.95326
717.82        71.97285
718.24        71.96034
718.66        71.92995
719.08        71.88818
719.50        71.83566
719.92        71.77355
720.34        71.70383
720.76        71.63176
721.19        71.55469
721.61        71.50052
722.03        71.48369
722.45        71.50419
722.87        71.55084
723.29        71.60204
723.71        71.62318
724.13        71.60384
724.55        71.55537
724.97        71.48693
725.39        71.41244
725.81        71.34716
726.23        71.29849
726.65        71.27716
727.07        71.30247
727.49         71.3719
727.91        71.45869
728.33        71.56371
728.75        71.70962
729.17        71.88699
729.59        72.05284
730.01        72.10611
730.43        72.11342
730.85        71.71539
731.27        71.25998
731.69        70.82156
732.10        70.68988
732.52         70.9221
732.94        71.44125
733.36        72.08073
733.78        72.55369
734.20        72.75993
734.62        72.68734
735.04        72.46817
735.46        72.52319
735.88        72.81443
736.30        72.78888
736.72        72.46107
737.13        72.35854
737.55        72.42852
737.97        72.32312
738.39        72.07704
738.81        71.83311
739.23        71.69627
739.65        71.97508
740.06         72.4832
740.48        72.64202
740.90        72.38681
741.32        72.03531
741.74        71.72723
742.16        71.59364
742.57        71.70837
742.99         71.9278
743.41        72.19511
743.83        72.59306
744.25        72.98958
744.67         72.9821
745.08        72.64375
745.50        72.47578
745.92        72.53893
746.34        72.54226
746.75        72.48226
747.17        72.48228
747.59        72.53979
748.01        72.63366
748.42         72.7296
748.84        72.74282
749.26        72.67161
749.68        72.51944
750.09        72.33649
750.51        72.28877
750.93        72.35954
751.35        72.40349
751.76        72.40633
752.18        72.43794
752.60        72.49026
753.01         72.5223
753.43        72.51949
753.85        72.52081
754.27        72.54549
754.68        72.60939
755.10        72.70531
755.52        72.82323
755.93        72.93396
756.35        73.00684
756.77        73.11513
757.18         73.2894
757.60        73.51656
758.02        74.05178
758.43        74.60848
758.85        74.16484
759.26        72.84587
759.68        72.41764
760.10          72.892
760.51        73.01069
760.93        72.74118
761.34        72.94864
761.76        73.47572
762.18        73.52209
762.59        73.09711
763.01        72.63062
763.42        72.29648
763.84        72.09532
764.26        72.10186
764.67        72.23284
765.09        72.48135
765.50        72.97017
765.92        73.55978
766.33        73.75497
766.75        73.48935
767.16        73.40919
767.58        73.52022
768.00        73.32688
768.41        72.93216
768.83        73.02057
769.24        73.43026
769.66        73.34398
770.07        72.82656
770.49        72.50733
770.90         72.5217
771.32        72.92563
771.73          73.559
772.15        73.79263
772.56        73.56082
772.97        73.46088
773.39        73.12357
773.80        73.15503
774.22        73.41991
774.63        73.91851
775.05         74.4354
775.46        74.72363
775.88        74.67822
776.29        74.41054
776.70         74.0303
777.12        73.74045
777.53        73.61916
777.95        73.59534
778.36        73.64822
778.77         73.7313
779.19        73.82015
779.60        73.96613
780.02        74.11276
780.43        74.26064
780.84        74.39542
781.26        74.33962
781.67        74.17609
782.09        74.43078
782.50        75.00278
782.91        74.78429
783.33        74.44118
783.74        74.09668
784.15        73.98792
784.57        73.75166
784.98        73.44928
785.39        73.34271
785.81        73.45822
786.22        73.71876
786.63        74.10144
787.04        74.56731
787.46        75.07275
787.87        75.58355
788.28        76.02069
788.70        76.25938
789.11        76.26663
789.52        76.09414
789.93        75.80834
790.35        75.51991
790.76        75.30064
791.17        75.14342
791.58        75.07981
792.00        75.13059
792.41         75.3083
792.82        75.58281
793.23        75.90779
793.65        76.20265
794.06        76.43187
794.47        76.59319
794.88        76.64251
795.29        76.52325
795.71        76.21204
796.12        75.76817
796.53        75.34283
796.94        75.23021
797.35        75.50553
797.76        76.08562
798.18        76.75179
798.59         77.1877
799.00        77.27391
799.41        77.10442
799.82        76.78932
800.23        76.52438
800.64        76.38766
801.06        76.29675
801.47        76.28579
801.88        76.33232
802.29         76.4164
802.70        76.54269
803.11          76.685
803.52        76.78331
803.93        76.83025
804.34        76.84534
804.75         76.8057
805.17         76.7461
805.58        76.71833
805.99        76.49563
806.40        76.20673
806.81        76.53838
807.22        77.28902
807.63         77.3106
808.04         76.6545
808.45        76.41504
808.86        76.66727
809.27        76.76904
809.68        76.67391
810.09        76.64425
810.50        76.68246
810.91        76.70058
811.32        76.75059
811.73        76.91807
812.14        77.20503
812.55        77.60339
812.96          77.969
813.37        78.03286
813.78        77.75023
814.19        77.22629
814.60         76.6803
815.01        76.42393
815.42        76.52155
815.83        76.88228
816.24        77.37057
816.65        77.70857
817.05        77.78304
817.46        77.64319
817.87        77.38751
818.28        77.10065
818.69        76.83353
819.10        76.56691
819.51        76.35686
819.92        76.31902
820.33        76.47128
820.74        76.76158
821.14        77.13688
821.55        77.51618
821.96        77.84995
822.37         78.1642
822.78        78.34512
823.19        78.20823
823.60        77.73433
824.00        76.97561
824.41         76.1901
824.82        75.81055
825.23        75.92813
825.64        76.46021
826.04        77.13159
826.45        77.35143
826.86        77.00056
827.27        76.25237
827.68        75.45214
828.08        75.17429
828.49        75.51263
828.90        76.31918
829.31        77.31813
829.72        78.03778
830.12        78.34222
830.53        78.27635
830.94        78.05194
831.35         77.9803
831.75        78.17699
832.16        78.46304
832.57         78.7086
832.97        78.66536
833.38        78.29383
833.79        77.76476
834.20        77.22046
834.60        76.82769
835.01        76.67144
835.42        76.65625
835.82        76.84638
836.23        77.27795
836.64        77.93353
837.04        78.82124
837.45        79.59608
837.86        79.84763
838.26        79.48577
838.67        78.64474
839.08        77.65957
839.48        77.03889
839.89        76.95975
840.29        77.26917
840.70         77.7923
841.11        78.25225
841.51        78.56516
841.92        78.77221
842.33         78.9125
842.73        79.02956
843.14        79.08746
843.54        79.08882
843.95        79.02834
844.35        78.98346
844.76        78.94367
845.17        78.88303
845.57        78.82751
845.98        78.76865
846.38        78.72977
846.79        78.73853
847.19        78.69585
847.60        78.37913
848.00        77.80541
848.41        77.05429
848.81         76.4509
849.22        76.48895
849.62        77.27357
850.03        78.59249
850.43        80.09537
850.84        80.92328
851.24        80.87814
851.65         80.0981
852.05        78.95169
852.46        78.02165
852.86        77.51455
853.27        77.33939
853.67        77.29441
854.07        77.30411
854.48         77.2669
854.88        77.26939
855.29        77.25862
855.69        77.32625
856.10         77.3722
856.50        77.46613
856.90        77.47366
857.31        77.26719
857.71        76.88987
858.12        76.34149
858.52        75.86427
858.92         75.7964
859.33        76.18263
859.73        76.96776
860.13        77.84531
860.54        78.31821
860.94        78.29535
861.34        77.81362
861.75        77.07019
862.15         76.4903
862.55        76.17991
862.96        76.06846
863.36        75.93869
863.76        75.46022
864.17        74.62789
864.57        73.62626
864.97        72.74979
865.38        72.38343
865.78        72.63233
866.18        73.31625
866.58        74.28048
866.99        75.17172
867.39        75.84737
867.79        76.36543
868.19        76.55298
868.60        76.16073
869.00        75.23125
869.40        73.83141
869.80        72.52736
870.21        72.29551
870.61        73.36666
871.01        75.38247
871.41        77.57647
871.81        78.71503
872.22        78.47883
872.62        77.24353
873.02        75.53525
873.42        74.25694
873.82        73.73602
874.22        73.72795
874.63        74.02701
875.03        74.31935
875.43        74.49303
875.83         74.6748
876.23        74.94273
876.63        75.38258
877.03        75.96916
877.44         76.5485
877.84          77.019
878.24        77.15062
878.64        76.91901
879.04         76.4709
879.44        75.90725
879.84        75.36592
880.24        74.91482
880.64        74.49387
881.04        74.29871
881.44        74.63784
881.84        75.52923
882.24         76.9028
882.65        78.22338
883.05        78.69414
883.45        78.07775
883.85        76.67274
884.25        75.13872
884.65        74.47807
885.05         74.8991
885.45        76.05199
885.85        77.51264
886.25        78.54647
886.65        78.86714
887.05        78.71981
887.45        78.13271
887.85        77.16829
888.25        76.00383
888.65         74.6917
889.04        73.54249
889.44        73.05343
889.84        73.22688
890.24        73.97403
890.64        75.03065
891.04        75.79057
891.44        76.01241
891.84         75.8617
892.24        75.54491
892.64        75.37568
893.04        75.43298
893.44        75.58348
893.83        75.83874
894.23        76.14996
894.63        76.50424
895.03        76.93684
895.43          77.313
895.83        77.41037
896.23        77.20403
896.63        76.73432
897.02        76.22391
897.42        76.11254
897.82        76.46595
898.22         77.1779
898.62        77.92619
899.01        78.17881
899.41        77.80147
899.81         76.9782
900.21        76.05846
900.61         75.5805
901.00        75.66594
901.40        76.14146
901.80        76.71274
902.20        76.90247
902.59        76.58367
902.99        75.92805
903.39        75.17587
903.79        74.66526
904.18        74.49572
904.58        74.59697
904.98        74.82402
905.38        74.97739
905.77        74.97435
906.17        74.85688
906.57        74.76588
906.96        74.95064
907.36        75.40948
907.76        76.08759
908.15        76.68135
908.55        76.57031
908.95        75.72981
909.34        74.36954
909.74        73.09485
910.14        72.69402
910.53        73.36468
910.93        74.80789
911.33        76.61219
911.72        78.12176
912.12        79.00772
912.52        79.44312
912.91        79.56133
913.31        79.58881
913.70        79.62093
914.10        79.52245
914.49        79.23107
914.89        78.66228
915.29         77.8633
915.68        76.96735
916.08        76.17369
916.47        75.62299
916.87        75.41244
917.26        75.43913
917.66        75.72046
918.05        76.30322
918.45        77.07951
918.84        78.06999
919.24         78.9042
919.64        79.11794
920.03        78.63045
920.42        77.56348
920.82        76.38438
921.21        75.71727
921.61        75.73415
922.00        76.28912
922.40        77.08249
922.79        77.67532
923.19        77.87578
923.58        77.83228
923.98        77.69437
924.37        77.70299
924.77        77.90929
925.16        78.21528
925.55        78.47822
925.95        78.49445
926.34        78.24208
926.74        77.79244
927.13        77.29655
927.52         76.9453
927.92        76.80592
928.31        76.80961
928.70         76.8756
929.10        76.85603
929.49        76.70399
929.89        76.42507
930.28        76.09995
930.67        75.78745
931.07        75.51852
931.46        75.30315
931.85        75.08773
932.24        74.78902
932.64        74.43081
933.03        74.09449
933.42        73.89844
933.82        74.02008
934.21        74.50191
934.60         75.1717
934.99        76.00093
935.39         76.9273
935.78        77.91875
936.17        78.96523
936.56        79.59465
936.96        79.09165
937.35        77.45607
937.74        75.03571
938.13        72.76177
938.53        71.83924
938.92        72.41512
939.31        74.21172
939.70        76.48321
940.09        77.74476
940.49        77.49489
940.88        76.20061
941.27        74.59055
941.66        73.74673
942.05         73.9451
942.44        74.88334
942.84         76.0806
943.23        76.77174
943.62        76.64348
944.01        75.94869
944.40        75.22052
944.79        75.22029
945.18        76.08976
945.57        77.58617
945.97         79.0195
946.36        79.47367
946.75        78.60986
947.14        76.77741
947.53        74.78446
947.92        73.82687
948.31         74.2022
948.70         75.6198
949.09        77.38689
949.48        78.23618
949.87        77.79167
950.26        76.44795
950.65        74.98196
951.04        74.48148
951.43        75.16539
951.82        76.70969
952.21        78.39999
952.60        78.96089
952.99        78.03729
953.38        76.07774
953.77        73.97285
954.16        72.86272
954.55        72.97955
954.94        74.10654
955.33        75.53316
955.72        75.77887
956.11        74.42767
956.50        72.04636
956.89        69.84093
957.28        69.36842
957.66        70.93137
958.05        74.00662
958.44        77.56711
958.83         79.4919
959.22        79.04943
959.61        76.97071
960.00        74.40987
960.39        72.85053
960.78        72.58558
961.16        73.17389
961.55        74.09101
961.94        74.42513
962.33        73.86445
962.72        72.90497
963.11        71.84975
963.49        71.01524
963.88        70.52903
964.27        70.23296
964.66        70.31631
965.04        71.19718
965.43        72.79861
965.82        75.00408
966.21        77.25612
966.60        78.52065
966.98        78.51478
967.37        77.58284
967.76        76.21406
968.15          75.094
968.53        74.40121
968.92        73.88527
969.31        73.64789
969.69        73.89848
970.08        74.57585
970.47        75.81784
970.86        77.02949
971.24        77.14458
971.63        75.95857
972.02         73.8267
972.40          71.781
972.79        71.48637
973.17         73.2065
973.56        76.31393
973.95        79.81834
974.33        81.82687
974.72        81.65031
975.11        79.92842
975.49        77.58111
975.88        76.33534
976.26         76.6354
976.65        77.88752
977.04        79.57922
977.42        80.78249
977.81        80.96867
978.19        80.57362
978.58        79.78242
978.96        78.73866
979.35        77.65244
979.74        76.50709
980.12        75.58968
980.51        75.37769
980.89        76.02988
981.28        77.22692
981.66        78.92402
982.05        80.70182
982.43        82.43987
982.82        84.14555
983.20        85.21217
983.59        84.53358
983.97        82.08794
984.35         78.3051
984.74        74.70164
985.12        73.37705
985.51        74.62718
985.89        77.95824
986.28        81.83942
986.66        84.03265
987.04        83.67929
987.43        81.41547
987.81        78.31695
988.20        76.58315
988.58        76.81268
988.96        78.40145
989.35         80.0657
989.73        79.97493
990.12        77.66788
990.50         73.9902
990.88        70.12889
991.27        67.93942
991.65        67.88345
992.03        69.35504
992.42        71.70036
992.80         74.2533
993.18        76.56538
993.56        78.84514
993.95        80.66592
994.33        81.39798
994.71        80.81433
995.10        79.13739
995.48        77.03701
995.86        75.63087
996.24        75.23077
996.63        75.52474
997.01        76.45231
997.39        77.58084
997.77        78.63994
998.15        79.74792
998.54        80.62125
998.92        80.83395
999.30        80.33904
999.68        79.22937
1000.06        77.95256
1000.45        77.37743
1000.83        77.85133
1001.21        79.09743
1001.59        80.82724
1001.97        82.52202
1002.35        83.90082
1002.73          85.051
1003.12        85.71997
1003.50        85.43959
1003.88        84.26205
1004.26        82.38724
1004.64        80.31001
1005.02        78.95269
1005.40        78.58176
1005.78        78.87035
1006.16        79.62095
1006.54         80.5296
1006.92        81.45499
1007.30        82.58552
1007.69        83.42622
1008.07        83.10737
1008.45        81.37827
1008.83        78.47858
1009.21        75.57909
1009.59        74.68398
1009.97        76.24232
1010.35        79.58778
1010.73        83.59348
1011.11        86.35217
1011.49        87.22659
1011.86        86.85491
1012.24        85.39519
1012.62        83.30479
1013.00        80.80331
1013.38        77.57995
1013.76        74.20764
1014.14        72.05618
1014.52        71.64219
1014.90         72.9128
1015.28        74.68878
1015.66        74.86002
1016.04        72.96434
1016.41        69.61769
1016.79        66.12927
1017.17        65.13992
1017.55        67.08096
1017.93        70.48198
1018.31        74.06872
1018.69        77.05653
1019.06        79.69934
1019.44        82.43866
1019.82         85.5076
1020.20        88.20475
1020.58        89.48854
1020.95        88.96742
1021.33        87.31621
1021.71        85.27589
1022.09        82.83828
1022.46        79.58664
1022.84        75.63586
1023.22         71.6385
1023.60        68.91936
1023.97        67.89736
1024.35        68.17344
1024.73        69.03657
