SpectraSmart Spectrum 2.9.0.0
--------- Device Information -----------
Spectrum Name :  反射率_0
Saving Time :  2024/04/30 00:19:36
Spectro-Module Model Name : SE2030-DUVN
Spectro-Module Serial Number : OS361AC55029948
Wavelength Start : 200
Wavelength End : 1025
Wavelength Unit : Wavelength(nm)
Spectrum Unit : Reflectance(%)
-----------Spectrum Setting ------------
Integration Time : 20ms
Average : 10
Boxcar : 0
Background removal :  enabled
linearity correction :  enabled
SC :  disabled
Intensity correction :  disabled
DWT denoise :  enabled
savitzky-golay :  disabled
FFT :  disabled
Running average :  disabled
Kalman :  disabled
High pass :  disabled
---------------BEGIN--------------------
Wavelength(nm)             Reflectance(%)
200.29               0
200.75        57.94187
201.21        46.25626
201.67        33.23609
202.13        23.64716
202.58        19.80057
203.04        20.56042
203.50        27.09416
203.96        41.12179
204.42        60.95643
204.88        84.37828
205.34        101.0103
205.80         97.8738
206.26        79.83344
206.72        57.66154
207.18         39.3139
207.64        29.07891
208.10        25.37751
208.55        25.23023
209.01        28.22004
209.47        33.66554
209.93        39.62724
210.39        45.76431
210.85        49.86193
211.31        50.06443
211.77        46.30402
212.23        37.49223
212.69        25.28192
213.14         20.5483
213.60        28.07262
214.06         41.7716
214.52        53.46569
214.98         57.9733
215.44        56.40899
215.90        50.86587
216.36        44.24376
216.81         42.0878
217.27        47.24944
217.73        59.54673
218.19        77.43876
218.65        90.20905
219.11        90.25764
219.57         81.8689
220.02        72.21087
220.48         66.3593
220.94        63.57724
221.40        61.86069
221.86        60.31767
222.32        58.04246
222.77        55.30413
223.23        53.78244
223.69        52.68155
224.15        50.97052
224.61         48.4115
225.06        44.80125
225.52        41.15275
225.98        39.91102
226.44        41.41872
226.90        44.09081
227.36        46.26021
227.81        46.73258
228.27        45.64075
228.73        43.38247
229.19        40.65038
229.65         39.0833
230.10        39.17324
230.56        40.14589
231.02         41.1253
231.48        41.36833
231.93        40.76485
232.39        39.65427
232.85        38.31068
233.31        37.30607
233.77        36.85802
234.22        36.88645
234.68        37.01005
235.14        36.59425
235.60        35.58883
236.05        34.31641
236.51        33.43024
236.97        33.71223
237.43         35.3858
237.88        38.54965
238.34        42.84444
238.80        46.90427
239.26        49.30933
239.71        50.08464
240.17         49.5281
240.63        48.68578
241.08        47.93503
241.54        46.74186
242.00        45.42017
242.46        45.90036
242.91        50.06825
243.37        57.16145
243.83        64.38763
244.28        69.70779
244.74        73.30094
245.20        75.34826
245.66        76.49998
246.11        78.27156
246.57        81.29074
247.03        85.87617
247.48        89.68255
247.94        87.52132
248.40        80.89304
248.85        73.28499
249.31        68.68419
249.77        68.51098
250.22        72.59507
250.68        81.53663
251.14        94.88655
251.59        101.2291
252.05        93.41607
252.51        80.95898
252.96        70.95773
253.42        65.28236
253.88        61.91753
254.33        59.19939
254.79        57.21341
255.25          56.098
255.70        55.65701
256.16        55.96351
256.62        56.21443
257.07        55.73878
257.53        54.92117
257.99          53.823
258.44        52.53981
258.90        51.90711
259.35        51.61917
259.81        51.63198
260.27        51.64883
260.72        51.48684
261.18        51.24832
261.63        50.73905
262.09        50.04337
262.55         48.9761
263.00        47.58318
263.46        46.19059
263.91        44.73512
264.37        43.36649
264.83        42.03556
265.28         40.6683
265.74        39.53289
266.19         38.8405
266.65        38.64871
267.11        38.80519
267.56        38.97931
268.02        38.69349
268.47        37.83184
268.93        36.52769
269.38         35.0317
269.84        33.90733
270.30        33.30478
270.75        33.08188
271.21        32.95786
271.66        32.49551
272.12        31.61353
272.57        30.44239
273.03        29.27783
273.48        28.50133
273.94        28.22651
274.39        28.23786
274.85        28.30241
275.31        28.04659
275.76        27.39103
276.22        26.50791
276.67        25.53099
277.13        24.72289
277.58        24.11067
278.04         23.6403
278.49        23.21365
278.95        22.76898
279.40        22.25253
279.86        21.76429
280.31        21.28837
280.77        20.89075
281.22        20.55543
281.68        20.28001
282.13         20.0674
282.59           19.96
283.04        19.92833
283.50        19.93026
283.95        19.89197
284.41        19.70318
284.86        19.34602
285.32        18.90546
285.77        18.40079
286.22        17.91112
286.68        17.48389
287.13        17.08027
287.59        16.78716
288.04        16.69038
288.50        16.79305
288.95        17.02763
289.41        17.27618
289.86        17.33662
290.32        17.18979
290.77         16.9027
291.22        16.56149
291.68        16.30653
292.13        16.18415
292.59        16.16823
293.04        16.30133
293.50        16.65955
293.95        17.23451
294.40        18.00862
294.86        18.82875
295.31        19.46428
295.77        19.86011
296.22        20.06784
296.68        20.25605
297.13          20.677
297.58        21.39366
298.04        22.29554
298.49        23.23421
298.95        23.96968
299.40        24.44869
299.85        24.76179
300.31          25.028
300.76        25.37381
301.21        25.87128
301.67         26.4887
302.12        27.17567
302.58        27.99137
303.03         28.9263
303.48        29.84612
303.94        30.72542
304.39        32.23716
304.84        33.16933
305.30        34.47033
305.75        35.76149
306.20        37.07305
306.66          38.393
307.11         39.7045
307.57        41.00437
308.02        42.22124
308.47        43.38537
308.93        44.52969
309.38        45.71995
309.83        47.10335
310.29        48.69234
310.74        50.42817
311.19        52.17218
311.65        53.70638
312.10        54.97886
312.55        56.05557
313.00        57.10241
313.46        58.38751
313.91        59.95037
314.36        61.70343
314.82        63.46493
315.27        64.96503
315.72        66.10825
316.18        66.97933
316.63        67.68501
317.08         68.4123
317.53        69.23177
317.99         70.1067
318.44        70.98163
318.89         71.7828
319.35        72.49352
319.80        73.14745
320.25        73.82856
320.70        74.66302
321.16        75.64281
321.61        76.74759
322.06        77.79873
322.51        78.51761
322.97         78.8308
323.42        78.83125
323.87        78.69629
324.32        78.73249
324.78        79.01881
325.23        79.52769
325.68        80.13715
326.13        80.63333
326.59        80.93455
327.04        81.13648
327.49        81.33196
327.94        81.70828
328.39        82.29817
328.85        82.98499
329.30        83.68501
329.75        84.10485
330.20        84.17317
330.66        83.98833
331.11        83.71274
331.56        83.54593
332.01         83.5864
332.46         83.7896
332.92         84.1474
333.37        84.75667
333.82        85.55202
334.27        86.50154
334.72        87.47651
335.17        88.25739
335.63        88.75509
336.08        89.06536
336.53        89.19663
336.98        89.24146
337.43        89.26191
337.88        89.23611
338.34        89.28669
338.79        89.62774
339.24        90.27779
339.69        91.19947
340.14        92.16079
340.59        92.75228
341.05        92.88671
341.50        92.69034
341.95        92.40789
342.40        92.45409
342.85        92.92591
343.30        93.66542
343.75        94.51026
344.20        95.19816
344.66        95.65403
345.11        95.98609
345.56         96.1843
346.01        96.22017
346.46        96.13496
346.91          95.922
347.36        95.80042
347.81        96.11707
348.26        96.90379
348.72        98.04041
349.17        99.21432
349.62        99.83031
350.07        99.74554
350.52        99.16684
350.97         98.4198
351.42        98.00421
351.87        98.06497
352.32         98.4485
352.77        99.03206
353.22        99.61954
353.67        100.1057
354.13        100.5214
354.58        100.8273
355.03        100.9493
355.48        100.8632
355.93        100.5641
356.38        100.0626
356.83        99.39594
357.28        98.61069
357.73        97.74329
358.18        96.87915
358.63        96.13689
359.08        95.54802
359.53        95.08647
359.98        94.71034
360.43        94.33899
360.88        93.94007
361.33        93.53547
361.78         93.0984
362.23        92.59084
362.68        92.01324
363.13        91.36898
363.58        90.73129
364.03        90.21899
364.48        89.85837
364.93        89.62686
365.38        89.43241
365.83        89.12599
366.28        88.67277
366.73        88.10391
367.18        87.52895
367.63        87.12263
368.08        86.90472
368.53        86.80745
368.98        86.67889
369.43        86.27312
369.88        85.55268
370.33        84.63011
370.78        83.66052
371.23        82.89664
371.68        82.41944
372.13        82.13634
372.58         82.0155
373.03        82.00214
373.48         82.0279
373.93        82.08882
374.38        82.03497
374.83        81.62546
375.28        80.84595
375.72        79.77767
376.17        78.68755
376.62        77.83607
377.07         77.2914
377.52        76.96718
377.97        76.81895
378.42        76.76766
378.87        76.75655
379.32         76.7979
379.77        76.80149
380.22        76.62963
380.67        76.25491
381.11        75.69808
381.56        75.05663
382.01        74.52219
382.46        74.16402
382.91        73.95644
383.36        73.80984
383.81        73.57677
384.26        73.22316
384.71         72.7856
385.15        72.36851
385.60        72.18351
386.05        72.23251
386.50        72.44196
386.95        72.61963
387.40        72.47598
387.85        71.98087
388.29        71.21645
388.74        70.49133
389.19        70.03976
389.64         69.9063
390.09        69.98253
390.54        70.15154
390.98        70.20663
391.43        70.11595
391.88        69.93847
392.33        69.68072
392.78        69.41319
393.23        69.17171
393.67         68.7851
394.12        68.35857
394.57        68.50613
395.02        68.23767
395.47        68.31926
395.91        68.41245
396.36        68.41814
396.81        68.31518
397.26        68.15037
397.71        67.94038
398.15        67.64622
398.60        67.36106
399.05        67.07426
399.50        66.82772
399.95        66.69992
400.39        66.48789
400.84         66.7855
401.29        67.32465
401.74        67.43965
402.18        67.04103
402.63        66.41393
403.08        65.84437
403.53        65.64318
403.97         65.8765
404.42        66.43671
404.87        67.02842
405.32        67.17744
405.76        66.78256
406.21        66.04494
406.66        65.23096
407.11        64.78723
407.55        64.85605
408.00         65.1882
408.45        65.65286
408.90        66.26277
409.34        66.77573
409.79        66.63943
410.24         66.0782
410.68         65.9673
411.13        66.38589
411.58        66.87289
412.03        67.24226
412.47        67.37775
412.92        67.18855
413.37        66.76679
413.81         66.2512
414.26        65.90832
414.71        65.77341
415.15        65.79945
415.60        65.90592
416.05        65.99821
416.49          66.047
416.94        66.08773
417.39        66.13937
417.83        66.20918
418.28        66.30733
418.73        66.41447
419.17        66.53654
419.62        66.70762
420.07         66.9053
420.51        67.09417
420.96        67.26416
421.41        67.30825
421.85        67.19453
422.30        67.17336
422.74        67.16917
423.19        66.86125
423.64        66.38267
424.08        66.45692
424.53        67.04883
424.98        67.46122
425.42        67.62139
425.87        68.07659
426.31        68.67719
426.76        68.58998
427.21        67.83079
427.65        67.76652
428.10        68.27235
428.54        68.29016
428.99        67.87661
429.44        67.53737
429.88        67.38212
430.33        67.64706
430.77         68.1431
431.22        68.40309
431.66        68.42197
432.11        68.53638
432.56        68.73048
433.00        68.81972
433.45        68.99462
433.89        69.01514
434.34        69.36864
434.78        70.89836
435.23         69.5145
435.67         68.8803
436.12        68.18487
436.57        68.27012
437.01        68.92215
437.46        70.07352
437.90        69.59676
438.35        70.00947
438.79        70.64742
439.24        70.92827
439.68        70.86633
440.13        70.91213
440.57        71.08633
441.02        71.15488
441.46        71.10455
441.91        71.04574
442.35        70.94253
442.80        71.09594
443.24        71.38178
443.69        71.31006
444.13         70.9246
444.58        70.78735
445.02         70.8806
445.47        70.93789
445.91        70.94444
446.36        71.03945
446.80        71.20057
447.24        71.40701
447.69        71.61804
448.13        71.74622
448.58        71.79511
449.02        71.76688
449.47        71.74344
449.91        71.81683
450.36        72.01392
450.80        72.27674
451.25        72.53911
451.69        72.66372
452.13        72.63103
452.58        72.51789
453.02        72.36539
453.47        72.25018
453.91        72.18584
454.36        72.25695
454.80        72.16869
455.24        72.40676
455.69        72.72329
456.13        72.81876
456.58         72.8159
457.02        72.10722
457.46        72.39066
457.91        72.54409
458.35        72.15995
458.79        72.10751
459.24        72.18455
459.68        72.25751
460.13        72.24995
460.57        72.44874
461.01         72.4291
461.46        72.22228
461.90        71.75699
462.34        72.39529
462.79         72.5882
463.23        72.56151
463.68        71.96074
464.12        71.66627
464.56        71.70354
465.01        71.49736
465.45        71.49084
465.89         71.3385
466.34        71.09607
466.78        71.91607
467.22        71.78234
467.67        71.53983
468.11        71.70433
468.55        71.42586
468.99        71.10583
469.44         70.8495
469.88        70.72041
470.32        70.67217
470.77        70.65551
471.21        70.63969
471.65         70.5888
472.10        70.53877
472.54        70.51532
472.98        70.54732
473.42        70.61917
473.87         70.8731
474.31         71.0725
474.75        70.95718
475.20        70.59094
475.64        70.58632
476.08        70.91036
476.52        70.75256
476.97        70.29294
477.41         70.1083
477.85        69.90112
478.29        69.45753
478.74        70.28152
479.18        70.55205
479.62         69.8341
480.06        69.79679
480.50        70.17735
480.95        70.14767
481.39        70.77807
481.83        70.09584
482.27        70.90475
482.72        70.55309
483.16        70.72837
483.60        70.76892
484.04         71.0181
484.48        71.20094
484.93        71.00278
485.37        71.33243
485.81        70.45219
486.25        69.06744
486.69        70.18092
487.14        70.32656
487.58        69.67857
488.02        69.65301
488.46        70.45026
488.90        70.76707
489.34        70.07416
489.79        71.26007
490.23        70.18523
490.67        70.32608
491.11        70.43511
491.55        70.23893
491.99        69.82378
492.43         69.6573
492.88        69.79336
493.32         70.2682
493.76        70.46355
494.20        70.70012
494.64         70.7709
495.08        70.70871
495.52        70.59618
495.96        70.46733
496.41        70.38232
496.85        70.59409
497.29        70.95132
497.73        70.61295
498.17         70.2445
498.61        69.79492
499.05          69.614
499.49        69.77424
499.93        70.13358
500.37        70.24487
500.82        70.11137
501.26        70.03998
501.70        69.97668
502.14        70.49284
502.58        70.02567
503.02        70.11427
503.46        70.30167
503.90        70.54736
504.34        70.76434
504.78        70.84841
505.22        70.77892
505.66        70.59098
506.10         70.3662
506.54        70.23096
506.98        70.21707
507.42        70.44395
507.86        70.24802
508.30        70.65019
508.74        70.17483
509.18        69.93245
509.62        69.65085
510.06         69.5441
510.50        69.64695
510.94        69.90366
511.38        70.22073
511.82        70.40891
512.26        70.41743
512.70        70.30321
513.14        70.13618
513.58        70.02319
514.02        69.99783
514.46        70.02388
514.90        70.07471
515.34        70.11315
515.78         70.1239
516.22        70.12165
516.66        70.11691
517.10        70.11858
517.54         70.1293
517.98        70.14563
518.42        70.14894
518.86         70.1139
519.30        70.03914
519.74        69.93324
520.18        69.83974
520.62        69.82165
521.06        69.89477
521.50        70.05241
521.93        70.23827
522.37        70.33529
522.81        70.32591
523.25          70.228
523.69        70.13557
524.13         70.1974
524.57        70.43212
525.01        70.78796
525.45        71.12206
525.89          71.203
526.32        70.97789
526.76        70.55441
527.20        70.09101
527.64        69.83466
528.08        69.84419
528.52        70.03893
528.96        70.31272
529.40        70.49686
529.83        70.53036
530.27        70.47205
530.71        70.35852
531.15        70.25221
531.59        70.17607
532.03         70.1067
532.46         70.0219
532.90        69.92286
533.34        69.80639
533.78        69.69106
534.22         69.6018
534.66         69.5686
535.09        69.58956
535.53        69.66496
535.97        69.75879
536.41        69.83554
536.85        69.87825
537.28        69.87132
537.72        69.82801
538.16        69.79839
538.60        69.77221
539.04        69.67947
539.47        69.51161
539.91        69.37389
540.35        69.26194
540.79        69.14998
541.22        69.05618
541.66        69.03735
542.10        69.09323
542.54         69.2084
542.97        69.34921
543.41        69.48302
543.85        69.58655
544.29        69.68219
544.72        69.73615
545.16        69.73606
545.60        69.68292
546.04        69.55237
546.47        69.42021
546.91        69.51863
547.35        69.81701
547.79        70.04062
548.22        70.10471
548.66        70.25448
549.10         70.4807
549.53         70.4278
549.97        70.00604
550.41        70.51709
550.84        69.85941
551.28        69.65795
551.72         69.3376
552.15        69.49027
552.59        69.23282
553.03        69.59469
553.46        69.76026
553.90        69.87992
554.34        69.71926
554.77        70.09793
555.21        69.81819
555.65        69.76966
556.08        69.65643
556.52        69.78285
556.96        70.10078
557.39        70.27763
557.83        70.26537
558.27        70.35226
558.70        70.46708
559.14        69.97746
559.57        70.51633
560.01        70.51923
560.45        70.49924
560.88        70.28626
561.32        70.26571
561.75        70.33028
562.19         70.4943
562.63        70.19491
563.06        69.59515
563.50        69.62356
563.93        70.16233
564.37        70.37454
564.80        70.19618
565.24        70.10072
565.68         70.1224
566.11        70.16833
566.55        70.24428
566.98        70.25602
567.42        70.26694
567.85        70.24511
568.29        70.18718
568.72        70.31107
569.16        70.81233
569.60        70.10206
570.03        70.32903
570.47        70.65089
570.90        70.80301
571.34        70.10455
571.77        70.78588
572.21        70.79121
572.64        70.72966
573.08        70.90151
573.51        70.51003
573.95        70.37657
574.38        70.55422
574.82        70.39277
575.25        70.34177
575.69        70.27044
576.12        70.34869
576.56        69.84863
576.99        70.26231
577.42        70.21037
577.86        69.82855
578.29        69.74961
578.73        70.30399
579.16        69.88997
579.60        70.20581
580.03        70.33925
580.47        70.83126
580.90        70.70915
581.33        70.27564
581.77        69.91595
582.20        69.78397
582.64        70.51223
583.07        69.84995
583.51        69.76104
583.94        69.80259
584.37         69.7025
584.81        69.62466
585.24        69.96637
585.68        70.13451
586.11        70.73872
586.54        70.06151
586.98        69.71992
587.41        70.46336
587.85        70.80161
588.28        70.76888
588.71        71.15186
589.15        70.16893
589.58        70.73091
590.01        69.78007
590.45        69.83884
590.88        70.17816
591.31        70.47347
591.75        70.42475
592.18        70.59299
592.61        71.01634
593.05        69.28328
593.48         69.9516
593.91        70.62676
594.35         69.7933
594.78        69.78835
595.21        69.79391
595.65        70.44669
596.08        69.63013
596.51        69.81367
596.94        70.63597
597.38        70.45951
597.81        70.19527
598.24        70.48026
598.68         70.4982
599.11        69.86432
599.54        70.67822
599.97        71.23064
600.41        69.64829
600.84        70.11541
601.27        70.05046
601.70        70.31922
602.14        70.85548
602.57        70.30954
603.00        69.80086
603.43         69.7522
603.87        70.17403
604.30        70.58572
604.73        70.42185
605.16         70.2766
605.60        70.38424
606.03        70.45148
606.46        70.51698
606.89        70.51627
607.32        70.43623
607.76         70.4268
608.19        70.55226
608.62        70.52463
609.05        70.33604
609.48        70.82713
609.92        70.76098
610.35        70.58302
610.78        70.96653
611.21        70.32726
611.64         70.5997
612.07        70.64617
612.50        70.71714
612.94        70.85636
613.37        71.05741
613.80        70.71925
614.23        71.01779
614.66        70.98627
615.09        70.97127
615.52        71.04132
615.96        71.14259
616.39        71.09656
616.82        70.53412
617.25        70.76897
617.68        70.55208
618.11        70.69624
618.54        70.75607
618.97        70.87205
619.40        70.59769
619.84        70.56625
620.27        70.67645
620.70        70.94348
621.13        71.23259
621.56        70.83008
621.99        70.38701
622.42        70.13801
622.85        70.85235
623.28        70.99598
623.71        71.23672
624.14        70.37061
624.57        70.99091
625.00        70.90209
625.43        70.83434
625.86        70.59359
626.29        70.57701
626.72        70.51289
627.15        70.49244
627.58        70.58257
628.01        70.72999
628.44        70.69392
628.87        70.51992
629.30        70.58629
629.73        70.87736
630.16        71.00901
630.59        70.93732
631.02        71.07891
631.45        71.11902
631.88        71.08221
632.31        70.83894
632.74        71.02878
633.17        70.64439
633.60        70.55508
634.03         70.4731
634.46        70.40319
634.89        70.34788
635.32         70.3401
635.75        70.38479
636.18        70.45399
636.61        70.52162
637.04        70.55108
637.47        70.53709
637.89          70.478
638.32        70.36307
638.75        70.27991
639.18        70.25201
639.61         70.0022
640.04        70.03263
640.47        69.99094
640.90        70.02834
641.33        70.13899
641.76        70.27711
642.18        70.35876
642.61        70.33377
643.04        70.22829
643.47        70.12673
643.90        70.14409
644.33        70.29218
644.76        70.62114
645.18         70.9845
645.61        70.94679
646.04        70.41305
646.47        70.27361
646.90        70.47065
647.33         70.4416
647.75        70.16794
648.18        70.00439
648.61        70.00233
649.04        70.02471
649.47        70.07116
649.89        70.33923
650.32        70.67122
650.75        70.57771
651.18        70.19028
651.61        70.11562
652.03        70.43099
652.46        70.90262
652.89        71.20971
653.32        71.10048
653.74        70.80988
654.17        69.92502
654.60        69.70201
655.03        71.68512
655.46        69.69486
655.88        70.70919
656.31        71.72114
656.74        71.47779
657.16        71.58708
657.59        70.23208
658.02        69.60286
658.45        71.18497
658.87        70.92072
659.30        70.77029
659.73        71.21416
660.15        71.68675
660.58        71.61718
661.01        71.39254
661.44        70.90918
661.86        70.33593
662.29        69.87123
662.72        70.18112
663.14        71.02979
663.57        70.89885
664.00        69.95376
664.42        69.70564
664.85        70.21806
665.27        70.57693
665.70        70.66627
666.13        70.77665
666.55        70.89137
666.98        70.91673
667.41        70.87424
667.83        70.80516
668.26        70.71468
668.69        70.60505
669.11        70.51981
669.54        70.49967
669.96        70.54626
670.39        70.72893
670.82        70.95029
671.24        70.86921
671.67        70.53891
672.09        70.42747
672.52        70.57067
672.94        70.72404
673.37        70.34324
673.80        70.88489
674.22        70.74936
674.65        70.97072
675.07        71.11541
675.50        71.24203
675.92        71.32365
676.35        71.31069
676.77        71.22166
677.20        71.04128
677.62        70.84864
678.05        70.78734
678.47         70.8721
678.90        71.04494
679.32        71.21803
679.75        71.28343
680.17        71.20417
680.60        71.01846
681.02        70.80582
681.45        70.69145
681.87        70.70625
682.30        70.83612
682.72        71.04073
683.15        71.07468
683.57         70.9923
684.00        71.15067
684.42        71.43253
684.85        71.52668
685.27        71.41142
685.70        71.12534
686.12        70.82402
686.54        71.11309
686.97        71.83532
687.39        72.08453
687.82        71.78194
688.24        71.82055
688.66        71.88333
689.09        71.79118
689.51        71.48219
689.94        71.27908
690.36        71.21687
690.78        71.13812
691.21        71.07558
691.63        71.26427
692.06        71.60629
692.48        71.68516
692.90        71.50986
693.33        71.45261
693.75        71.52887
694.17        71.49396
694.60        71.38156
695.02        71.35796
695.44        71.42944
695.87        71.62922
696.29        71.88446
696.71        71.84402
697.14        71.58103
697.56        71.56881
697.98        71.80392
698.41        71.89603
698.83        71.82634
699.25        71.84257
699.68        71.89912
700.10        71.86009
700.52         71.7039
700.94        71.49258
701.37        71.27956
701.79        71.16576
702.21        71.16714
702.64        71.25964
703.06        71.40969
703.48        71.57695
703.90        71.74103
704.33         71.9203
704.75        72.05784
705.17         72.1353
705.59        72.11949
706.01        72.01765
706.44        71.87944
706.86        71.77168
707.28         71.7107
707.70        71.75571
708.12        71.86936
708.55         71.8168
708.97        71.64361
709.39        71.75819
709.81        72.01089
710.23        72.24033
710.66        72.37032
711.08         72.5808
711.50        72.81792
711.92        72.95605
712.34        72.98441
712.76        72.93457
713.19         72.8276
713.61        72.75238
714.03        72.71646
714.45        72.70747
714.87        72.72182
715.29        72.75095
715.71        72.78647
716.13        72.82895
716.56        72.85264
716.98        72.90395
717.40         72.9511
717.82        72.98934
718.24        73.00309
718.66        72.97253
719.08        72.89714
719.50        72.78284
719.92        72.66346
720.34         72.5929
720.76        72.58251
721.19        72.61274
721.61        72.67281
722.03        72.66568
722.45        72.55673
722.87        72.45347
723.29         72.4463
723.71        72.06984
724.13        72.36892
724.55         72.4695
724.97        72.61595
725.39        72.69359
725.81        72.68668
726.23        72.61902
726.65        72.52656
727.07        72.49654
727.49        72.54496
727.91        72.63259
728.33        72.74689
728.75        72.86789
729.17        72.98058
729.59        73.09727
730.01        73.16405
730.43        73.10659
730.85        72.92864
731.27         72.6037
731.69        72.35689
732.10        72.30682
732.52        72.52034
732.94        72.93835
733.36        73.42245
733.78        73.73329
734.20         73.7942
734.62        73.63592
735.04        73.38902
735.46        73.34655
735.88        73.52547
736.30        73.65531
736.72        73.67111
737.13        73.73047
737.55        73.73707
737.97        73.46213
738.39          73.032
738.81        72.79948
739.23        72.84704
739.65        73.16614
740.06        73.57546
740.48        73.76597
740.90        73.67155
741.32        73.44537
741.74        73.19884
742.16        73.09919
742.57         73.2117
742.99        73.38026
743.41        73.55673
743.83        73.84349
744.25        74.11963
744.67        73.98351
745.08         73.5388
745.50        73.33461
745.92        73.44069
746.34        73.55045
746.75        73.63058
747.17        73.75848
747.59         73.9161
748.01         74.0872
748.42        74.23637
748.84        74.29892
749.26        74.27651
749.68        74.11024
750.09        73.86311
750.51        73.84391
750.93        73.98571
751.35        73.88272
751.76        73.57262
752.18        73.44454
752.60         73.5183
753.01        73.57682
753.43        73.59771
753.85        73.67964
754.27        73.82829
754.68        74.04266
755.10        74.25874
755.52        74.37894
755.93        74.36389
756.35        74.20434
756.77         74.0465
757.18        74.10536
757.60        74.41354
758.02        75.06691
758.43        75.65279
758.85        75.63605
759.26        73.96619
759.68        73.51007
760.10        74.21631
760.51        74.39768
760.93        74.11466
761.34        74.27708
761.76        74.79297
762.18        75.09288
762.59        75.08207
763.01        74.64458
763.42        74.00161
763.84        73.69148
764.26          73.807
764.67        74.05641
765.09        74.34756
765.50        74.56592
765.92        74.67912
766.33        74.76414
766.75        74.74949
767.16        74.73008
767.58        74.67888
768.00        74.44292
768.41         74.1487
768.83        74.34056
769.24         74.8402
769.66        74.87234
770.07          74.465
770.49        74.14124
770.90        74.06169
771.32        74.44022
771.73        75.11536
772.15        75.32045
772.56        74.98824
772.97        74.80756
773.39        74.41447
773.80        74.39945
774.22        74.62648
774.63        75.11244
775.05        75.61738
775.46        75.85126
775.88        75.70581
776.29        75.30613
776.70        74.81065
777.12        74.50498
777.53        74.47924
777.95        74.62648
778.36        74.87273
778.77        75.08703
779.19        75.22344
779.60        75.36357
780.02        75.46439
780.43        75.57476
780.84        75.69424
781.26        75.57407
781.67        75.35265
782.09        75.74867
782.50        76.55522
782.91        76.58729
783.33         75.8713
783.74        75.49194
784.15         75.5076
784.57         75.3034
784.98        74.94991
785.39        74.86407
785.81        75.08086
786.22         75.4743
786.63        75.96234
787.04        76.41099
787.46        76.76391
787.87        77.02831
788.28        77.20985
788.70        77.31117
789.11        77.33302
789.52         77.2936
789.93        77.19018
790.35        77.01785
790.76        76.80807
791.17        76.58018
791.58        76.41904
792.00        76.40162
792.41        76.55463
792.82        76.91705
793.23        77.37397
793.65        77.51131
794.06         77.3867
794.47        77.53211
794.88        77.86291
795.29        77.85435
795.71        77.46877
796.12        77.03107
796.53        76.70824
796.94         76.6806
797.35        77.01363
797.76        77.65157
798.18        78.36113
798.59         78.8071
799.00        78.86755
799.41        78.63593
799.82         78.2424
800.23        77.92078
800.64        77.76109
801.06        77.67545
801.47        77.68011
801.88        77.71996
802.29        77.76629
802.70        77.83044
803.11        77.91434
803.52        78.00379
803.93        78.10082
804.34        78.21453
804.75        78.27842
805.17        78.24929
805.58        78.16908
805.99         77.8517
806.40        77.48366
806.81        77.82467
807.22        78.69861
807.63        78.95531
808.04        78.59865
808.45        78.60135
808.86        78.99457
809.27        79.18229
809.68        79.07731
810.09         78.8644
810.50        78.55611
810.91        78.10251
811.32        77.67674
811.73        77.55364
812.14        77.78443
812.55        78.31918
812.96        78.93757
813.37        79.21169
813.78        79.03339
814.19        78.55328
814.60        78.00655
815.01        77.73329
815.42        77.81564
815.83        78.13924
816.24        78.60809
816.65        79.02865
817.05        79.29478
817.46        79.42075
817.87        79.42212
818.28        79.25966
818.69        78.95539
819.10        78.52198
819.51         78.0607
819.92        77.77816
820.33        77.74236
820.74        77.89363
821.14        78.17477
821.55        78.49063
821.96        78.78284
822.37        79.08105
822.78        79.28807
823.19        79.23788
823.60        78.90337
824.00        78.32227
824.41        77.68136
824.82        77.31204
825.23        77.29045
825.64         77.5582
826.04        77.94575
826.45        78.05085
826.86        77.80721
827.27        77.33749
827.68        76.86855
828.08        76.78139
828.49        77.11797
828.90        77.78545
829.31        78.60019
829.72         79.2494
830.12        79.64826
830.53        79.79128
830.94        79.81459
831.35        79.90601
831.75        80.13856
832.16        80.36146
832.57        80.50204
832.97        80.40833
833.38        80.06239
833.79        79.59782
834.20        79.09465
834.60        78.62626
835.01        78.27116
835.42        77.98759
835.82        77.90169
836.23         78.1473
836.64        78.74408
837.04        79.66452
837.45        80.56792
837.86        81.04742
838.26        80.98026
838.67        80.48062
839.08        79.78159
839.48        79.23975
839.89        79.01223
840.29        78.99615
840.70         79.1292
841.11        79.32339
841.51        79.55984
841.92        79.84157
842.33        80.15923
842.73        80.46373
843.14          80.674
843.54        80.80714
843.95        80.86898
844.35        80.95387
844.76        81.04941
845.17        81.11485
845.57        81.11947
845.98        80.97902
846.38        80.70641
846.79         80.3427
847.19        79.90847
847.60        79.37988
848.00        78.82102
848.41        78.27241
848.81        77.88869
849.22        77.88564
849.62        78.32281
850.03        79.07822
850.43        80.01463
850.84        80.66194
851.24        80.93116
851.65        80.81171
852.05        80.47215
852.46        80.15321
852.86        79.92934
853.27        79.82046
853.67        79.65487
854.07        79.39854
854.48        78.98547
854.88        78.47152
855.29        77.93113
855.69        77.75263
856.10        77.92818
856.50        78.45985
856.90        78.99903
857.31        79.06431
857.71        78.61165
858.12         77.7445
858.52        76.82683
858.92        76.41415
859.33        76.63986
859.73         77.3798
860.13        78.31944
860.54        78.95499
860.94        79.16939
861.34        79.00539
861.75        78.58827
862.15        78.20567
862.55        77.92427
862.96        77.70543
863.36        77.38042
863.76         76.7142
864.17        75.73715
864.57        74.60326
864.97        73.63745
865.38        73.26297
865.78        73.59206
866.18        74.47047
866.58         75.6497
866.99        76.58276
867.39         77.0797
867.79        77.23022
868.19        77.07694
868.60        76.70245
869.00        76.19448
869.40        75.52094
869.80        74.95325
870.21        74.96288
870.61        75.66802
871.01        76.88365
871.41        78.17448
871.81        78.83036
872.22        78.66553
872.62        77.88652
873.02        76.80282
873.42        75.95203
873.82        75.54496
874.22        75.47377
874.63        75.60377
875.03        75.72336
875.43        75.76698
875.83        75.79351
876.23        75.95342
876.63        76.47103
877.03        77.33203
877.44        78.36361
877.84        79.26893
878.24        79.48388
878.64         78.9324
879.04        77.87592
879.44        76.67933
879.84        75.87116
880.24        75.59245
880.64        75.65995
881.04        76.05161
881.44        76.71485
881.84        77.56332
882.24        78.63492
882.65        79.55316
883.05        79.80626
883.45        79.24411
883.85        78.05538
884.25        76.78886
884.65        76.29507
885.05        76.73715
885.45        77.82628
885.85        79.16627
886.25        80.05864
886.65        80.24552
887.05        79.96188
887.45        79.26483
887.85        78.27176
888.25        77.16458
888.65        75.97314
889.04         74.9725
889.44        74.61651
889.84        74.89507
890.24        75.73231
890.64        76.84756
891.04         77.6046
891.44         77.7622
891.84        77.50034
892.24        77.07788
892.64        76.87698
893.04         76.9916
893.44        77.27938
893.83        77.71323
894.23        78.16895
894.63        78.60397
895.03        79.05721
895.43        79.43909
895.83        79.60263
896.23        79.52911
896.63        79.23129
897.02        78.84446
897.42        78.66621
897.82        78.74656
898.22        79.04414
898.62        79.36237
899.01        79.37418
899.41        79.00142
899.81        78.35917
900.21        77.72017
900.61        77.50105
901.00         77.7749
901.40        78.40276
901.80        79.06266
902.20        79.23313
902.59        78.79131
902.99        77.91525
903.39        76.92932
903.79        76.30987
904.18        76.18053
904.58        76.43468
904.98        76.84409
905.38        77.06663
905.77        76.98985
906.17        76.71182
906.57        76.43189
906.96        76.49459
907.36        76.92307
907.76         77.6138
908.15        78.26536
908.55        78.25969
908.95         77.5573
909.34        76.38384
909.74        75.25288
910.14        74.80325
910.53        75.22868
910.93        76.28091
911.33         77.7267
911.72         79.2069
912.12        80.44811
912.52        81.51789
912.91        82.35748
913.31        82.84858
913.70        82.97433
914.10        82.71011
914.49        82.07855
914.89        81.13741
915.29        80.00365
915.68        78.76313
916.08        77.70169
916.47        77.09872
916.87        77.05949
917.26        77.45765
917.66        78.13429
918.05        78.83099
918.45         79.3636
918.84        79.82605
919.24        80.04731
919.64        79.92197
920.03        79.47496
920.42        78.72956
920.82        77.96016
921.21        77.49593
921.61        77.43504
922.00        77.71371
922.40         78.1957
922.79        78.71385
923.19        79.13797
923.58        79.51958
923.98        79.81239
924.37        79.96138
924.77        79.96432
925.16        79.83599
925.55        79.63244
925.95        79.46844
926.34        79.40649
926.74        79.40582
927.13        79.46928
927.52        79.55531
927.92        79.64126
928.31        79.70921
928.70        79.72342
929.10         79.6105
929.49        79.35426
929.89        78.93889
930.28        78.42283
930.67        77.83252
931.07        77.23345
931.46        76.70424
931.85        76.27795
932.24        75.98468
932.64        75.85294
933.03        75.88693
933.42        76.16606
933.82         76.7927
934.21         77.7481
934.60        78.87677
934.99        79.98666
935.39        80.76279
935.78        81.15752
936.17        81.22813
936.56        80.86508
936.96        79.98363
937.35        78.70895
937.74        77.16801
938.13        75.87398
938.53        75.45479
938.92        75.94981
939.31        77.26522
939.70        78.86887
940.09        79.70511
940.49        79.42162
940.88        78.29215
941.27        76.94155
941.66        76.32318
942.05        76.64681
942.44        77.68751
942.84        78.81784
943.23        79.00795
943.62        77.95374
944.01        76.03757
944.40        74.16305
944.79        73.62318
945.18        74.66373
945.57        76.91202
945.97        79.39572
946.36        80.65723
946.75        80.16402
947.14        78.39928
947.53        76.34579
947.92        75.49783
948.31        76.22603
948.70         78.0926
949.09         80.3054
949.48        81.44218
949.87        81.05423
950.26         79.6207
950.65        77.91685
951.04        76.99165
951.43        77.10126
951.82        77.96293
952.21        79.03154
952.60        79.35132
952.99        78.66428
953.38        77.31079
953.77        76.00578
954.16        75.68107
954.55         76.5048
954.94        78.27624
955.33        80.25198
955.72        80.85997
956.11        79.60695
956.50         77.0615
956.89        74.42065
957.28        73.21786
957.66        73.78984
958.05        75.65475
958.44        78.01487
958.83        79.23577
959.22          78.763
959.61        77.16956
960.00        75.34216
960.39        74.40753
960.78        74.57316
961.16        75.51161
961.55        76.66804
961.94        77.07806
962.33        76.43634
962.72        75.21422
963.11        73.90527
963.49        73.13281
963.88        73.05323
964.27        73.41284
964.66         74.1569
965.04        75.25694
965.43        76.48857
965.82        77.87305
966.21        79.03976
966.60        79.31791
966.98        78.62527
967.37        77.27022
967.76        75.72093
968.15        74.60574
968.53        74.06544
968.92        73.86846
969.31        74.11024
969.69        74.95546
970.08        76.27769
970.47        78.16063
970.86        79.88305
971.24        80.20776
971.63        78.89928
972.02        76.38012
972.40        73.82844
972.79        73.12043
973.17         74.5801
973.56        77.53506
973.95         80.9901
974.33        83.03329
974.72        82.94367
975.11        81.36218
975.49         79.1354
975.88        77.86163
976.26        77.95833
976.65        78.86573
977.04        80.12806
977.42         80.9405
977.81        80.84962
978.19        80.28078
978.58        79.46419
978.96        78.60519
979.35         77.8948
979.74        77.27361
980.12        76.92516
980.51         77.1361
980.89        77.99871
981.28        79.24355
981.66         80.8298
982.05        82.36227
982.43        83.76814
982.82        85.04425
983.20        85.76445
983.59        85.13047
983.97        83.15591
984.35        80.14878
984.74        77.33318
985.12        76.37791
985.51        77.49571
985.89        80.32502
986.28        83.51827
986.66        85.15231
987.04        84.49159
987.43        82.10205
987.81        79.01299
988.20        77.33505
988.58        77.62656
988.96        79.31578
989.35        81.14246
989.73        81.29551
990.12        79.29467
990.50        75.94872
990.88         72.3367
991.27        70.16109
991.65        69.87309
992.03        70.93819
992.42        72.85992
992.80        75.21243
993.18        77.61585
993.56        80.22479
993.95        82.53249
994.33         83.7295
994.71        83.49305
995.10        82.07686
995.48        80.14471
995.86        78.83654
996.24        78.45949
996.63        78.63153
997.01        79.33939
997.39        80.24061
997.77        81.11631
998.15        82.16593
998.54        82.92677
998.92         82.6631
999.30        81.28561
999.68        78.90291
1000.06        76.49606
1000.45        75.93044
1000.83        77.76954
1001.21         81.4482
1001.59        85.64294
1001.97        88.15897
1002.35        88.35269
1002.73        86.82758
1003.12        84.45634
1003.50         82.5514
1003.88        81.62919
1004.26        81.36798
1004.64        81.47352
1005.02        81.49328
1005.40        81.27613
1005.78        80.97874
1006.16        80.92444
1006.54        81.51814
1006.92        82.79835
1007.30        84.67513
1007.69        86.40361
1008.07        86.66205
1008.45        84.94333
1008.83        81.61615
1009.21         77.9551
1009.59        76.12492
1009.97        76.67914
1010.35        78.94012
1010.73        81.85915
1011.11        83.64937
1011.49         83.7578
1011.86        82.89748
1012.24         81.2184
1012.62        79.11877
1013.00        76.82244
1013.38        74.04102
1013.76        71.45381
1014.14        70.59339
1014.52        71.89386
1014.90        75.02387
1015.28           78.49
1015.66        79.87702
1016.04        78.58718
1016.41        75.28175
1016.79        71.04593
1017.17        68.33202
1017.55        68.06062
1017.93         69.3351
1018.31        71.25148
1018.69         73.1741
1019.06        75.20261
1019.44        77.55567
1019.82        80.73471
1020.20        84.61398
1020.58        88.05058
1020.95        90.17233
1021.33        90.33593
1021.71        88.13053
1022.09        83.47453
1022.46        75.75705
1022.84        66.12444
1023.22         59.2309
1023.60        58.28529
1023.97        61.99535
1024.35        67.13392
1024.73        70.29723
