SpectraSmart Spectrum 2.9.0.0
--------- Device Information -----------
Spectrum Name :  反射率_0
Saving Time :  2024/04/30 00:35:43
Spectro-Module Model Name : SE2030-DUVN
Spectro-Module Serial Number : OS361AC55029948
Wavelength Start : 200
Wavelength End : 1025
Wavelength Unit : Wavelength(nm)
Spectrum Unit : Reflectance(%)
-----------Spectrum Setting ------------
Integration Time : 20ms
Average : 10
Boxcar : 0
Background removal :  enabled
linearity correction :  enabled
SC :  disabled
Intensity correction :  disabled
DWT denoise :  enabled
savitzky-golay :  disabled
FFT :  disabled
Running average :  disabled
Kalman :  disabled
High pass :  disabled
---------------BEGIN--------------------
Wavelength(nm)             Reflectance(%)
200.29               0
200.75        116.1053
201.21        94.98211
201.67        73.49335
202.13         57.6883
202.58        50.65106
203.04        50.78226
203.50        58.70021
203.96        74.36137
204.42        95.01099
204.88        118.7483
205.34        134.5981
205.80        129.2878
206.26        108.3309
206.72        82.91534
207.18        61.94133
207.64        50.16641
208.10        45.77348
208.55        45.75535
209.01        48.86859
209.47        53.08981
209.93        56.64008
210.39        59.88892
210.85        62.07837
211.31        62.68404
211.77         61.7909
212.23        58.76066
212.69        54.06815
213.14        51.96185
213.60        54.04151
214.06        58.75886
214.52        63.02988
214.98        64.70814
215.44        64.32761
215.90        62.83516
216.36        61.90698
216.81        64.75876
217.27        73.20729
217.73        87.87466
218.19         107.719
218.65        122.8589
219.11        125.1747
219.57        117.2639
220.02        106.8494
220.48        100.0635
220.94        96.04279
221.40        93.01102
221.86        88.73236
222.32         80.6754
222.77        71.20719
223.23        64.23145
223.69         60.3801
224.15        59.05214
224.61        59.33369
225.06        60.79147
225.52        62.72408
225.98        63.23992
226.44        62.07981
226.90        60.31299
227.36        58.79708
227.81        58.06713
228.27        58.11897
228.73        58.58589
229.19        59.51036
229.65        60.79775
230.10        62.01508
230.56        63.15324
231.02        63.82829
231.48        63.77552
231.93        62.99896
232.39        61.67277
232.85        60.13281
233.31         59.1574
233.77        59.02146
234.22        59.71188
234.68        60.62857
235.14         60.7083
235.60        59.78135
236.05        58.25031
236.51        57.14083
236.97        57.77487
237.43        60.57169
237.88        65.80013
238.34        72.76464
238.80        78.89891
239.26        81.89124
239.71        81.88251
240.17        80.25468
240.63        79.86509
241.08        81.97106
241.54        86.52206
242.00         94.5332
242.46           104.1
242.91        110.8492
243.37        112.8429
243.83        111.6877
244.28        110.9124
244.74        111.3638
245.20        111.4145
245.66        111.8518
246.11        114.6724
246.57        120.1506
247.03        129.4832
247.48        136.9671
247.94        130.7973
248.40        114.4193
248.85        96.30223
249.31        84.31328
249.77        81.05199
250.22        85.64017
250.68        98.50896
251.14        119.8545
251.59        133.7934
252.05        127.4767
252.51        112.7973
252.96        100.5582
253.42        94.86599
253.88        93.35562
254.33        93.73714
254.79        94.97738
255.25        94.84702
255.70        92.94311
256.16        91.13883
256.62        89.88497
257.07        89.29774
257.53        89.61238
257.99        90.16983
258.44        90.12012
258.90        89.27025
259.35        87.32909
259.81        85.31885
260.27        83.49282
260.72        82.04647
261.18         81.1814
261.63        80.35206
262.09        79.51101
262.55        78.16685
263.00        76.29813
263.46         74.4053
263.91         72.5319
264.37        71.15092
264.83        70.11859
265.28        69.21918
265.74        68.43629
266.19        67.45982
266.65        66.36475
267.11        65.21725
267.56        64.06501
268.02        62.99393
268.47        61.95972
268.93        60.91088
269.38        59.86368
269.84        58.97511
270.30        58.25137
270.75        57.66793
271.21        57.03327
271.66        55.98397
272.12        54.49772
272.57        52.65028
273.03        50.79943
273.48         49.4218
273.94        48.68797
274.39        48.36228
274.85         48.1889
275.31        47.68739
275.76        46.74311
276.22         45.5738
276.67        44.33137
277.13        43.36671
277.58         42.6837
278.04        42.21916
278.49        41.78106
278.95        41.23753
279.40        40.50151
279.86         39.7234
280.31        38.94615
280.77        38.37225
281.22        37.97972
281.68        37.73796
282.13        37.55061
282.59        37.36845
283.04        37.13207
283.50        36.87769
283.95        36.56969
284.41        36.18901
284.86        35.73248
285.32        35.26545
285.77        34.80513
286.22        34.46725
286.68        34.28214
287.13        34.17429
287.59        34.15198
288.04        34.15153
288.50        34.16914
288.95        34.17813
289.41        34.16421
289.86        34.04879
290.32        33.86378
290.77        33.63793
291.22        33.44239
291.68        33.38086
292.13         33.4824
292.59        33.76436
293.04        34.24869
293.50        35.00497
293.95        36.02436
294.40        37.29651
294.86        38.71751
295.31        40.13473
295.77        41.48913
296.22        42.77893
296.68        44.08207
297.13        45.50381
297.58        47.06541
298.04        48.69659
298.49        50.28419
298.95        51.67351
299.40         52.8385
299.85        53.86634
300.31        54.90364
300.76        56.08259
301.21        57.48562
301.67        59.09546
302.12        60.82591
302.58        62.69344
303.03        64.62959
303.48        66.56869
303.94        68.51514
304.39        70.73891
304.84        72.70019
305.30        74.80368
305.75        76.77611
306.20         78.5295
306.66        80.06515
307.11        81.36401
307.57        82.58407
308.02        83.82723
308.47        85.17393
308.93        86.60139
309.38        88.01414
309.83         89.3394
310.29        90.55488
310.74        91.67369
311.19        92.70284
311.65        93.63742
312.10        94.46885
312.55        95.21259
313.00        95.95605
313.46        96.84206
313.91        97.87196
314.36        99.00577
314.82        100.1149
315.27        101.0203
315.72        101.6473
316.18         102.047
316.63        102.2868
317.08        102.4909
317.53        102.7246
317.99        103.0004
318.44        103.2832
318.89         103.531
319.35        103.7431
319.80        103.9333
320.25        104.2342
320.70        104.8516
321.16        105.7661
321.61        106.9404
322.06        108.0568
322.51        108.6124
322.97        108.4877
323.42        107.8494
323.87        107.0329
324.32        106.5994
324.78        106.6873
325.23        107.2129
325.68         107.939
326.13        108.4559
326.59        108.6145
327.04        108.5788
327.49        108.5183
327.94        108.7518
328.39        109.3462
328.85        110.1265
329.30        110.9519
329.75        111.3863
330.20        111.3223
330.66        110.9001
331.11        110.3838
331.56        110.1135
332.01        110.2264
332.46         110.638
332.92        111.2403
333.37        111.9988
333.82        112.7922
334.27        113.6364
334.72        114.4847
335.17        115.2581
335.63         115.894
336.08        116.4435
336.53         116.845
336.98        117.0928
337.43        117.2059
337.88        117.1961
338.34        117.1781
338.79        117.3506
339.24         117.755
339.69        118.3772
340.14        119.0636
340.59        119.5342
341.05        119.7417
341.50        119.7834
341.95        119.8483
342.40        120.2592
342.85        121.0668
343.30        122.1085
343.75        123.2082
344.20        124.0941
344.66        124.6772
345.11        125.0494
345.56        125.1792
346.01        125.0148
346.46        124.6202
346.91        124.0394
347.36        123.5523
347.81        123.5804
348.26        124.1812
348.72        125.2112
349.17         126.386
349.62        127.1301
350.07        127.2781
350.52        127.0136
350.97        126.5584
351.42         126.262
351.87        126.2389
352.32        126.3646
352.77        126.6182
353.22         126.983
353.67        127.3944
354.13        127.8246
354.58        128.1438
355.03        128.1258
355.48        127.7189
355.93        126.9967
356.38        126.0382
356.83        124.9728
357.28        123.8833
357.73        122.7748
358.18        121.7479
358.63        120.9474
359.08        120.3892
359.53        120.0291
359.98        119.7485
360.43        119.3448
360.88        118.7563
361.33        118.0331
361.78        117.2114
362.23         116.361
362.68        115.5149
363.13        114.6486
363.58        113.8035
364.03        113.0459
364.48        112.3877
364.93        111.8294
365.38        111.3029
365.83        110.6925
366.28        109.9763
366.73        109.1797
367.18        108.3937
367.63        107.7629
368.08        107.3033
368.53        106.9604
368.98        106.6117
369.43        106.0581
369.88        105.2686
370.33        104.3309
370.78        103.3653
371.23        102.5723
371.68        102.0082
372.13        101.5845
372.58        101.2748
373.03        101.0335
373.48        100.8051
373.93        100.6002
374.38        100.2729
374.83        99.59153
375.28        98.56067
375.72        97.26097
376.17        96.02097
376.62        95.16067
377.07        94.73738
377.52        94.62636
377.97        94.68391
378.42        94.66882
378.87         94.4891
379.32        94.21665
379.77        93.84222
380.22        93.34928
380.67        92.74566
381.11        92.01221
381.56        91.24315
382.01         90.6302
382.46         90.2261
382.91         90.0055
383.36        89.82236
383.81        89.43521
384.26        88.80067
384.71        87.99415
385.15        87.18227
385.60        86.68628
386.05        86.53913
386.50        86.63359
386.95        86.77122
387.40        86.64944
387.85        86.21484
388.29        85.53667
388.74        84.88314
389.19        84.39672
389.64        84.10947
390.09        83.92834
390.54        83.80147
390.98        83.63963
391.43        83.44912
391.88        83.24956
392.33        82.98197
392.78        82.63017
393.23        82.21685
393.67        81.59097
394.12        80.90897
394.57        80.91487
395.02        80.46353
395.47        80.49174
395.91        80.58668
396.36        80.57877
396.81        80.42558
397.26        80.19753
397.71        79.93719
398.15        79.58667
398.60        79.24599
399.05        79.00027
399.50        78.81182
399.95         78.4341
400.39        77.71799
400.84        77.88191
401.29        78.64332
401.74          78.808
402.18        78.26556
402.63        77.63897
403.08        77.18546
403.53        77.00422
403.97         77.1343
404.42        77.50801
404.87        77.90985
405.32        77.94358
405.76        77.52141
406.21        76.98233
406.66        76.42981
407.11        75.70518
407.55        75.09718
408.00        75.21291
408.45        75.95377
408.90        76.73616
409.34        77.21388
409.79        76.95107
410.24        76.18712
410.68        75.90228
411.13        76.18224
411.58        76.42369
412.03        76.50516
412.47        76.53158
412.92        76.43983
413.37        76.24371
413.81        75.96936
414.26        75.73872
414.71        75.54577
415.15        75.37917
415.60        75.23904
416.05        75.17543
416.49        75.20106
416.94        75.31366
417.39        75.44094
417.83        75.43938
418.28        75.29684
418.73        75.06024
419.17        74.85261
419.62        74.88549
420.07        75.16203
420.51        75.56898
420.96        76.00182
421.41        76.16014
421.85        75.95303
422.30        75.82597
422.74        75.70361
423.19        74.97664
423.64        73.93842
424.08         73.9832
424.53         74.9726
424.98        75.42088
425.42        75.18325
425.87        75.24637
426.31        75.57565
426.76        75.29994
427.21        74.45168
427.65        74.48492
428.10        75.15089
428.54         75.1058
428.99        74.45036
429.44         73.9052
429.88        73.67142
430.33         74.0928
430.77        74.88628
431.22        75.17123
431.66        75.44877
432.11        75.10914
432.56        74.46725
433.00        74.44046
433.45        75.26767
433.89         75.0217
434.34        74.99405
434.78        76.92123
435.23         74.4521
435.67         73.9663
436.12         73.7528
436.57        73.94983
437.01        74.30737
437.46        75.13313
437.90        74.75194
438.35        74.97663
438.79        75.32256
439.24         75.4347
439.68        75.34254
440.13        75.48142
440.57        75.85338
441.02        75.95385
441.46        75.69707
441.91        75.88528
442.35        75.81597
442.80         75.4049
443.24        75.96695
443.69        75.76811
444.13        75.32571
444.58        75.09718
445.02        75.07008
445.47        75.01588
445.91        74.93066
446.36        74.94363
446.80         75.0239
447.24        75.31934
447.69        75.47338
448.13        75.61167
448.58        75.64177
449.02        75.57946
449.47        75.51172
449.91        75.54175
450.36         75.7064
450.80        75.94435
451.25        76.19202
451.69        76.31247
452.13        76.28304
452.58        76.18077
453.02        76.05225
453.47         75.9522
453.91        75.86943
454.36        75.99734
454.80        75.99067
455.24        76.08079
455.69          76.077
456.13         76.4922
456.58        76.19962
457.02        75.95963
457.46        75.73506
457.91        75.51667
458.35        75.35954
458.79        75.21822
459.24        75.14474
459.68        75.19344
460.13        75.32683
460.57        75.29652
461.01        75.34953
461.46        75.09974
461.90        74.69056
462.34        74.99715
462.79        75.15088
463.23        75.05976
463.68        74.53851
464.12        74.20603
464.56        74.09106
465.01        73.93855
465.45        73.75587
465.89        73.66302
466.34        73.65717
466.78         74.2702
467.22        74.44481
467.67        74.57937
468.11         74.3835
468.55        73.96101
468.99        73.46918
469.44        73.11877
469.88        72.98341
470.32         73.0099
470.77        73.10855
471.21         73.1546
471.65        73.09647
472.10        72.99738
472.54        72.90051
472.98        72.90443
473.42        73.01146
473.87        73.19731
474.31        73.37592
474.75        73.36936
475.20        73.19844
475.64        73.14965
476.08        73.22189
476.52        72.97466
476.97        72.34978
477.41        72.38573
477.85        71.80042
478.29        71.52295
478.74        72.37457
479.18        72.78762
479.62        71.87468
480.06        71.78768
480.50        72.16146
480.95        72.07912
481.39        72.70608
481.83        71.79653
482.27        72.80696
482.72        72.41763
483.16        72.65137
483.60        72.23298
484.04         72.6405
484.48        72.76991
484.93        72.77895
485.37        72.84612
485.81        71.61866
486.25        71.40014
486.69        72.60283
487.14        72.23155
487.58        71.46321
488.02         71.7168
488.46        72.90094
488.90        72.25308
489.34         71.8074
489.79        72.51875
490.23        71.76286
490.67        71.95155
491.11        72.05629
491.55        71.97765
491.99        71.71268
492.43        71.61593
492.88        71.71573
493.32        71.79484
493.76        71.84135
494.20         71.9379
494.64        72.06902
495.08        72.25954
495.52        72.41827
495.96        72.29384
496.41        71.96684
496.85        71.77134
497.29        71.68694
497.73        71.88978
498.17         71.4967
498.61        71.51399
499.05        71.04742
499.49        71.22261
499.93         71.6777
500.37        71.67746
500.82        71.26328
501.26        71.07379
501.70        71.27293
502.14        71.32188
502.58        71.25034
503.02        71.27692
503.46        71.41856
503.90        71.43631
504.34        71.62905
504.78        71.67326
505.22        71.65153
505.66        71.52781
506.10        71.37455
506.54        71.42158
506.98        71.63468
507.42        71.85716
507.86         71.5004
508.30        71.79021
508.74        71.26826
509.18           70.91
509.62        70.48599
510.06         70.3553
510.50        70.56366
510.94        71.02261
511.38        71.54345
511.82        71.77351
512.26        71.62953
512.70         71.2229
513.14        70.74633
513.58        70.49627
514.02        70.54855
514.46        70.80777
514.90         71.1404
515.34        71.33219
515.78        71.31735
516.22        71.16624
516.66         70.9688
517.10        70.85735
517.54        70.86868
517.98        70.95695
518.42        71.05264
518.86        71.05279
519.30        70.93523
519.74        70.73985
520.18        70.54776
520.62        70.47469
521.06        70.54964
521.50        70.74539
521.93        70.97913
522.37         71.0927
522.81        71.05745
523.25         70.9068
523.69        70.75235
524.13        70.76913
524.57        70.98122
525.01        71.32313
525.45        71.64629
525.89        71.71137
526.32        71.46332
526.76        71.01942
527.20        70.52711
527.64        70.21846
528.08        70.15487
528.52        70.24863
528.96        70.43145
529.40        70.62247
529.83        70.75604
530.27        70.81029
530.71        70.78395
531.15         70.7342
531.59        70.67034
532.03        70.55075
532.46        70.39348
532.90        70.28078
533.34        70.22433
533.78        70.21779
534.22        70.24377
534.66        70.26881
535.09        70.27695
535.53        70.28862
535.97         70.3103
536.41        70.36877
536.85        70.45929
537.28        70.55655
537.72        70.62556
538.16        70.60828
538.60        70.49638
539.04        70.32185
539.47        70.10069
539.91        69.91296
540.35        69.76542
540.79        69.65665
541.22        69.59909
541.66        69.62228
542.10        69.71768
542.54         69.8775
542.97        70.05553
543.41        70.19889
543.85        70.28184
544.29        70.33041
544.72        70.32722
545.16        70.28962
545.60        70.22391
546.04        70.09436
546.47        69.96578
546.91        70.05185
547.35         70.3185
547.79        70.50408
548.22        70.52327
548.66        70.61974
549.10        70.78872
549.53        70.67328
549.97        70.21499
550.41        70.76353
550.84        70.21902
551.28        70.18919
551.72        70.03617
552.15        70.24906
552.59        70.11095
553.03        70.19476
553.46        70.27951
553.90        70.32989
554.34        70.31993
554.77        70.33443
555.21        70.36008
555.65        70.20945
556.08        69.95451
556.52         69.9304
556.96        70.11642
557.39        70.30785
557.83        70.46889
558.27        70.56053
558.70         70.6063
559.14        70.73388
559.57        70.87189
560.01        70.92887
560.45        70.89438
560.88        70.51611
561.32        70.24859
561.75        70.22992
562.19          70.491
562.63        70.32001
563.06        69.82201
563.50        69.85468
563.93        70.31319
564.37        70.48742
564.80         70.3167
565.24         70.1913
565.68        70.14002
566.11        70.09517
566.55         70.0925
566.98        70.07711
567.42        70.12358
567.85        70.22157
568.29        70.33532
568.72        70.54201
569.16          70.945
569.60        70.32394
570.03        70.75883
570.47        70.82437
570.90        70.88946
571.34        70.56722
571.77        70.82497
572.21        70.97297
572.64        71.14222
573.08        71.01797
573.51        70.61234
573.95        70.87069
574.38        71.26235
574.82        70.88734
575.25        71.04917
575.69         70.8573
576.12        70.22505
576.56        69.74591
576.99        70.20058
577.42        70.48638
577.86        70.30891
578.29        70.35426
578.73         71.1159
579.16        70.65947
579.60        70.44353
580.03        70.38634
580.47        70.78503
580.90        71.06013
581.33        70.40688
581.77        70.41383
582.20        70.65678
582.64        71.21441
583.07        70.34594
583.51        70.02579
583.94        70.05522
584.37        69.81821
584.81        69.57732
585.24        70.11372
585.68        70.65515
586.11         71.4828
586.54        70.73098
586.98        70.03569
587.41        70.79887
587.85        71.21848
588.28        70.71405
588.71        71.27651
589.15        70.30345
589.58        70.65205
590.01        69.79256
590.45        69.94815
590.88        70.53317
591.31        70.98618
591.75        70.97418
592.18        70.97075
592.61        71.12821
593.05        69.55687
593.48        70.50916
593.91        71.41754
594.35        70.24321
594.78        70.00119
595.21        69.73374
595.65         70.3396
596.08        69.88962
596.51        70.17948
596.94        70.61961
597.38        70.72664
597.81        70.39037
598.24        70.77071
598.68        70.19634
599.11        70.14351
599.54        71.20865
599.97        71.34794
600.41        69.73232
600.84        69.96724
601.27         69.9559
601.70        70.45306
602.14        70.66389
602.57        70.43082
603.00        69.90424
603.43        69.81088
603.87        69.88805
604.30        70.67571
604.73        70.30466
605.16        69.84956
605.60        70.00217
606.03        70.14299
606.46        70.46089
606.89        70.45695
607.32        70.17278
607.76        70.08385
608.19        70.25952
608.62        70.28043
609.05        70.17625
609.48        70.32103
609.92        70.64326
610.35        70.27636
610.78        70.72356
611.21         69.9074
611.64        69.88145
612.07        70.34087
612.50         70.1192
612.94        70.35786
613.37        70.62161
613.80          70.301
614.23        70.68314
614.66        70.67253
615.09        70.67431
615.52         70.6552
615.96         70.5551
616.39        70.57833
616.82        69.94741
617.25        69.95205
617.68        69.63028
618.11        69.87885
618.54        70.29785
618.97        70.25443
619.40        69.84965
619.84        69.74483
620.27        70.01912
620.70        70.42352
621.13         70.8157
621.56        70.27877
621.99        70.34966
622.42        69.51057
622.85        70.41001
623.28        70.05612
623.71        71.08392
624.14        69.47608
624.57        70.27858
625.00        70.06252
625.43          70.164
625.86        69.94136
626.29        69.94973
626.72        70.16957
627.15        69.99914
627.58        70.15474
628.01        70.34438
628.44        70.13453
628.87        69.64754
629.30           69.67
629.73        70.15744
630.16        70.32291
630.59        70.11904
631.02        70.15226
631.45        70.13174
631.88        70.14784
632.31        70.10818
632.74        70.06376
633.17        70.00959
633.60        69.94807
634.03         69.8847
634.46        69.80867
634.89        69.73495
635.32        69.69455
635.75        69.69336
636.18        69.72467
636.61        69.77079
637.04        69.80408
637.47        69.83293
637.89        69.82948
638.32        69.75366
638.75        69.74982
639.18         69.8555
639.61        69.34893
640.04        69.52823
640.47        69.45946
640.90         69.5294
641.33        69.69987
641.76        69.89769
642.18        69.97823
642.61        69.87386
643.04         69.6412
643.47         69.4036
643.90        69.33728
644.33        69.47191
644.76         69.8392
645.18        70.26829
645.61        70.28519
646.04        69.78062
646.47        69.64689
646.90        69.83966
647.33        69.82946
647.75        69.60753
648.18        69.49553
648.61        69.52906
649.04        69.62003
649.47        69.74855
649.89        69.93951
650.32        70.08279
650.75        70.04442
651.18        69.88078
651.61        69.70938
652.03         69.6761
652.46        69.98735
652.89        70.37814
653.32        70.48286
653.74        70.43109
654.17        69.42663
654.60        69.23045
655.03        70.87805
655.46        68.53231
655.88        70.41525
656.31        72.68475
656.74        73.07552
657.16        72.47887
657.59         70.4865
658.02        69.45499
658.45        70.63908
658.87        70.47784
659.30        70.32031
659.73        70.58364
660.15        70.97678
660.58        70.69369
661.01        70.60714
661.44        70.42713
661.86        70.01347
662.29        69.51048
662.72        69.61645
663.14        70.20577
663.57        70.13013
664.00        69.49086
664.42         69.3139
664.85        69.64556
665.27        69.86582
665.70        69.91754
666.13        70.03912
666.55         70.2207
666.98        70.37247
667.41        70.46606
667.83        70.45882
668.26        70.34081
668.69        70.14688
669.11        69.93619
669.54        69.80484
669.96        69.77873
670.39        69.82822
670.82         69.9171
671.24        69.99321
671.67        70.02209
672.09        70.02128
672.52        70.01531
672.94        70.10193
673.37        69.74751
673.80        70.17963
674.22        69.86058
674.65        70.01128
675.07        70.22767
675.50        70.50618
675.92        70.76785
676.35        70.87726
676.77        70.82307
677.20        70.62407
677.62        70.37276
678.05        70.21964
678.47        70.19907
678.90        70.27515
679.32        70.37103
679.75        70.37328
680.17        70.25256
680.60          70.066
681.02        69.87516
681.45        69.78105
681.87        69.81229
682.30        69.90775
682.72        70.05383
683.15        70.18716
683.57        70.30829
684.00        70.43932
684.42        70.54294
684.85        70.60362
685.27        70.62589
685.70        70.47249
686.12        70.26233
686.54         70.5869
686.97        71.28047
687.39         71.5077
687.82        71.21986
688.24        71.12486
688.66         71.2346
689.09        71.12214
689.51        70.81389
689.94        70.59117
690.36        70.48486
690.78        70.37495
691.21        70.28702
691.63        70.38792
692.06        70.61201
692.48         70.6856
692.90         70.6021
693.33        70.58252
693.75         70.6339
694.17        70.59969
694.60        70.51368
695.02        70.50848
695.44        70.58753
695.87        70.76996
696.29        71.00028
696.71        70.98375
697.14        70.77377
697.56        70.79388
697.98        71.02415
698.41        71.01859
698.83        70.81289
699.25        70.86483
699.68        71.11131
700.10        71.17289
700.52        71.00652
700.94        70.82368
701.37        70.65913
701.79        70.50997
702.21        70.39128
702.64        70.31426
703.06        70.29494
703.48        70.36974
703.90        70.53696
704.33         70.7923
704.75         71.0436
705.17        71.20996
705.59        71.24129
706.01        71.16427
706.44        71.04095
706.86        70.98365
707.28        71.01996
707.70        71.11284
708.12        71.23679
708.55        71.35455
708.97        71.44392
709.39        71.47865
709.81        71.48655
710.23        71.56948
710.66        71.72904
711.08        71.92242
711.50        72.10039
711.92        72.23955
712.34        72.32747
712.76        72.37526
713.19        72.36254
713.61        72.30618
714.03        72.19925
714.45        72.05112
714.87        71.92125
715.29        71.89604
715.71        71.98709
716.13        72.17113
716.56        72.35512
716.98         72.4667
717.40         72.4428
717.82        72.31401
718.24        72.14201
718.66        72.02902
719.08        72.00352
719.50        72.03397
719.92         72.0815
720.34        72.08334
720.76        72.02425
721.19        71.92442
721.61        71.82452
722.03        71.75852
722.45        71.73856
722.87        71.74657
723.29        71.77522
723.71        71.81293
724.13        71.84561
724.55         71.8899
724.97        71.93538
725.39        71.91285
725.81         71.8139
726.23        71.85321
726.65        71.71059
727.07        71.69351
727.49        71.70779
727.91        71.73679
728.33         71.7942
728.75        71.90693
729.17        72.07076
729.59        72.28359
730.01        72.45008
730.43        72.41533
730.85        72.16806
731.27        71.76511
731.69        71.38245
732.10        71.29855
732.52        71.57143
732.94        72.10905
733.36        72.72669
733.78        73.13971
734.20        73.25288
734.62         72.9634
735.04        72.74599
735.46        72.61337
735.88        72.71455
736.30        72.93956
736.72        73.17204
737.13        73.24911
737.55        73.08891
737.97        72.79782
738.39        72.49574
738.81        72.27953
739.23        72.22755
739.65        72.48522
740.06        72.87069
740.48         72.9932
740.90        72.78619
741.32        72.43582
741.74        72.08409
742.16        71.92859
742.57        72.04396
742.99        72.29729
743.41        72.60594
743.83        72.93649
744.25         73.1898
744.67         73.1608
745.08        72.92458
745.50        72.81293
745.92        72.88145
746.34         72.9442
746.75        72.98681
747.17        73.06635
747.59        73.17419
748.01        73.30144
748.42         73.4294
748.84        73.50425
749.26        73.52666
749.68        73.47272
750.09        73.36234
750.51        73.34766
750.93        73.39163
751.35        73.30115
751.76        73.11356
752.18        73.03956
752.60        73.09459
753.01        73.17848
753.43        73.24068
753.85         73.2778
754.27         73.2904
754.68         73.3077
755.10        73.34034
755.52        73.40621
755.93        73.48399
756.35        73.53394
756.77        73.62637
757.18        73.77528
757.60        73.96871
758.02        74.50343
758.43        75.09874
758.85        74.63824
759.26        73.42639
759.68        73.08844
760.10         73.6588
760.51        74.02988
760.93        74.10889
761.34         74.0486
761.76        74.36993
762.18        74.34498
762.59        74.13498
763.01        73.58045
763.42        72.90845
763.84        72.61237
764.26        72.78458
764.67        73.11222
765.09        73.49767
765.50         74.0088
765.92        74.50348
766.33        74.46553
766.75        74.10304
767.16        73.88193
767.58        73.90266
768.00        73.79051
768.41        73.58559
768.83        73.64604
769.24        73.88947
769.66        73.93481
770.07        73.78765
770.49        73.75114
770.90        73.85666
771.32        74.03307
771.73        74.23547
772.15        74.27969
772.56        74.16087
772.97        74.10898
773.39        73.89692
773.80        73.91397
774.22        74.06294
774.63        74.36366
775.05        74.65574
775.46        74.77418
775.88        74.64935
776.29        74.37877
776.70         74.0699
777.12        73.92028
777.53        73.98068
777.95        74.16347
778.36        74.42682
778.77        74.63552
779.19        74.73915
779.60        74.97299
780.02         75.2282
780.43        75.04774
780.84         74.6135
781.26        74.61118
781.67        75.04564
782.09        75.63222
782.50        76.19508
782.91        75.85271
783.33        75.58868
783.74         75.1881
784.15        74.97609
784.57        74.61249
784.98        74.23806
785.39        73.94396
785.81        74.30077
786.22        74.75916
786.63        75.33662
787.04         75.7956
787.46        76.06761
787.87        76.18531
788.28        76.20463
788.70        76.22665
789.11        76.27299
789.52        76.32394
789.93        76.35233
790.35        76.30711
790.76        76.18645
791.17        76.06081
791.58        76.00114
792.00        75.93473
792.41        75.85909
792.82        76.33735
793.23        76.45618
793.65        76.55148
794.06        76.46712
794.47        76.82206
794.88        77.42823
795.29        77.53807
795.71           77.09
796.12         76.4979
796.53        75.97248
796.94        75.74995
797.35        75.93722
797.76        76.46671
798.18        77.11561
798.59        77.56009
799.00         77.6757
799.41        77.56211
799.82        77.31237
800.23        77.09306
800.64        76.97297
801.06        76.86555
801.47        76.82844
801.88        76.88667
802.29         77.0265
802.70        77.23421
803.11        77.44672
803.52        77.54373
803.93        77.51226
804.34        77.40181
804.75        77.22605
805.17        77.11163
805.58        77.14351
805.99        76.97102
806.40        76.73319
806.81        77.38038
807.22        78.58385
807.63        78.62099
808.04        77.62189
808.45         77.3371
808.86        77.89111
809.27        78.26647
809.68        78.30901
810.09        78.27545
810.50        78.13871
810.91        77.83175
811.32         77.4974
811.73        77.36123
812.14        77.46916
812.55        77.77753
812.96        78.13351
813.37        78.23988
813.78        78.02886
814.19        77.62439
814.60        77.18362
815.01        76.91989
815.42        76.89063
815.83        77.02522
816.24        77.29002
816.65        77.61304
817.05        77.93268
817.46        78.21405
817.87         78.4306
818.28        78.49153
818.69        78.39169
819.10        78.15263
819.51        77.84256
819.92        77.60587
820.33        77.50112
820.74        77.49348
821.14        77.57593
821.55        77.73216
821.96         77.9351
822.37        78.20454
822.78        78.45608
823.19        78.53535
823.60        78.39941
824.00          78.067
824.41        77.67451
824.82        77.47958
825.23         77.5369
825.64        77.80229
826.04        78.11101
826.45        78.08112
826.86        77.67137
827.27         77.0107
827.68        76.37673
828.08        76.22669
828.49        76.61516
828.90        77.42982
829.31        78.43391
829.72         79.2137
830.12        79.64872
830.53        79.75864
830.94        79.69442
831.35        79.67763
831.75        79.80006
832.16        79.89709
832.57        79.93356
832.97        79.81946
833.38        79.55044
833.79        79.25534
834.20        78.94041
834.60         78.5681
835.01        78.19012
835.42        77.77151
835.82        77.53542
836.23         77.7812
836.64        78.56281
837.04        79.82163
837.45        81.03522
837.86        81.48506
838.26        80.99417
838.67        79.78489
839.08        78.38403
839.48        77.59647
839.89        77.66338
840.29        78.33476
840.70        79.25678
841.11        79.86716
841.51        80.01296
841.92        79.83168
842.33        79.52801
842.73        79.42173
843.14        79.55685
843.54        79.84144
843.95        80.14315
844.35        80.33936
844.76         80.3551
845.17        80.23011
845.57        80.04011
845.98        79.85463
846.38        79.72713
846.79        79.64696
847.19        79.52361
847.60        79.15673
848.00        78.56673
848.41        77.84876
848.81         77.2873
849.22        77.29905
849.62        77.98499
850.03        79.15916
850.43         80.5523
850.84         81.4513
851.24        81.69022
851.65        81.34161
852.05        80.67879
852.46        80.12278
852.86        79.81393
853.27        79.70557
853.67        79.61411
854.07        79.49772
854.48        79.27356
854.88        79.01488
855.29        78.71709
855.69        78.59748
856.10        78.59756
856.50        78.76643
856.90        78.89542
857.31        78.72121
857.71        78.26003
858.12        77.57298
858.52        76.93313
858.92        76.73162
859.33        77.04493
859.73        77.78357
860.13        78.71443
860.54        79.46912
860.94        79.95567
861.34        80.16281
861.75         80.0785
862.15         79.7709
862.55        79.25962
862.96         78.5891
863.36        77.76229
863.76        76.80761
864.17        75.82095
864.57        74.87798
864.97        74.17963
865.38        73.95771
865.78        74.26985
866.18        75.01482
866.58        76.01163
866.99        76.84562
867.39         77.3765
867.79        77.64166
868.19        77.61727
868.60        77.29768
869.00        76.74535
869.40        75.95611
869.80        75.24876
870.21        75.16711
870.61        75.85712
871.01        77.12425
871.41        78.47839
871.81        79.12539
872.22        78.86241
872.62        77.90965
873.02        76.67422
873.42        75.85273
873.82        75.67209
874.22        75.96353
874.63        76.42317
875.03        76.58041
875.43         76.3238
875.83        75.79986
876.23        75.34361
876.63        75.48772
877.03        76.31763
877.44         77.5845
877.84        78.85743
878.24        79.34564
878.64         78.8924
879.04        77.80922
879.44        76.54838
879.84         75.7683
880.24        75.62913
880.64        75.89643
881.04        76.43137
881.44        76.99977
881.84        77.48645
882.24        78.00195
882.65         78.3432
883.05        78.29777
883.45        77.80341
883.85        76.95277
884.25        76.14197
884.65        75.99242
885.05        76.60113
885.45        77.74512
885.85        79.06433
886.25        79.92546
886.65        80.09604
887.05        79.76843
887.45        79.02305
887.85        78.02642
888.25        76.96809
888.65        75.88509
889.04        74.98495
889.44        74.62031
889.84        74.76933
890.24        75.36948
890.64        76.24808
891.04        76.98548
891.44        77.38274
891.84        77.52797
892.24        77.48988
892.64        77.40124
893.04         77.3214
893.44        77.19231
893.83        77.12795
894.23        77.25658
894.63         77.6254
895.03        78.20045
895.43        78.80043
895.83        79.13973
896.23        79.14663
896.63        78.86302
897.02        78.46072
897.42        78.28932
897.82        78.41402
898.22        78.78424
898.62        79.12921
899.01        79.01238
899.41        78.35313
899.81        77.31027
900.21        76.32945
900.61        76.08431
901.00        76.68697
901.40        77.92109
901.80        79.23676
902.20        79.72916
902.59        79.17806
902.99        77.87346
903.39        76.36916
903.79        75.49903
904.18        75.46902
904.58        76.05598
904.98        76.84872
905.38        77.22033
905.77        76.98297
906.17        76.32918
906.57        75.61072
906.96        75.39892
907.36         75.7868
907.76        76.62161
908.15        77.46575
908.55        77.47764
908.95        76.56702
909.34        75.02362
909.74        73.56284
910.14        73.13206
910.53        73.96358
910.93        75.69298
911.33        77.80978
911.72        79.51131
912.12        80.42357
912.52        80.75945
912.91         80.7324
913.31        80.70041
913.70        80.80223
914.10         80.8709
914.49        80.76145
914.89        80.26644
915.29        79.41048
915.68        78.36353
916.08        77.43198
916.47        76.92014
916.87        76.94859
917.26        77.35555
917.66        78.01265
918.05        78.73077
918.45        79.34372
918.84        79.94794
919.24        80.31883
919.64         80.2482
920.03        79.73895
920.42          78.839
920.82        77.91173
921.21          77.424
921.61        77.49136
922.00        78.00072
922.40        78.69866
922.79        79.22037
923.19        79.39729
923.58        79.36524
923.98        79.19619
924.37        79.01607
924.77        78.87364
925.16        78.71933
925.55        78.58509
925.95        78.54243
926.34        78.62103
926.74        78.80466
927.13        79.01757
927.52        79.08537
927.92        78.97733
928.31        78.71465
928.70        78.41225
929.10        78.24996
929.49        78.26683
929.89         78.3693
930.28        78.46671
930.67        78.31834
931.07        77.89156
931.46        77.33464
931.85        76.76048
932.24        76.32196
932.64        76.09896
933.03        76.06996
933.42        76.30175
933.82        76.88529
934.21        77.79581
934.60        78.87541
934.99        79.97706
935.39        80.84962
935.78        81.43653
936.17        81.76682
936.56        81.58042
936.96        80.54717
937.35        78.78477
937.74        76.55975
938.13        74.59888
938.53        73.80323
938.92        74.26385
939.31        75.79623
939.70        77.81721
940.09        79.14256
940.49         79.3284
940.88        78.67657
941.27        77.72009
941.66        77.29935
942.05        77.62794
942.44        78.48251
942.84        79.40376
943.23        79.68806
943.62         79.0971
944.01        77.90228
944.40        76.75181
944.79         76.5653
945.18        77.50246
945.57        79.28112
945.97        81.11457
946.36        81.89098
946.75        81.19176
947.14        79.41342
947.53        77.37072
947.92        76.28376
948.31        76.47535
948.70         77.6324
949.09        79.15538
949.48        79.95577
949.87        79.69053
950.26        78.70209
950.65        77.61313
951.04        77.28328
951.43        77.88788
951.82         79.1683
952.21        80.52644
952.60        80.90794
952.99        80.04205
953.38         78.3173
953.77        76.52895
954.16        75.69953
954.55        76.03674
954.94        77.34862
955.33        78.98888
955.72         79.5741
956.11        78.65946
956.50          76.717
956.89        74.79644
957.28        74.27423
957.66        75.43658
958.05        77.81333
958.44        80.51781
958.83        81.74823
959.22        80.94577
959.61        78.80225
960.00         76.3634
960.39        74.94212
960.78        74.78516
961.16        75.49715
961.55         76.6106
961.94        77.30428
962.33        77.23252
962.72         76.7795
963.11        76.10229
963.49        75.35643
963.88        74.64437
964.27        73.85126
964.66        73.25523
965.04        73.44516
965.43        74.42687
965.82        76.07594
966.21        77.85412
966.60        78.74357
966.98        78.48766
967.37        77.47398
967.76        76.15881
968.15         75.1614
968.53        74.63961
968.92        74.32885
969.31        74.36057
969.69        75.00832
970.08        76.18713
970.47        77.97334
970.86        79.63946
971.24        79.91018
971.63        78.54509
972.02        76.00365
972.40        73.44157
972.79        72.69518
973.17        74.07932
973.56        76.90424
973.95        80.24882
974.33        82.33408
974.72        82.46503
975.11        81.26356
975.49        79.40116
975.88        78.19537
976.26        78.00965
976.65         78.3388
977.04         79.0109
977.42        79.73936
977.81         80.1977
978.19        80.64614
978.58        80.90911
978.96        80.55652
979.35        79.62518
979.74        78.23698
980.12        76.91727
980.51        76.54771
980.89        77.42092
981.28        79.11302
981.66        81.32675
982.05         83.2298
982.43        84.59936
982.82        85.54699
983.20        85.85498
983.59        85.07634
983.97        83.31562
984.35        80.74941
984.74        78.34823
985.12        77.42896
985.51        78.16093
985.89        80.32504
986.28        82.84995
986.66        84.25672
987.04        83.94016
987.43        82.34838
987.81        80.27393
988.20        79.39838
988.58        80.11253
988.96        81.91685
989.35        83.70469
989.73         83.9501
990.12        82.23685
990.50         79.2578
990.88        75.90793
991.27        73.61532
991.65        72.79475
992.03        73.05884
992.42        74.12579
992.80        75.86477
993.18        77.99274
993.56        80.60628
993.95        83.12212
994.33        84.57169
994.71        84.54649
995.10        83.31854
995.48        81.58659
995.86         80.5501
996.24        80.53205
996.63        81.13155
997.01        82.20333
997.39        83.19173
997.77        83.81364
998.15        84.28136
998.54         84.4205
998.92        83.93964
999.30        82.83719
999.68        81.17648
1000.06        79.46632
1000.45        78.66671
1000.83        79.16232
1001.21        80.70872
1001.59         82.8289
1001.97        84.68556
1002.35        85.92754
1002.73        86.67283
1003.12        86.99729
1003.50          86.975
1003.88        86.73206
1004.26        86.30158
1004.64        85.65785
1005.02        84.82393
1005.40        83.92171
1005.78        83.00829
1006.16        82.49338
1006.54        82.92506
1006.92        84.34575
1007.30        86.66388
1007.69         89.1282
1008.07        90.28694
1008.45        89.49811
1008.83         87.1275
1009.21        84.14529
1009.59        82.28183
1009.97         82.0677
1010.35        82.95374
1010.73        84.46748
1011.11        85.79733
1011.49         86.5694
1011.86        87.13761
1012.24        87.12775
1012.62        86.10624
1013.00        84.05663
1013.38         80.9743
1013.76        77.58234
1014.14        75.57088
1014.52        75.58618
1014.90        77.26351
1015.28        79.65194
1015.66        81.12762
1016.04        81.23348
1016.41        80.54855
1016.79        79.29182
1017.17         78.1069
1017.55        77.46237
1017.93        77.14098
1018.31         77.4058
1018.69        78.73396
1019.06        81.36727
1019.44         85.4808
1019.82        90.96618
1020.20        95.39728
1020.58        96.48435
1020.95        94.39563
1021.33        90.90224
1021.71        87.80217
1022.09         85.2093
1022.46        82.41246
1022.84        79.28683
1023.22        75.82228
1023.60        73.00393
1023.97        71.59719
1024.35        71.62597
1024.73        72.79981
