SpectraSmart Spectrum 2.9.0.0
--------- Device Information -----------
Spectrum Name :  反射率_0
Saving Time :  2024/04/30 00:37:30
Spectro-Module Model Name : SE2030-DUVN
Spectro-Module Serial Number : OS361AC55029948
Wavelength Start : 200
Wavelength End : 1025
Wavelength Unit : Wavelength(nm)
Spectrum Unit : Reflectance(%)
-----------Spectrum Setting ------------
Integration Time : 20ms
Average : 10
Boxcar : 0
Background removal :  enabled
linearity correction :  enabled
SC :  disabled
Intensity correction :  disabled
DWT denoise :  enabled
savitzky-golay :  disabled
FFT :  disabled
Running average :  disabled
Kalman :  disabled
High pass :  disabled
---------------BEGIN--------------------
Wavelength(nm)             Reflectance(%)
200.29               0
200.75        115.2471
201.21        98.25282
201.67        81.16515
202.13        69.06487
202.58        64.61037
203.04        66.45048
203.50        74.96491
203.96        89.94488
204.42        108.7691
204.88        129.4695
205.34        142.7022
205.80        137.4925
206.26         118.818
206.72         96.3963
207.18        77.67287
207.64        66.39814
208.10        60.94008
208.55        58.68755
209.01        58.91449
209.47         61.1238
209.93        64.16034
210.39        67.80056
210.85        70.42218
211.31        70.59592
211.77        68.14722
212.23        62.34409
212.69        53.90623
213.14        49.46123
213.60        52.29312
214.06        59.48155
214.52        66.18539
214.98        69.14769
215.44        69.00101
215.90        67.08211
216.36        65.37575
216.81        67.63102
217.27        75.90058
217.73        90.71428
218.19        110.7584
218.65        125.4855
219.11        126.7034
219.57        117.5909
220.02        106.5404
220.48         100.016
220.94        97.15559
221.40        96.35916
221.86         94.9865
222.32        88.40572
222.77        78.19246
223.23         69.5741
223.69        64.66615
224.15        63.84969
224.61        66.16045
225.06          70.965
225.52        76.79127
225.98        79.50809
226.44         78.0978
226.90        74.69871
227.36        71.58594
227.81        70.34261
228.27        70.89224
228.73        72.43424
229.19        74.20988
229.65        74.67453
230.10        73.51276
230.56        71.92592
231.02        70.35435
231.48        69.09784
231.93        68.05564
232.39        67.07925
232.85        66.38441
233.31        66.55774
233.77        67.70221
234.22        69.85138
234.68         72.0844
235.14        72.75916
235.60        71.56316
236.05        69.01032
236.51        66.60249
236.97        66.32568
237.43        68.70628
237.88        73.85359
238.34        80.84859
238.80        86.60545
239.26         88.6032
239.71         87.3924
240.17        84.42725
240.63        82.30354
241.08        81.96581
241.54        82.69499
242.00        85.48436
242.46        91.64882
242.91        100.7936
243.37        110.6324
243.83        118.2173
244.28        122.7424
244.74          124.81
245.20        123.4156
245.66        119.7825
246.11        117.5842
246.57        118.4951
247.03        123.5322
247.48        128.0762
247.94        122.4134
248.40        109.2647
248.85         95.2772
249.31        87.08685
249.77        87.26633
250.22        95.73078
250.68        114.1393
251.14        142.4365
251.59        158.8995
252.05        147.6543
252.51        125.6685
252.96        108.3188
253.42        100.9796
253.88        100.2392
254.33        103.0517
254.79         107.132
255.25        107.7322
255.70        104.2793
256.16        100.2617
256.62         97.3514
257.07        96.39123
257.53        97.42301
257.99        99.33366
258.44        100.5746
258.90         100.064
259.35        97.53883
259.81        94.63036
260.27        92.14413
260.72           90.75
261.18         90.5538
261.63        90.63567
262.09        90.60106
262.55        89.46956
263.00        87.21335
263.46        84.66188
263.91         82.0759
264.37        80.21549
264.83        78.96745
265.28        78.02789
265.74        77.32961
266.19        76.47336
266.65        75.50062
267.11        74.45838
267.56        73.44209
268.02        72.61951
268.47        71.93524
268.93        71.32847
269.38        70.60303
269.84        69.57315
270.30        68.21138
270.75          66.612
271.21        64.99249
271.66        63.55247
272.12        62.33924
272.57        61.23017
273.03        60.15462
273.48         58.8943
273.94        57.51904
274.39        56.08562
274.85        54.74876
275.31        53.56489
275.76        52.52037
276.22        51.61986
276.67        50.82988
277.13        50.26914
277.58        49.83704
278.04        49.54927
278.49        49.18302
278.95        48.57429
279.40        47.64206
279.86        46.55496
280.31        45.41931
280.77        44.56654
281.22        44.00075
281.68        43.67236
282.13        43.44777
282.59        43.23355
283.04        42.94447
283.50        42.63744
283.95        42.26786
284.41        41.81147
284.86        41.26566
285.32        40.70845
285.77        40.15907
286.22        39.75127
286.68         39.5201
287.13        39.37467
287.59        39.34182
288.04        39.37867
288.50        39.47567
288.95         39.5858
289.41        39.64683
289.86        39.49812
290.32        39.16943
290.77        38.72416
291.22        38.29082
291.68        38.06655
292.13        38.10822
292.59        38.40492
293.04        38.96112
293.50        39.82848
293.95        40.97367
294.40        42.38618
294.86        43.92585
295.31        45.37812
295.77        46.68093
296.22        47.86392
296.68         49.0423
297.13        50.38184
297.58        51.93028
298.04        53.59916
298.49        55.30262
298.95        56.92793
299.40        58.43177
299.85        59.87586
300.31         61.3063
300.76        62.69963
301.21        64.10983
301.67        65.56224
302.12        67.07291
302.58        68.82056
303.03        70.77191
303.48        72.84028
303.94        74.94629
304.39        77.15263
304.84        79.01419
305.30         80.8988
305.75        82.67439
306.20        84.41622
306.66        86.15069
307.11        87.78418
307.57        89.34842
308.02        90.75641
308.47        92.05506
308.93        93.28094
309.38        94.44154
309.83        95.63164
310.29        96.86985
310.74        98.11298
311.19        99.28245
311.65        100.2416
312.10        100.9536
312.55        101.4892
313.00        102.0122
313.46        102.7795
313.91         103.819
314.36        105.0472
314.82        106.2839
315.27         107.269
315.72        107.9027
316.18        108.2694
316.63        108.4501
317.08        108.5903
317.53        108.7674
317.99        108.9776
318.44        109.2123
318.89        109.4775
319.35        109.7724
319.80        110.0984
320.25        110.5218
320.70        111.1385
321.16        111.9067
321.61        112.8257
322.06        113.6569
322.51        114.0366
322.97        113.8884
323.42         113.342
323.87         112.671
324.32        112.3382
324.78        112.4481
325.23        112.9452
325.68        113.6233
326.13        114.1239
326.59        114.3146
327.04        114.3466
327.49        114.3542
327.94        114.6077
328.39        115.1639
328.85        115.8566
329.30        116.6089
329.75        117.0809
330.20         117.184
330.66        117.0278
331.11        116.7807
331.56        116.6276
332.01        116.6713
332.46        116.8681
332.92        117.2116
333.37        117.8585
333.82        118.7388
334.27        119.8127
334.72         120.933
335.17        121.8502
335.63        122.4455
336.08        122.8252
336.53        122.9935
336.98        123.0581
337.43         123.082
337.88        123.0456
338.34        123.0308
338.79        123.1865
339.24        123.5379
339.69        124.0888
340.14         124.717
340.59        125.1864
341.05        125.4595
341.50        125.6211
341.95         125.806
342.40         126.258
342.85        127.0137
343.30        127.9286
343.75        128.9115
344.20        129.8249
344.66        130.6073
345.11        131.3177
345.56        131.8053
346.01        131.8246
346.46        131.4044
346.91        130.6487
347.36        129.9849
347.81        130.0627
348.26        130.9729
348.72        132.4786
349.17         134.147
349.62        135.1461
350.07        135.2441
350.52        134.7331
350.97        133.9267
351.42        133.3085
351.87        133.0532
352.32        132.9924
352.77        133.1717
353.22        133.6799
353.67        134.4503
354.13        135.4303
354.58         136.313
355.03        136.5786
355.48        136.1101
355.93        135.0507
356.38        133.6778
356.83        132.4398
357.28        131.4793
357.73        130.6937
358.18        129.9997
358.63        129.2545
359.08        128.4173
359.53        127.5644
359.98        126.7298
360.43        125.9432
360.88        125.2152
361.33        124.5191
361.78        123.8315
362.23        123.1297
362.68        122.4033
363.13        121.6563
363.58        120.9098
364.03        120.1916
364.48          119.51
364.93        118.8641
365.38        118.2215
365.83        117.5373
366.28        116.8057
366.73        116.0295
367.18        115.2754
367.63        114.6445
368.08        114.1399
368.53        113.7284
368.98        113.2863
369.43         112.608
369.88        111.6752
370.33        110.5854
370.78        109.4955
371.23        108.6685
371.68        108.1678
372.13        107.8725
372.58        107.7221
373.03         107.617
373.48        107.4721
373.93        107.3062
374.38        106.9408
374.83        106.0956
375.28        104.7923
375.72         103.153
376.17        101.5914
376.62        100.5377
377.07        100.0736
377.52        100.0361
377.97        100.2567
378.42        100.4469
378.87        100.4714
379.32        100.3935
379.77        100.1503
380.22        99.64938
380.67        98.89534
381.11        97.90197
381.56         96.8202
382.01        95.94442
382.46        95.37522
382.91        95.07146
383.36        94.89812
383.81        94.62319
384.26         94.1824
384.71        93.63038
385.15        93.07204
385.60        92.73432
386.05        92.62289
386.50        92.65567
386.95        92.65212
387.40        92.35209
387.85        91.73149
388.29        90.85207
388.74        90.03976
389.19        89.50222
389.64        89.28473
390.09        89.28062
390.54        89.35686
390.98        89.34036
391.43        89.20646
391.88        88.83572
392.33        88.29388
392.78        88.06853
393.23        87.98563
393.67        87.25893
394.12        85.78558
394.57        85.47547
395.02        85.07105
395.47        85.25165
395.91        85.52713
396.36        85.69333
396.81        85.67858
397.26        85.61703
397.71        85.49118
398.15        85.15179
398.60        84.71536
399.05        84.17598
399.50        83.63412
399.95        83.33503
400.39        83.00543
400.84        83.18225
401.29        83.57675
401.74        83.62113
402.18        83.22456
402.63        82.57489
403.08        81.94302
403.53        81.71671
403.97         81.9542
404.42        82.35017
404.87         82.9194
405.32        83.07944
405.76        82.78276
406.21        82.36417
406.66        81.89698
407.11        81.09766
407.55        80.25986
408.00        80.21729
408.45        80.85592
408.90        81.23954
409.34        81.16518
409.79        80.82799
410.24        80.43623
410.68        80.40351
411.13        80.77427
411.58        81.25861
412.03        81.66774
412.47        81.82573
412.92        81.63164
413.37        81.18446
413.81        80.59769
414.26        80.13068
414.71         79.8164
415.15        79.60514
415.60        79.48377
416.05        79.48186
416.49        79.59492
416.94        79.82689
417.39        80.07574
417.83         80.1487
418.28        80.01752
418.73        79.72582
419.17        79.42862
419.62        79.40009
420.07        79.66521
420.51        80.10154
420.96        80.56554
421.41          80.727
421.85         80.4968
422.30        80.23856
422.74         79.9556
423.19        79.38937
423.64        78.70903
424.08        78.73981
424.53        79.42421
424.98        79.65543
425.42        79.74053
425.87        80.12175
426.31        80.63046
426.76        80.28793
427.21        79.14559
427.65        79.16022
428.10        80.05703
428.54        80.02174
428.99        79.14873
429.44         78.5052
429.88         78.3203
430.33        78.68225
430.77        79.32145
431.22        79.92565
431.66        80.33896
432.11        80.04105
432.56        79.18644
433.00        79.10276
433.45        80.03554
433.89        79.50375
434.34        79.86679
434.78         81.1103
435.23        79.30255
435.67        78.95853
436.12        78.92451
436.57          78.977
437.01        78.93064
437.46        79.94581
437.90        79.52596
438.35         79.9737
438.79        80.46561
439.24        80.62751
439.68        80.47258
440.13        80.42878
440.57        80.57423
441.02        80.66262
441.46           80.66
441.91        80.84451
442.35        81.02817
442.80        80.94042
443.24        80.72549
443.69        80.50963
444.13        80.36815
444.58        80.21311
445.02        80.00615
445.47        79.90557
445.91        79.93513
446.36        79.95416
446.80        79.90372
447.24        80.42834
447.69        80.39048
448.13        80.52039
448.58        80.50041
449.02        80.36444
449.47         80.2126
449.91        80.18809
450.36        80.34107
450.80        80.58617
451.25        80.85315
451.69        80.98994
452.13        80.97044
452.58        80.88639
453.02        80.78209
453.47        80.67498
453.91        80.56034
454.36        80.64417
454.80        80.62886
455.24        80.54651
455.69        81.20786
456.13        81.18999
456.58        80.87785
457.02        80.37048
457.46          80.298
457.91        80.24655
458.35        80.27824
458.79        80.22275
459.24        80.10236
459.68        80.09146
460.13        80.21325
460.57        80.07217
461.01        80.24556
461.46        80.08663
461.90        79.85213
462.34        80.13773
462.79        80.50231
463.23        80.36762
463.68         79.7033
464.12        79.31683
464.56         79.2793
465.01        79.06604
465.45        78.78331
465.89        78.83588
466.34        79.20677
466.78        79.38197
467.22        79.55472
467.67        79.51976
468.11        79.36167
468.55        78.98158
468.99        78.48626
469.44        78.07301
469.88        77.79749
470.32        77.63624
470.77        77.56784
471.21        77.57603
471.65        77.62181
472.10        77.72284
472.54        77.85553
472.98        77.98394
473.42         78.0782
473.87        78.25304
474.31        78.41805
474.75        78.17878
475.20        77.63348
475.64        77.58649
476.08        78.06753
476.52        77.87821
476.97        76.86015
477.41        77.78267
477.85        77.31576
478.29        76.46776
478.74        77.37828
479.18        77.47466
479.62        77.09479
480.06        77.11446
480.50        77.43168
480.95        77.25187
481.39        77.73251
481.83        77.40034
482.27        77.75456
482.72        77.58335
483.16           77.56
483.60        77.59164
484.04        77.81347
484.48        78.11101
484.93        78.22455
485.37        78.22253
485.81        77.51798
486.25        76.02213
486.69        77.86959
487.14        77.31085
487.58        76.82648
488.02        77.33289
488.46        77.77608
488.90         77.6498
489.34        77.19331
489.79        77.88482
490.23        76.67237
490.67         76.6858
491.11        76.87885
491.55        76.67825
491.99         76.1515
492.43        76.01361
492.88        76.31613
493.32        76.68462
493.76        77.01251
494.20        77.30225
494.64        77.50228
495.08        77.61664
495.52        77.63522
495.96        77.52297
496.41        77.36279
496.85         77.2689
497.29        77.15869
497.73        77.32993
498.17        76.89838
498.61        76.60605
499.05        76.31435
499.49        76.49574
499.93        76.95555
500.37         76.8786
500.82        76.37321
501.26        76.17505
501.70        76.27822
502.14        76.94231
502.58        76.73337
503.02        76.89776
503.46        77.01042
503.90        77.06824
504.34        77.06525
504.78        77.02547
505.22        76.96596
505.66        76.87253
506.10        76.77294
506.54        76.73925
506.98        76.78339
507.42        76.94392
507.86        76.72727
508.30        77.09746
508.74        76.51987
509.18        76.18694
509.62        75.81948
510.06        75.67892
510.50         75.8043
510.94        76.13545
511.38        76.53535
511.82         76.7352
512.26         76.6694
512.70        76.42049
513.14        76.11389
513.58        75.94299
514.02        75.95971
514.46        76.09786
514.90        76.28451
515.34        76.40623
515.78        76.42477
516.22        76.38001
516.66        76.30863
517.10        76.26019
517.54        76.25117
517.98          76.263
518.42        76.27299
518.86        76.25047
519.30        76.19022
519.74        76.10734
520.18        76.03578
520.62        76.01826
521.06        76.06769
521.50        76.18409
521.93        76.32536
522.37        76.38952
522.81        76.36611
523.25        76.27806
523.69        76.19163
524.13        76.20859
524.57        76.34418
525.01        76.56187
525.45        76.77413
525.89        76.83915
526.32        76.71576
526.76        76.47688
527.20        76.20633
527.64        76.03982
528.08        76.01086
528.52        76.07365
528.96        76.17612
529.40         76.2366
529.83        76.22216
530.27        76.17007
530.71        76.09019
531.15        76.00228
531.59        75.91904
532.03        75.83591
532.46        75.75053
532.90        75.69382
533.34        75.66334
533.78        75.65685
534.22        75.67657
534.66        75.72195
535.09        75.78115
535.53        75.86713
535.97        75.94599
536.41        75.98306
536.85        75.96749
537.28        75.89648
537.72        75.80359
538.16         75.7378
538.60        75.70781
539.04        75.70502
539.47        75.66981
539.91        75.57042
540.35        75.38728
540.79        75.16147
541.22        74.95098
541.66        74.85936
542.10        74.90527
542.54         75.0571
542.97        75.26492
543.41        75.47411
543.85        75.64655
544.29        75.80688
544.72        75.90895
545.16        75.92442
545.60        75.85049
546.04        75.66296
546.47        75.44804
546.91        75.46745
547.35        75.69861
547.79        75.85096
548.22        75.84725
548.66        75.97193
549.10        76.21992
549.53        76.19864
549.97        75.80536
550.41        76.45497
550.84        75.85973
551.28        75.73272
551.72        75.43211
552.15        75.67753
552.59        75.45298
553.03        75.69884
553.46        75.39198
553.90        75.41794
554.34        75.52334
554.77        75.77367
555.21        75.87233
555.65        75.85819
556.08        75.69025
556.52        75.67746
556.96        75.83615
557.39         75.9489
557.83        75.96968
558.27        76.33708
558.70        76.15465
559.14         76.2747
559.57         76.3744
560.01         76.3654
560.45        76.26279
560.88        75.99512
561.32        75.98337
561.75         75.9294
562.19        75.93368
562.63        75.82321
563.06        75.63353
563.50        75.64466
563.93        75.81406
564.37        75.91114
564.80        75.89417
565.24        75.94771
565.68        76.03073
566.11        75.88439
566.55        75.67302
566.98        75.64989
567.42        75.90191
567.85        76.09486
568.29        76.17911
568.72        76.41577
569.16        76.90704
569.60        76.24514
570.03        76.78791
570.47         76.8035
570.90        76.72932
571.34        76.59368
571.77         76.6622
572.21        76.70322
572.64         76.7666
573.08        76.69988
573.51        76.53207
573.95        76.70914
574.38        76.97092
574.82        76.80389
575.25         76.8261
575.69        76.70284
576.12        76.25667
576.56        75.91452
576.99        76.19378
577.42        76.34434
577.86        76.35928
578.29        76.49878
578.73        77.12701
579.16        76.24751
579.60        76.39089
580.03        76.48329
580.47         76.8845
580.90        76.80599
581.33         76.3474
581.77        76.30009
582.20        76.72469
582.64        76.88744
583.07        76.38893
583.51        76.05335
583.94        75.87037
584.37        75.76853
584.81        75.86996
585.24        76.40555
585.68        76.59834
586.11        77.28448
586.54        76.32018
586.98        75.61119
587.41        76.55587
587.85        76.82954
588.28        76.74984
588.71        77.26668
589.15        76.53008
589.58        76.56334
590.01        75.78312
590.45        75.81542
590.88        76.34476
591.31        76.75034
591.75        76.68557
592.18        76.81225
592.61        77.04804
593.05        75.44064
593.48        76.42194
593.91        77.38999
594.35        75.88734
594.78        75.69528
595.21        75.64056
595.65        76.36028
596.08        75.92038
596.51        75.84437
596.94        76.60497
597.38        76.75169
597.81         76.5289
598.24        76.54228
598.68        76.17327
599.11        76.24511
599.54        76.74323
599.97        77.14044
600.41        75.70978
600.84         75.8177
601.27        75.92294
601.70        76.43993
602.14        76.79083
602.57        76.41237
603.00        75.64593
603.43        75.55093
603.87        75.92116
604.30        76.51936
604.73        76.16718
605.16        76.08409
605.60        76.19073
606.03        76.39306
606.46        76.60423
606.89        76.70386
607.32         76.4713
607.76        76.40758
608.19        76.51203
608.62        76.48497
609.05        76.36888
609.48        76.48291
609.92        76.66064
610.35        76.43559
610.78        76.97407
611.21        76.15845
611.64        76.12689
612.07        76.34618
612.50        76.33072
612.94        76.54214
613.37        76.71356
613.80        76.67763
614.23        77.01476
614.66        77.05432
615.09         76.9766
615.52        76.83589
615.96        76.64268
616.39        76.50096
616.82         76.0474
617.25        76.16351
617.68        75.94996
618.11        76.20583
618.54        76.52556
618.97        76.44012
619.40        76.09212
619.84        75.86434
620.27        76.02953
620.70        76.65727
621.13        77.09709
621.56        76.42635
621.99        76.69498
622.42        76.21917
622.85          76.728
623.28        76.49287
623.71        77.08551
624.14        75.76527
624.57        76.56483
625.00        76.43085
625.43        76.46884
625.86        76.40111
626.29         76.1839
626.72        76.78326
627.15        76.36443
627.58        76.52412
628.01        76.66093
628.44        76.45165
628.87        76.01521
629.30        76.01177
629.73        76.40739
630.16        76.70087
630.59        76.45951
631.02        76.58224
631.45        76.61938
631.88         76.6245
632.31        76.47518
632.74        76.49073
633.17        76.24911
633.60        76.13319
634.03        76.03126
634.46        75.93261
634.89        75.85683
635.32        75.85583
635.75        75.93275
636.18        76.05708
636.61        76.18491
637.04        76.25899
637.47        76.27982
637.89         76.2174
638.32        76.05752
638.75        76.01319
639.18        76.14008
639.61        75.63781
640.04        75.89601
640.47        75.85371
640.90        75.92278
641.33        76.07542
641.76        76.25602
642.18          76.346
642.61        76.27969
643.04        76.10282
643.47        75.92331
643.90        75.89293
644.33        76.03368
644.76        76.39403
645.18        76.80548
645.61        76.77939
646.04        76.20622
646.47        76.05212
646.90        76.25972
647.33        76.23687
647.75        75.96997
648.18        75.82473
648.61        75.83619
649.04        75.92451
649.47        75.94276
649.89        76.19272
650.32        76.49158
650.75        76.43777
651.18        76.13483
651.61        76.06142
652.03        76.29062
652.46        76.67703
652.89        76.95541
653.32        76.80904
653.74        76.42208
654.17        75.64871
654.60        75.51886
655.03         76.9837
655.46         75.0636
655.88        77.00867
656.31        79.76835
656.74        80.05492
657.16        79.33987
657.59        76.61111
658.02        75.75348
658.45        77.08422
658.87        77.39544
659.30        76.37249
659.73        77.09348
660.15        77.19328
660.58        77.12618
661.01        76.97778
661.44        76.64561
661.86        76.24661
662.29        75.88458
662.72        76.07626
663.14        76.66895
663.57         76.5822
664.00         75.9404
664.42        75.78457
664.85        76.16672
665.27        76.45083
665.70        76.53873
666.13        76.61636
666.55        76.67154
666.98        76.63763
667.41        76.55305
667.83        76.48319
668.26        76.43869
668.69        76.41622
669.11        76.42157
669.54        76.44834
669.96        76.48981
670.39        76.59664
670.82        76.72939
671.24         76.7117
671.67        76.57562
672.09        76.60344
672.52        76.79206
672.94         76.9691
673.37        76.53168
673.80        76.99699
674.22        76.65613
674.65        76.73207
675.07        76.78283
675.50        76.84769
675.92        76.91296
676.35        76.94517
676.77         76.9573
677.20        76.93157
677.62        76.90322
678.05        76.93244
678.47        77.01963
678.90        77.14658
679.32        77.25201
679.75        77.25267
680.17        77.12879
680.60        76.92583
681.02        76.70136
681.45        76.55277
681.87        76.51314
682.30        76.53898
682.72        76.63126
683.15        76.72484
683.57        76.83534
684.00        77.01374
684.42        77.21057
684.85        77.36213
685.27        77.45855
685.70        77.37389
686.12        77.22541
686.54        77.60532
686.97        78.34298
687.39        78.60326
687.82        78.31271
688.24        78.15395
688.66        78.13869
689.09        77.85291
689.51        77.38743
689.94        77.10471
690.36        77.04823
690.78        77.12263
691.21        77.27731
691.63        77.43019
692.06        77.54167
692.48        77.65048
692.90        77.73728
693.33        77.74449
693.75         77.6711
694.17         77.5425
694.60        77.42528
695.02        77.29462
695.44        77.37604
695.87        77.55548
696.29        77.82074
696.71         77.8064
697.14        77.58249
697.56        77.61213
697.98        77.88423
698.41        78.01215
698.83        77.97133
699.25        77.99769
699.68         78.0496
700.10        78.00938
700.52        77.85521
700.94        77.64979
701.37        77.42088
701.79        77.22837
702.21        77.08893
702.64        76.99972
703.06        76.98477
703.48        77.09256
703.90        77.32098
704.33        77.66352
704.75        78.00517
705.17        78.23177
705.59        78.27982
706.01        78.18472
706.44        78.04904
706.86        77.98259
707.28        77.99168
707.70        78.15746
708.12        78.49406
708.55        78.21075
708.97        78.58704
709.39        78.70271
709.81        78.89639
710.23        78.99319
710.66        78.97582
711.08        78.91414
711.50        78.83518
711.92        78.82932
712.34        78.91518
712.76        79.07551
713.19        79.22529
713.61        79.27089
714.03        79.16962
714.45        78.96829
714.87        78.76397
715.29        78.70065
715.71        78.80654
716.13        79.03185
716.56        79.27486
716.98        79.46138
717.40        79.51653
717.82        79.47649
718.24        79.37988
718.66        79.29026
719.08        79.23133
719.50        79.17923
719.92        79.13481
720.34        79.10205
720.76        79.07934
721.19         79.0672
721.61        79.06306
722.03        79.02538
722.45          78.949
722.87         78.8423
723.29         78.7395
723.71        78.69684
724.13        78.72401
724.55        78.80949
724.97        78.93003
725.39        78.97736
725.81        78.92775
726.23        78.93753
726.65        79.06581
727.07         78.7646
727.49        79.06988
727.91        79.12071
728.33        79.22868
728.75        79.37968
729.17        79.56595
729.59        79.77856
730.01        79.91461
730.43        79.83869
730.85        79.54259
731.27        79.08565
731.69        78.64285
732.10        78.48792
732.52        78.68224
732.94        79.15019
733.36        79.73119
733.78        80.16592
734.20        80.36256
734.62         80.2896
735.04        80.08313
735.46        80.20191
735.88        80.59938
736.30         80.6378
736.72        80.31062
737.13        80.25932
737.55        80.38772
737.97        80.09227
738.39        79.51098
738.81        79.22064
739.23        79.32816
739.65        79.79689
740.06        80.37837
740.48        80.63174
740.90        80.46935
741.32        80.11311
741.74        79.72281
742.16        79.51488
742.57         79.5805
742.99        79.77009
743.41        80.01646
743.83        80.33908
744.25        80.62575
744.67        80.59279
745.08        80.30946
745.50        80.16761
745.92        80.21701
746.34        80.21964
746.75        80.19012
747.17         80.2251
747.59         80.3193
748.01        80.55676
748.42        80.83353
748.84        80.79238
749.26        80.52916
749.68        80.47115
750.09        80.61697
750.51        80.85679
750.93        81.03493
751.35        80.76855
751.76        80.20011
752.18        79.99416
752.60        80.20843
753.01        80.46383
753.43         80.6436
753.85        80.77058
754.27        80.82097
754.68        80.82357
755.10        80.80063
755.52        80.79214
755.93        80.79028
756.35        80.74799
756.77        80.77716
757.18        80.95263
757.60        81.26662
758.02        82.00984
758.43        82.81952
758.85        82.41235
759.26        81.06535
759.68        80.53494
760.10        80.94144
760.51        81.13867
760.93        81.05157
761.34        81.30663
761.76        81.73773
762.18        81.73152
762.59        81.32068
763.01        80.86094
763.42        80.53618
763.84        80.36207
764.26        80.41695
764.67        80.63693
765.09        80.98182
765.50        81.50314
765.92        82.04593
766.33        82.12511
766.75        81.72972
767.16        81.60028
767.58        81.75826
768.00         81.7792
768.41        81.64835
768.83        81.65302
769.24        81.71661
769.66        81.53385
770.07        81.17521
770.49        80.98145
770.90        81.01733
771.32        81.28332
771.73        81.68202
772.15         81.8282
772.56        81.68073
772.97        81.69598
773.39        81.40374
773.80        81.49014
774.22        81.78018
774.63        82.26389
775.05        82.72934
775.46        82.95045
775.88        82.83507
776.29        82.50923
776.70        82.08289
777.12        81.75985
777.53        81.61472
777.95        81.56277
778.36        81.63078
778.77        81.80405
779.19        82.05204
779.60        82.54012
780.02        83.06698
780.43         83.1294
780.84        82.81699
781.26        82.61923
781.67         82.6689
782.09        83.13688
782.50        83.77915
782.91        83.62766
783.33        82.78014
783.74         82.3913
784.15        82.53342
784.57        82.52912
784.98        82.35987
785.39        82.33649
785.81        82.46832
786.22        82.65591
786.63         82.9147
787.04        83.27249
787.46        83.70913
787.87        84.17951
788.28        84.60565
788.70        84.84977
789.11        84.87202
789.52        84.75697
789.93        84.55959
790.35        84.30099
790.76        84.07117
791.17        84.00661
791.58        84.09892
792.00        84.15855
792.41        84.18274
792.82        84.29689
793.23        84.48473
793.65        84.56167
794.06        84.57688
794.47        84.78518
794.88        85.07841
795.29        85.08892
795.71        84.76132
796.12        84.31851
796.53        83.92303
796.94         83.8127
797.35         84.0677
797.76        84.62385
798.18         85.2654
798.59        85.68963
799.00        85.78261
799.41        85.63178
799.82        85.37263
800.23        85.24145
800.64        85.31413
801.06         85.4868
801.47        85.72522
801.88        85.89221
802.29        85.93169
802.70        85.85912
803.11        85.73537
803.52         85.6546
803.93        85.66841
804.34        85.78213
804.75        85.86008
805.17        85.80956
805.58         85.6726
805.99         85.0675
806.40        84.33678
806.81        85.00145
807.22        86.67804
807.63        86.96658
808.04        85.91875
808.45        85.69291
808.86        86.39316
809.27         86.7053
809.68        86.52731
810.09        86.38486
810.50        86.29452
810.91        86.10833
811.32        85.91896
811.73        85.87613
812.14        86.00377
812.55        86.29561
812.96        86.63022
813.37        86.75409
813.78        86.61087
814.19        86.29585
814.60        85.94733
815.01        85.76081
815.42        85.78172
815.83        85.94063
816.24        86.18172
816.65        86.39542
817.05        86.52088
817.46        86.54745
817.87        86.49191
818.28        86.30849
818.69        86.01355
819.10        85.63554
819.51        85.25768
819.92        85.04546
820.33        85.05227
820.74        85.21362
821.14        85.50981
821.55        85.91194
821.96        86.37392
822.37        86.91388
822.78        87.36105
823.19        87.41418
823.60        87.01296
824.00        86.23361
824.41        85.37843
824.82        84.96433
825.23        85.10394
825.64        85.67876
826.04        86.40599
826.45        86.66566
826.86        86.33417
827.27        85.61303
827.68        84.81367
828.08        84.45006
828.49        84.61462
828.90         85.1761
829.31         85.9703
829.72        86.71722
830.12        87.32583
830.53        87.77931
830.94        88.12907
831.35        88.40752
831.75        88.64491
832.16        88.70835
832.57         88.6135
832.97        88.36732
833.38        88.00956
833.79        87.64684
834.20        87.29223
834.60        86.91766
835.01        86.57783
835.42        86.24299
835.82        86.12731
836.23        86.49779
836.64        87.39505
837.04        88.75902
837.45        90.05147
837.86        90.54919
838.26        90.07304
838.67        88.84472
839.08        87.39125
839.48        86.51938
839.89        86.47847
840.29        87.02116
840.70        87.82304
841.11        88.36769
841.51        88.51437
841.92         88.3931
842.33        88.16553
842.73        88.07218
843.14        88.13862
843.54        88.30486
843.95        88.50148
844.35        88.71378
844.76        88.88366
845.17        89.00268
845.57        89.08681
845.98        89.10959
846.38        89.08893
846.79        89.03234
847.19        88.84838
847.60        88.33125
848.00        87.52064
848.41        86.52121
848.81        85.66919
849.22        85.45431
849.62        86.00308
850.03        87.12659
850.43         88.5279
850.84        89.41154
851.24         89.5948
851.65        89.14563
852.05         88.4126
852.46        87.92905
852.86        87.83673
853.27        88.05447
853.67        88.23775
854.07         88.1678
854.48        87.73224
854.88        87.04202
855.29        86.27209
855.69        86.04433
856.10        86.40441
856.50        87.29455
856.90        88.17186
857.31        88.27261
857.71        87.50436
858.12        86.06081
858.52        84.53265
858.92        83.84713
859.33        84.24111
859.73        85.48641
860.13        87.05723
860.54        88.09531
860.94        88.38094
861.34        88.04742
861.75        87.35933
862.15        86.86376
862.55        86.69346
862.96        86.70538
863.36        86.62579
863.76        86.06775
864.17        85.02966
864.57        83.74526
864.97        82.57935
865.38        81.99096
865.78        82.11875
866.18        82.77899
866.58        83.79757
866.99        84.77443
867.39        85.55348
867.79        86.16775
868.19        86.46799
868.60        86.25224
869.00        85.54845
869.40        84.39261
869.80        83.24175
870.21        82.89278
870.61        83.57169
871.01        85.02112
871.41        86.62551
871.81        87.38478
872.22         87.0443
872.62        85.89162
873.02        84.44963
873.42        83.59921
873.82        83.60641
874.22        84.23031
874.63        85.04471
875.03        85.39532
875.43        85.13139
875.83        84.45919
876.23        83.81226
876.63        83.88762
877.03        84.81483
877.44        86.28191
877.84        87.78799
878.24        88.42232
878.64        87.99148
879.04        86.85731
879.44        85.49191
879.84        84.57893
880.24        84.29414
880.64        84.38475
881.04        84.75754
881.44        85.25845
881.84         85.7853
882.24        86.44086
882.65        86.93055
883.05        86.88291
883.45        86.20948
883.85          85.077
884.25        84.00738
884.65        83.81103
885.05        84.61813
885.45        86.11894
885.85        87.88924
886.25        89.18385
886.65         89.7034
887.05        89.67299
887.45        89.07149
887.85        87.91034
888.25        86.39797
888.65         84.6492
889.04        83.10571
889.44         82.4399
889.84         82.6684
890.24        83.66983
890.64        85.08204
891.04        86.08353
891.44        86.35001
891.84        86.10458
892.24        85.65293
892.64        85.45242
893.04        85.61045
893.44        85.94054
893.83        86.39544
894.23        86.81805
894.63        87.16553
895.03        87.51048
895.43        87.76205
895.83        87.76275
896.23        87.50069
896.63        86.98523
897.02        86.42197
897.42        86.21767
897.82        86.43825
898.22        87.01796
898.62        87.62814
899.01        87.71723
899.41        87.17156
899.81        86.19062
900.21        85.21848
900.61        84.94019
901.00        85.48243
901.40        86.59815
901.80         87.8384
902.20        88.46941
902.59        88.27495
902.99        87.48759
903.39        86.43243
903.79        85.59039
904.18        85.12084
904.58        84.93644
904.98        84.89314
905.38        84.79173
905.77        84.56121
906.17        84.27277
906.57        84.09193
906.96        84.29228
907.36        84.86308
907.76        85.72311
908.15        86.52741
908.55        86.58059
908.95        85.83038
909.34        84.50043
909.74        83.19463
910.14        82.70321
910.53        83.24233
910.93        84.51954
911.33        86.18169
911.72        87.67133
912.12        88.67087
912.52        89.32185
912.91        89.69588
913.31        89.89157
913.70        89.96664
914.10        89.82668
914.49        89.42412
914.89        88.70493
915.29        87.74813
915.68        86.69198
916.08        85.80291
916.47        85.32256
916.87        85.35779
917.26        85.76255
917.66        86.48266
918.05        87.44858
918.45         88.4974
918.84        89.68434
919.24         90.6002
919.64         90.7505
920.03        90.06366
920.42        88.65578
920.82        87.12402
921.21        86.27972
921.61        86.33143
922.00        87.11356
922.40        88.14922
922.79        88.70069
923.19        88.51619
923.58        87.83589
923.98        87.06905
924.37        86.85748
924.77        87.32425
925.16        88.23816
925.55        89.16974
925.95        89.44167
926.34        88.92632
926.74        87.86507
927.13        86.66239
927.52        85.91596
927.92        85.80772
928.31        86.12089
928.70         86.6618
929.10        87.10312
929.49        87.32175
929.89        87.38991
930.28        87.32212
930.67        87.03334
931.07        86.56236
931.46         85.9633
931.85        85.38036
932.24        85.04779
932.64        85.03883
933.03        85.33112
933.42        85.88004
933.82        86.55837
934.21        87.30213
934.60        88.01634
934.99        88.69531
935.39        89.32292
935.78        89.92583
936.17         90.4705
936.56        90.61523
936.96        89.88582
937.35        88.32325
937.74        86.21123
938.13        84.30765
938.53        83.55775
938.92        84.05645
939.31        85.61163
939.70        87.57333
940.09        88.65666
940.49        88.42984
940.88        87.26083
941.27        85.83393
941.66         85.1864
942.05        85.56119
942.44        86.68275
942.84        87.95815
943.23        88.44656
943.62        87.81562
944.01        86.40459
944.40         84.9669
944.79        84.58193
945.18        85.45492
945.57        87.25676
945.97        89.15422
946.36        89.97072
946.75        89.26461
947.14        87.46797
947.53        85.43272
947.92        84.43042
948.31        84.78882
948.70        86.15543
949.09        87.88847
949.48        88.83206
949.87         88.6026
950.26        87.55309
950.65        86.30714
951.04        85.71622
951.43        85.97461
951.82        86.85771
952.21        87.81586
952.60        87.89535
952.99        86.89043
953.38        85.17565
953.77        83.56657
954.16        83.12257
954.55        84.04118
954.94        86.11324
955.33        88.56841
955.72        89.71559
956.11        88.95049
956.50        86.80574
956.89        84.46941
957.28        83.50666
957.66        84.29118
958.05        86.34621
958.44        88.81027
958.83        89.94595
959.22        89.19968
959.61        87.18282
960.00         85.0041
960.39        84.07652
960.78        84.62891
961.16        86.28758
961.55        88.15866
961.94        88.62656
962.33         87.2281
962.72         84.7127
963.11        82.05138
963.49         80.5102
963.88        80.37874
964.27        81.20061
964.66          82.714
965.04        84.51416
965.43        86.20322
965.82        87.93537
966.21        89.30977
966.60        89.60002
966.98        88.75425
967.37        87.07938
967.76        85.24229
968.15        84.18476
968.53        84.08909
968.92        84.64304
969.31         85.7327
969.69        87.10278
970.08        88.43521
970.47        89.91205
970.86        90.94775
971.24        90.58847
971.63        88.71667
972.02        85.69094
972.40        82.66619
972.79        81.47176
973.17        82.40778
973.56        84.86448
973.95        87.83906
974.33        89.39488
974.72        88.84721
975.11        86.87021
975.49        84.41988
975.88        83.26522
976.26        83.85452
976.65         85.5568
977.04        87.79459
977.42        89.51842
977.81        90.13193
978.19        90.08518
978.58        89.58869
978.96        88.86997
979.35        88.14651
979.74        87.33699
980.12        86.73781
980.51        86.82458
980.89        87.75552
981.28        89.24332
981.66        91.11053
982.05        92.67542
982.43        93.80463
982.82        94.54991
983.20        94.70055
983.59        93.81322
983.97         91.9987
984.35        89.43822
984.74        87.11585
985.12        86.34013
985.51        87.25993
985.89        89.62845
986.28        92.30225
986.66        93.69403
987.04        93.17773
987.43         91.2421
987.81        88.75101
988.20        87.49807
988.58        87.93942
988.96        89.53416
989.35        91.22993
989.73        91.58022
990.12        90.15062
990.50        87.62578
990.88        84.70667
991.27        82.49487
991.65        81.37157
992.03        81.07852
992.42        81.59538
992.80        83.21156
993.18        85.74733
993.56        89.14961
993.95        92.69008
994.33         95.1141
994.71        95.80507
995.10         95.0834
995.48        93.52801
995.86        92.19078
996.24        91.42064
996.63        90.84462
997.01        90.62893
997.39        90.79546
997.77         91.2862
998.15        92.24065
998.54         93.1912
998.92        93.34985
999.30        92.56859
999.68        90.98527
1000.06        89.34836
1000.45         89.0649
1000.83        90.59186
1001.21         93.4475
1001.59         96.6496
1001.97        98.59942
1002.35        98.82342
1002.73        97.77045
1003.12        96.08407
1003.50         94.6941
1003.88        93.99895
1004.26         93.8037
1004.64        93.89587
1005.02        93.94254
1005.40         93.8399
1005.78        93.68116
1006.16        93.77708
1006.54        94.54992
1006.92         96.0308
1007.30        98.11914
1007.69        100.0632
1008.07         100.563
1008.45        99.08507
1008.83        96.05296
1009.21        92.60969
1009.59        90.70856
1009.97        90.90396
1010.35        92.55333
1010.73        95.01575
1011.11        97.18034
1011.49        98.52813
1011.86        99.46035
1012.24        99.51315
1012.62         98.1202
1013.00        95.27967
1013.38        91.00233
1013.76        86.29411
1014.14        83.47778
1014.52        83.46744
1014.90        85.79642
1015.28        89.17161
1015.66        91.38828
1016.04        91.77724
1016.41        91.01083
1016.79        89.36401
1017.17        87.69759
1017.55         86.6236
1017.93        85.92506
1018.31        85.78335
1018.69         86.5004
1019.06        88.26188
1019.44        91.18771
1019.82         95.3573
1020.20        99.25043
1020.58        101.1196
1020.95         100.662
1021.33        98.97975
1021.71         97.3709
1022.09        96.00092
1022.46        94.48546
1022.84        92.34852
1023.22         88.7247
1023.60        84.44607
1023.97        80.74269
1024.35         78.8651
1024.73        79.64364
