SpectraSmart Spectrum 2.9.0.0
--------- Device Information -----------
Spectrum Name :  反射率_0
Saving Time :  2024/04/30 00:26:54
Spectro-Module Model Name : SE2030-DUVN
Spectro-Module Serial Number : OS361AC55029948
Wavelength Start : 200
Wavelength End : 1025
Wavelength Unit : Wavelength(nm)
Spectrum Unit : Reflectance(%)
-----------Spectrum Setting ------------
Integration Time : 20ms
Average : 10
Boxcar : 0
Background removal :  enabled
linearity correction :  enabled
SC :  disabled
Intensity correction :  disabled
DWT denoise :  enabled
savitzky-golay :  disabled
FFT :  disabled
Running average :  disabled
Kalman :  disabled
High pass :  disabled
---------------BEGIN--------------------
Wavelength(nm)             Reflectance(%)
200.29               0
200.75        87.24254
201.21        74.82586
201.67        61.97729
202.13        51.97739
202.58        46.59455
203.04        44.75399
203.50        47.61737
203.96        57.27893
204.42        72.80875
204.88        92.47404
205.34        107.4598
205.80        106.4115
206.26        92.72416
206.72        74.99793
207.18        60.16164
207.64        52.14036
208.10        49.63264
208.55        50.24771
209.01        52.74245
209.47        55.17659
209.93        56.37534
210.39         57.2504
210.85        57.26955
211.31        55.63921
211.77        52.11982
212.23          45.804
212.69        37.79148
213.14        35.31299
213.60        41.06415
214.06        50.94266
214.52        59.63357
214.98        64.04573
215.44        65.03358
215.90        63.92205
216.36        62.39613
216.81        63.60991
217.27        69.20993
217.73        79.30275
218.19        92.74141
218.65        101.7837
219.11        101.0517
219.57        93.62669
220.02         85.1204
220.48        79.49947
220.94        75.81897
221.40        72.39444
221.86        68.16859
222.32        62.99875
222.77        58.38091
223.23        55.88821
223.69         54.3885
224.15         52.4573
224.61        49.76052
225.06         46.3448
225.52        43.17399
225.98        42.43284
226.44        44.38208
226.90        47.38138
227.36        50.17529
227.81        52.13961
228.27        53.46168
228.73        54.39751
229.19         54.8992
229.65        54.76817
230.10        54.07475
230.56        53.17846
231.02        52.19345
231.48        51.18118
231.93        50.04805
232.39        48.84499
232.85        47.73856
233.31        47.15583
233.77         47.2338
234.22        47.99545
234.68        48.96883
235.14        49.29973
235.60        48.83702
236.05        47.85716
236.51           47.13
236.97        47.69072
237.43         49.8471
237.88        53.72121
238.34        58.84113
238.80        63.51012
239.26        66.07227
239.71        66.72038
240.17        65.89484
240.63        64.85968
241.08        64.15891
241.54        63.10623
242.00        62.64657
242.46        66.23487
242.91        76.13273
243.37        89.81331
243.83        101.7428
244.28        108.5476
244.74        110.5697
245.20         107.435
245.66        100.5401
246.11        94.25099
246.57        91.13374
247.03        91.73569
247.48         93.0216
247.94        88.42442
248.40         79.7388
248.85        71.33206
249.31        67.31198
249.77        69.39768
250.22        77.95264
250.68        94.84134
251.14        120.4073
251.59        136.2984
252.05        127.9343
252.51        109.2688
252.96        93.95518
253.42         86.9048
253.88        85.18412
254.33        86.16607
254.79        87.91956
255.25        86.75357
255.70        82.72548
256.16        78.76382
256.62        76.16319
257.07        75.51903
257.53        76.72515
257.99        78.77792
258.44        80.29614
258.90        80.25895
259.35        78.36028
259.81        75.96396
260.27         73.7407
260.72        72.24397
261.18        71.57768
261.63        71.05486
262.09        70.43743
262.55        69.06123
263.00        66.94733
263.46        64.72067
263.91        62.53403
264.37        60.89432
264.83        59.69962
265.28        58.70792
265.74        57.95161
266.19        57.23958
266.65        56.60197
267.11        56.03153
267.56         55.4352
268.02        54.68879
268.47        53.72282
268.93        52.55658
269.38        51.26744
269.84        50.13417
270.30        49.22473
270.75        48.48379
271.21        47.77522
271.66        46.82705
272.12        45.60184
272.57         44.1637
273.03        42.71978
273.48        41.50731
273.94        40.65873
274.39        40.04197
274.85        39.56963
275.31        39.02115
275.76        38.32727
276.22        37.59545
276.67        36.86195
277.13        36.29029
277.58        35.84509
278.04        35.50573
278.49        35.15111
278.95        34.72582
279.40        34.17065
279.86        33.60253
280.31        33.01416
280.77        32.52435
281.22        32.11357
281.68        31.77835
282.13         31.5194
282.59        31.40344
283.04         31.3873
283.50        31.45351
283.95        31.46443
284.41         31.2327
284.86        30.73436
285.32        30.09829
285.77        29.44726
286.22        29.03659
286.68        28.92566
287.13        28.99096
287.59        29.18715
288.04        29.37675
288.50        29.52535
288.95        29.63644
289.41        29.69957
289.86        29.64803
290.32        29.51957
290.77        29.33945
291.22        29.18914
291.68        29.19345
292.13        29.38469
292.59        29.76812
293.04        30.35738
293.50        31.20412
293.95        32.29424
294.40        33.61816
294.86        35.06991
295.31        36.49155
295.77        37.83268
296.22        39.11251
296.68        40.41771
297.13        41.86522
297.58        43.48913
298.04        45.21708
298.49        46.97357
298.95        48.65766
299.40        50.23304
299.85        51.74519
300.31        53.25264
300.76        54.76053
301.21        56.32128
301.67        57.95608
302.12         59.6352
302.58        61.46443
303.03         63.4085
303.48        65.37818
303.94        67.37126
304.39         69.6597
304.84        71.67726
305.30        73.85065
305.75        75.89684
306.20        77.71348
306.66        79.29837
307.11        80.63863
307.57        81.88608
308.02        83.13804
308.47         84.4782
308.93         85.8837
309.38        87.28688
309.83         88.6583
310.29        89.97723
310.74        91.23961
311.19        92.40543
311.65         93.3968
312.10        94.19285
312.55         94.8358
313.00        95.45627
313.46        96.26601
313.91         97.2857
314.36        98.45304
314.82        99.62132
315.27          100.58
315.72        101.2426
316.18        101.6741
316.63        101.9327
317.08        102.1284
317.53        102.3242
317.99        102.5249
318.44        102.7263
318.89        102.9388
319.35        103.1695
319.80        103.4255
320.25        103.7797
320.70        104.3379
321.16        105.0685
321.61        105.9712
322.06        106.8269
322.51        107.2981
322.97         107.305
323.42        106.9575
323.87        106.4913
324.32        106.3115
324.78        106.5078
325.23        107.0351
325.68        107.6983
326.13        108.1648
326.59        108.3118
327.04        108.2713
327.49        108.1958
327.94        108.3829
328.39        108.8919
328.85        109.5666
329.30        110.2729
329.75         110.579
330.20        110.3917
330.66        109.8642
331.11        109.2694
331.56        108.9606
332.01        109.0752
332.46        109.5128
332.92        110.1826
333.37         111.075
333.82        112.0611
334.27        113.1473
334.72        114.1965
335.17        114.9848
335.63        115.4218
336.08        115.5922
336.53        115.5794
336.98        115.6266
337.43        115.8166
337.88        116.0955
338.34        116.4172
338.79        116.7183
339.24        116.9744
339.69        117.2468
340.14        117.5191
340.59        117.7445
341.05        117.9326
341.50        118.0902
341.95        118.2888
342.40        118.6712
342.85        119.2444
343.30        119.9283
343.75        120.6127
344.20         121.119
344.66        121.4141
345.11        121.5773
345.56        121.6119
346.01        121.5221
346.46        121.3575
346.91        121.1135
347.36        121.0044
347.81        121.3579
348.26        122.1875
348.72        123.3593
349.17        124.5424
349.62        125.0983
350.07        124.8834
350.52        124.1354
350.97        123.1941
351.42        122.5821
351.87        122.4554
352.32        122.6389
352.77        123.0734
353.22        123.6641
353.67        124.3027
354.13        124.9838
354.58        125.4982
355.03         125.498
355.48        124.9204
355.93        123.8616
356.38        122.5513
356.83        121.3622
357.28        120.4114
357.73        119.6229
358.18        118.9286
358.63        118.2011
359.08        117.4062
359.53        116.6133
359.98        115.8429
360.43        115.1086
360.88        114.4203
361.33        113.7569
361.78         113.127
362.23        112.5568
362.68        112.0392
363.13        111.5569
363.58        111.0745
364.03        110.5351
364.48        109.9225
364.93        109.2518
365.38        108.5411
365.83        107.8286
366.28        107.1341
366.73          106.45
367.18        105.7864
367.63        105.1558
368.08        104.5487
368.53        103.9576
368.98        103.3593
369.43        102.7079
369.88        102.0103
370.33        101.3134
370.78        100.6255
371.23        99.96585
371.68         99.3457
372.13        98.72392
372.58         98.1991
373.03        97.93082
373.48        97.89986
373.93        98.03645
374.38          98.049
374.83        97.46903
375.28        96.25085
375.72         94.5807
376.17        92.90375
376.62         91.7017
377.07        91.08649
377.52        90.88674
377.97        90.95754
378.42         91.0583
378.87        91.06693
379.32        91.03573
379.77        90.89835
380.22        90.54945
380.67        89.98037
381.11        89.20589
381.56        88.32282
382.01        87.53861
382.46        86.93656
382.91         86.4912
383.36        86.15804
383.81        85.84736
384.26        85.52074
384.71        85.19547
385.15        84.86758
385.60        84.58688
386.05        84.32862
386.50        84.07156
386.95        83.76625
387.40        83.35098
387.85        82.84311
388.29        82.24331
388.74        81.72968
389.19        81.32764
389.64        81.03706
390.09        80.80032
390.54        80.61514
390.98        80.46647
391.43        80.36819
391.88        80.30435
392.33        80.14214
392.78        79.76884
393.23        79.20523
393.67        78.34557
394.12        77.43283
394.57        77.32972
395.02        76.95528
395.47        77.11539
395.91        77.36081
396.36        77.47076
396.81        77.37794
397.26        77.16291
397.71        76.86993
398.15        76.50242
398.60        76.18152
399.05        75.84634
399.50        75.52245
399.95        75.37039
400.39        75.12072
400.84        75.20228
401.29        75.41199
401.74        75.48162
402.18        75.32816
402.63        74.74376
403.08        74.20653
403.53        73.91377
403.97        73.99714
404.42        74.17042
404.87        74.29833
405.32        74.37524
405.76        74.26345
406.21        73.74815
406.66         72.9647
407.11        72.41632
407.55        72.26887
408.00        72.23761
408.45        72.31405
408.90         72.9052
409.34        73.68204
409.79        73.47018
410.24        72.51221
410.68        72.21761
411.13        72.67022
411.58        73.07494
412.03         73.2532
412.47        73.28179
412.92        73.08401
413.37        72.69585
413.81        72.21605
414.26        71.86411
414.71        71.65723
415.15         71.5573
415.60        71.52477
416.05        71.53499
416.49        71.57278
416.94        71.65561
417.39        71.72266
417.83        71.65196
418.28        71.43648
418.73        71.10726
419.17        70.78938
419.62        70.70274
420.07        70.86299
420.51        71.16867
420.96        71.50472
421.41        71.59365
421.85        71.34924
422.30        71.10146
422.74        70.84443
423.19        70.27238
423.64        69.59333
424.08        69.73154
424.53        70.55486
424.98        70.94794
425.42        70.90312
425.87        70.99418
426.31        71.24488
426.76        71.06128
427.21        70.41935
427.65        70.46895
428.10        70.98933
428.54        70.75495
428.99        69.92286
429.44        69.53286
429.88        69.66429
430.33        69.84978
430.77        69.98167
431.22        70.48045
431.66        71.14841
432.11        71.01512
432.56        70.19975
433.00        69.89728
433.45        70.32363
433.89        70.37646
434.34        70.67719
434.78        71.47189
435.23        70.10805
435.67        69.46677
436.12        69.00506
436.57        69.06078
437.01         69.4924
437.46        70.08213
437.90        69.97178
438.35        70.30439
438.79        70.77431
439.24        71.04002
439.68        71.05555
440.13        70.90897
440.57        70.70506
441.02        70.64648
441.46        70.74072
441.91        70.92136
442.35        71.03954
442.80        71.15355
443.24        71.31827
443.69        71.07349
444.13        70.57363
444.58        70.31117
445.02        70.28486
445.47        70.29835
445.91        70.31825
446.36        70.38889
446.80        70.47013
447.24        70.60738
447.69        70.78882
448.13        70.75803
448.58        70.85732
449.02         70.8134
449.47        70.77673
449.91        70.78765
450.36        70.87212
450.80        70.98727
451.25        71.11425
451.69        71.19887
452.13        71.23389
452.58        71.26494
453.02        71.27771
453.47        71.26397
453.91        71.21551
454.36        71.22639
454.80        71.01102
455.24        71.18276
455.69         71.5422
456.13        71.51469
456.58        71.15696
457.02        70.94593
457.46        70.91599
457.91        70.79997
458.35        70.58108
458.79        70.42868
459.24        70.37362
459.68        70.37988
460.13        70.45656
460.57         70.3643
461.01        70.43472
461.46         70.3306
461.90        70.18843
462.34        70.26176
462.79        70.44458
463.23        70.34503
463.68        69.98363
464.12        69.72522
464.56        69.60699
465.01        69.44901
465.45        69.24107
465.89        69.14688
466.34        69.19716
466.78        69.39956
467.22        69.84892
467.67        69.70956
468.11        69.13407
468.55         68.7551
468.99        68.65791
469.44        68.46857
469.88        68.21272
470.32        68.16183
470.77        68.27171
471.21        68.35439
471.65        68.36591
472.10        68.37127
472.54        68.38531
472.98        68.45131
473.42        68.56049
473.87        68.74531
474.31        68.92289
474.75        68.82993
475.20        68.52367
475.64        68.50625
476.08        68.77831
476.52        68.62183
476.97        67.94499
477.41        68.38848
477.85        67.76588
478.29        67.56477
478.74         68.3699
479.18         68.5733
479.62        67.71423
480.06        67.56849
480.50        67.90839
480.95        68.17551
481.39        68.31583
481.83        68.25764
482.27         68.8089
482.72        68.48402
483.16        68.53288
483.60        68.44984
484.04        68.54052
484.48        68.73157
484.93         68.9124
485.37        68.65738
485.81        68.20856
486.25        67.68179
486.69          68.621
487.14        68.52643
487.58        67.41149
488.02        67.95185
488.46        68.83834
488.90        68.50935
489.34        67.86988
489.79        68.74538
490.23        68.13512
490.67        68.26754
491.11        68.12679
491.55        67.84897
491.99        67.51867
492.43         67.4361
492.88        67.65602
493.32        68.02737
493.76         68.4363
494.20        68.75988
494.64        68.92893
495.08        69.02209
495.52        69.06055
495.96        68.92519
496.41        68.67371
496.85        68.91836
497.29        68.71221
497.73        68.92615
498.17        68.50133
498.61        68.25045
499.05        67.98873
499.49        68.00107
499.93        68.19917
500.37        68.26875
500.82        68.23628
501.26        68.07272
501.70        68.33728
502.14        68.49379
502.58        68.46541
503.02        68.54655
503.46        68.67072
503.90        68.80312
504.34        68.91333
504.78        68.97657
505.22        68.97565
505.66        68.92913
506.10        68.86537
506.54        68.81691
506.98        68.78792
507.42        68.98782
507.86        68.64966
508.30        68.96413
508.74        68.46822
509.18         68.1543
509.62        67.87817
510.06        67.77171
510.50        67.90079
510.94        68.20747
511.38        68.56522
511.82        68.72474
512.26        68.62675
512.70        68.35017
513.14         68.0199
513.58         67.8284
514.02        67.82941
514.46        67.96314
514.90        68.15626
515.34        68.29312
515.78        68.33231
516.22        68.30557
516.66        68.25692
517.10        68.24934
517.54        68.29688
517.98        68.37686
518.42        68.43082
518.86        68.37282
519.30        68.19249
519.74        67.92393
520.18         67.6621
520.62        67.54696
521.06        67.60979
521.50        67.81731
521.93        68.07089
522.37        68.18289
522.81        68.11793
523.25        67.92456
523.69        67.71934
524.13        67.68374
524.57        67.85016
525.01        68.15213
525.45        68.46336
525.89        68.58122
526.32        68.44861
526.76        68.15932
527.20        67.82169
527.64        67.60556
528.08        67.55573
528.52        67.61491
528.96        67.72573
529.40        67.79907
529.83        67.79942
530.27        67.76796
530.71         67.7116
531.15         67.6436
531.59        67.57323
532.03        67.49129
532.46        67.40331
532.90        67.35045
533.34        67.33333
533.78        67.35078
534.22        67.38492
534.66        67.40458
535.09        67.39662
535.53        67.38102
535.97        67.36875
536.41         67.3941
536.85        67.45876
537.28        67.54215
537.72         67.6143
538.16        67.62363
538.60        67.56004
539.04        67.44704
539.47        67.29795
539.91        67.18759
540.35        67.11745
540.79         67.0853
541.22        67.08298
541.66        67.10866
542.10        67.15231
542.54        67.21732
542.97        67.29544
543.41        67.39245
543.85        67.49413
544.29        67.60725
544.72        67.68027
545.16        67.67387
545.60        67.58087
546.04        67.38752
546.47        67.17928
546.91        67.19874
547.35        67.42695
547.79        67.60026
548.22        67.63335
548.66        67.76024
549.10         67.9744
549.53        67.91992
549.97        67.52718
550.41        68.11918
550.84        67.64404
551.28        67.55883
551.72        67.29552
552.15        67.50889
552.59        67.33879
553.03        67.69574
553.46        67.65904
553.90        67.75282
554.34        67.77179
554.77        67.65593
555.21        67.48376
555.65        67.54716
556.08        67.78719
556.52        67.80032
556.96        67.62019
557.39        67.68739
557.83        67.99137
558.27        68.14977
558.70        68.14285
559.14        68.19364
559.57         68.2666
560.01        68.22951
560.45        68.12052
560.88        67.95632
561.32          68.052
561.75        67.96548
562.19        67.81898
562.63        67.63287
563.06        67.48203
563.50        67.61436
563.93        67.92641
564.37        68.07976
564.80        68.02319
565.24        67.97047
565.68        67.93797
566.11        67.92034
566.55        67.93253
566.98        67.85286
567.42        67.78783
567.85        67.81808
568.29        67.92416
568.72         68.1766
569.16        68.76725
569.60        68.15486
570.03        68.43224
570.47        68.73186
570.90        68.64754
571.34        68.19704
571.77        68.58003
572.21        68.64702
572.64        68.76192
573.08         68.7249
573.51        68.56303
573.95        68.62567
574.38        68.72375
574.82        68.50869
575.25        68.94027
575.69        68.78726
576.12        68.18414
576.56        68.36166
576.99        68.30106
577.42         68.1656
577.86        68.15044
578.29        68.34849
578.73        68.85774
579.16        68.66608
579.60        68.70934
580.03        68.29614
580.47        68.78386
580.90        68.60404
581.33        67.97269
581.77        68.03442
582.20        68.80866
582.64        68.73536
583.07        68.15346
583.51        67.65597
583.94        67.64975
584.37         67.5494
584.81        67.56155
585.24        67.77961
585.68        68.19005
586.11        68.91436
586.54        68.10811
586.98        67.59326
587.41        68.60069
587.85         68.7272
588.28        68.72574
588.71        68.68307
589.15        68.00704
589.58        68.48357
590.01        67.85396
590.45        67.94637
590.88        68.17979
591.31        68.44373
591.75        68.47932
592.18        68.64586
592.61        68.88026
593.05        67.54317
593.48        68.51454
593.91        69.01382
594.35        67.68198
594.78        67.54596
595.21        67.82024
595.65        68.07857
596.08        67.28285
596.51        67.68181
596.94        68.28006
597.38        68.54341
597.81        68.13284
598.24        68.26979
598.68        68.14144
599.11        67.78426
599.54        68.38689
599.97        69.12901
600.41         67.7478
600.84        67.94671
601.27        68.08562
601.70        68.47419
602.14        68.65222
602.57        68.41574
603.00        67.86876
603.43        67.78667
603.87        68.01979
604.30        68.15487
604.73        68.13866
605.16        68.15493
605.60        68.17883
606.03        68.39579
606.46        68.65343
606.89        68.62582
607.32        68.34143
607.76        68.24805
608.19        68.41411
608.62        68.45063
609.05         68.3811
609.48        68.78036
609.92        68.62095
610.35        69.00877
610.78        68.89391
611.21        68.18094
611.64        68.27388
612.07        68.34367
612.50        68.39112
612.94        68.50927
613.37        68.95916
613.80        68.31813
614.23        68.99841
614.66        69.01038
615.09        69.03242
615.52        69.07611
615.96        69.13216
616.39        69.04248
616.82        68.69879
617.25        68.82223
617.68        68.39176
618.11        68.43252
618.54        68.57795
618.97        68.54108
619.40        68.36954
619.84        68.31696
620.27        68.42536
620.70        68.71191
621.13        69.08085
621.56        68.52664
621.99        68.43702
622.42        67.86085
622.85        68.67577
623.28        68.33474
623.71         68.8265
624.14        68.06645
624.57        68.65102
625.00        68.64962
625.43        68.70477
625.86        68.38977
626.29        68.49259
626.72        68.45996
627.15        68.49618
627.58         68.6863
628.01        68.93225
628.44        68.81093
628.87        68.40259
629.30        68.34961
629.73        68.64451
630.16        68.71738
630.59        68.54259
631.02        68.61475
631.45         68.6199
631.88        68.63673
632.31        68.56359
632.74         68.4576
633.17        68.33144
633.60        68.21461
634.03        68.12191
634.46        68.03345
634.89        67.95702
635.32        67.91738
635.75         67.9139
636.18        67.93122
636.61         67.9584
637.04        67.99007
637.47         68.0347
637.89        68.04962
638.32        67.98907
638.75        67.98775
639.18        68.07969
639.61        67.56683
640.04        67.71109
640.47        67.59754
640.90        67.60598
641.33        67.70152
641.76         67.8346
642.18        67.90011
642.61        67.83791
643.04        67.69171
643.47        67.54877
643.90        67.52722
644.33        67.64346
644.76        67.94459
645.18        68.29078
645.61         68.2652
646.04        67.77472
646.47         67.6733
646.90        67.90413
647.33        67.92075
647.75        67.70224
648.18        67.59322
648.61        67.63113
649.04         67.6666
649.47        67.69547
649.89        67.90576
650.32         68.1716
650.75        68.06217
651.18        67.70379
651.61        67.68762
652.03        68.03829
652.46        68.41192
652.89        68.57568
653.32        68.41425
653.74         68.1506
654.17        67.61681
654.60         67.3455
655.03        68.92002
655.46         67.6039
655.88        68.41048
656.31        70.59685
656.74        71.55579
657.16        70.63482
657.59        68.64651
658.02        67.86881
658.45        69.00967
658.87        68.92378
659.30        68.55984
659.73         69.0354
660.15        69.27126
660.58        68.98475
661.01        68.64198
661.44        68.16819
661.86         67.9671
662.29        68.03169
662.72        68.16708
663.14        68.29685
663.57        68.20055
664.00          67.964
664.42        67.92279
664.85         68.1115
665.27        68.27031
665.70        68.35156
666.13        68.44717
666.55        68.55235
666.98         68.6225
667.41        68.65174
667.83          68.634
668.26        68.56047
668.69        68.44064
669.11        68.31702
669.54        68.23391
669.96        68.19984
670.39        68.28954
670.82        68.43875
671.24        68.33804
671.67        68.05955
672.09        68.10811
672.52        68.45226
672.94        68.69114
673.37         68.2747
673.80        68.68765
674.22        68.42771
674.65        68.56228
675.07        68.69694
675.50        68.86321
675.92        69.01828
676.35        69.08556
676.77        69.06656
677.20        68.96105
677.62         68.8221
678.05        68.73744
678.47        68.72534
678.90        68.76842
679.32        68.81796
679.75        68.80699
680.17        68.71459
680.60        68.57733
681.02        68.44163
681.45        68.36942
681.87         68.3789
682.30        68.47564
682.72        68.63786
683.15        68.66728
683.57        68.62321
684.00        68.79868
684.42        69.12424
684.85        69.28686
685.27        69.26552
685.70        69.10497
686.12        68.92656
686.54        69.19199
686.97        69.76688
687.39        69.98237
687.82        69.75629
688.24        69.61243
688.66        69.55595
689.09        69.25812
689.51        68.82582
689.94        68.61486
690.36        68.66835
690.78        68.86145
691.21        69.11468
691.63        69.35701
692.06        69.51426
692.48        69.51578
692.90        69.39515
693.33        69.30721
693.75        69.27872
694.17        69.21037
694.60        69.13674
695.02        69.13802
695.44        69.21136
695.87        69.44008
696.29        69.73281
696.71        69.65743
697.14        69.30759
697.56        69.26772
697.98         69.5397
698.41        69.65883
698.83        69.60575
699.25        69.67098
699.68        69.80283
700.10        69.82557
700.52        69.70607
700.94        69.51449
701.37        69.28776
701.79        69.10105
702.21        68.97601
702.64        68.90611
703.06        68.89362
703.48        68.95432
703.90        69.08215
704.33        69.27647
704.75        69.47743
705.17        69.65538
705.59        69.76994
706.01        69.83215
706.44        69.84417
706.86        69.83423
707.28        69.81673
707.70        69.75169
708.12          69.688
708.55        69.78292
708.97        69.99946
709.39        70.09047
709.81        70.06853
710.23        70.17875
710.66        70.41611
711.08        70.64507
711.50        70.80037
711.92        70.88512
712.34         70.8887
712.76        70.80867
713.19        70.67174
713.61        70.57481
714.03          70.528
714.45        70.52521
714.87        70.55205
715.29        70.57851
715.71        70.59336
716.13        70.60157
716.56        70.59921
716.98        70.66664
717.40        70.77844
717.82        70.91724
718.24        71.03153
718.66        71.04464
719.08        70.94495
719.50        70.75825
719.92        70.55331
720.34        70.44003
720.76        70.44591
721.19        70.53213
721.61        70.65356
722.03        70.70685
722.45        70.66257
722.87        70.54939
723.29        70.41061
723.71          70.314
724.13        70.27975
724.55         70.2934
724.97        70.33297
725.39        70.31866
725.81        70.24635
726.23        70.20935
726.65        70.25948
727.07        70.10979
727.49        70.33945
727.91        70.44662
728.33        70.59028
728.75        70.71474
729.17        70.80791
729.59        70.93826
730.01        71.02041
730.43        70.82695
730.85        70.46726
731.27          70.085
731.69        70.27927
732.10        70.36327
732.52         70.5052
732.94        70.88241
733.36        71.39233
733.78        71.73084
734.20         71.8238
734.62        71.71644
735.04        71.51949
735.46         71.5067
735.88         71.6983
736.30        71.80941
736.72        71.77917
737.13        71.86364
737.55        71.93996
737.97        71.53958
738.39        70.86125
738.81         70.6561
739.23        70.96812
739.65        71.35959
740.06        71.63029
740.48        71.75436
740.90        71.66528
741.32        71.35712
741.74        70.95113
742.16        70.71512
742.57        70.73309
742.99        70.83035
743.41        70.97229
743.83        71.27258
744.25        71.60993
744.67        71.59182
745.08        71.28486
745.50        71.16204
745.92        71.27281
746.34        71.33473
746.75        71.34225
747.17        71.39156
747.59        71.47816
748.01        71.62857
748.42        71.82011
748.84        71.77873
749.26        71.87862
749.68        71.74559
750.09        71.55882
750.51        71.66437
750.93        71.96705
751.35        71.95801
751.76        71.67078
752.18        71.55794
752.60        71.63394
753.01        71.73618
753.43        71.65789
753.85        71.64937
754.27        71.67551
754.68        71.74854
755.10        71.84694
755.52        71.94166
755.93         71.9986
756.35        71.98054
756.77        72.01364
757.18        72.19555
757.60        72.53751
758.02        73.30505
758.43        74.08785
758.85        73.65977
759.26        72.37255
759.68        71.45129
760.10        71.90842
760.51        72.35481
760.93        72.59254
761.34         72.5564
761.76        72.75207
762.18        72.70863
762.59        72.62757
763.01        72.24844
763.42        71.72336
763.84        71.49761
764.26         71.6601
764.67        71.83924
765.09        71.92191
765.50        72.68206
765.92        72.62066
766.33        72.63122
766.75        72.30249
767.16        72.14438
767.58        72.16994
768.00        72.17295
768.41        72.14899
768.83        72.21045
769.24        72.31202
769.66        72.28384
770.07        72.17103
770.49        72.23051
770.90        72.46024
771.32        72.71714
771.73        72.92152
772.15        72.91197
772.56        72.67366
772.97        72.50047
773.39         72.0266
773.80        72.00499
774.22         72.3054
774.63        72.88714
775.05        73.49921
775.46        73.83262
775.88        73.76791
776.29        73.43655
776.70        72.98774
777.12        72.69205
777.53        72.63969
777.95        72.72614
778.36        72.90733
778.77        73.09798
779.19        73.26025
779.60        73.47503
780.02        73.65577
780.43         73.7478
780.84        73.74702
781.26        73.49796
781.67        73.17966
782.09        73.49566
782.50        74.27127
782.91        74.40546
783.33        73.87848
783.74        73.61122
784.15        73.63231
784.57        73.39673
784.98        72.98948
785.39        72.82764
785.81        72.96031
786.22        73.26695
786.63        73.67311
787.04        74.05846
787.46        74.37251
787.87        74.62047
788.28        74.81852
788.70         74.9814
789.11        75.10221
789.52        75.19379
789.93        75.21683
790.35        75.08999
790.76        74.84554
791.17        74.56729
791.58        74.35597
792.00        74.29955
792.41        74.44312
792.82        74.76795
793.23        75.17658
793.65        75.45361
794.06        75.56322
794.47        75.62276
794.88        75.63058
795.29        75.52038
795.71        75.27645
796.12         74.9744
796.53         74.7168
796.94        74.68579
797.35          74.923
797.76        75.37924
798.18        75.87957
798.59        76.17828
799.00        76.18539
799.41        75.98048
799.82        75.66795
800.23        75.43343
800.64         75.3455
801.06        75.32128
801.47        75.39182
801.88        75.52609
802.29        75.69555
802.70        75.90239
803.11        76.08967
803.52        76.15182
803.93        76.07504
804.34        75.89484
804.75        75.65449
805.17        75.47702
805.58        75.43973
805.99        75.35918
806.40        75.29071
806.81        75.65283
807.22        76.28172
807.63        76.38967
808.04        76.01717
808.45        75.92893
808.86        76.17497
809.27        76.30448
809.68        76.25579
810.09        76.16661
810.50        76.04231
810.91        75.85059
811.32         75.6973
811.73        75.74769
812.14        76.02731
812.55        76.49649
812.96        77.00346
813.37        77.25897
813.78        77.18126
814.19        76.86321
814.60        76.45569
815.01        76.17597
815.42        76.08016
815.83        76.10296
816.24        76.19151
816.65        76.24702
817.05        76.23126
817.46         76.1517
817.87        76.05253
818.28        75.92855
818.69        75.79137
819.10        75.64362
819.51         75.5167
819.92        75.47723
820.33        75.54163
820.74        75.67757
821.14        75.87364
821.55        76.12067
821.96        76.39341
822.37        76.69799
822.78        76.94981
823.19        77.00151
823.60        76.82177
824.00        76.44807
824.41        76.02217
824.82        75.80346
825.23        75.84791
825.64         76.0995
826.04        76.42582
826.45        76.50057
826.86        76.27654
827.27        75.86131
827.68        75.42309
828.08        75.24656
828.49        75.36164
828.90        75.71274
829.31        76.21196
829.72        76.70656
830.12        77.15659
830.53        77.51727
830.94        77.82669
831.35          78.104
831.75        78.36569
832.16        78.50368
832.57         78.5131
832.97        78.36264
833.38        78.07172
833.79        77.73058
834.20        77.36514
834.60         76.9772
835.01        76.62418
835.42        76.28282
835.82        76.12174
836.23        76.34274
836.64        76.97913
837.04        77.98464
837.45        78.94882
837.86        79.34558
838.26        79.03609
838.67        78.18835
839.08        77.15121
839.48         76.4504
839.89        76.28452
840.29        76.50589
840.70        76.95759
841.11        77.39876
841.51        77.75414
841.92        78.04465
842.33        78.33105
842.73         78.6871
843.14        79.05534
843.54        79.41383
843.95        79.63596
844.35        79.61041
844.76         79.3035
845.17        78.75997
845.57        78.16081
845.98        77.75629
846.38        77.63902
846.79        77.75143
847.19        77.91949
847.60        77.78382
848.00        77.29594
848.41         76.5877
848.81        75.93417
849.22         75.7382
849.62        76.11872
850.03        76.90175
850.43        77.89139
850.84        78.52882
851.24        78.69996
851.65        78.44048
852.05        77.99775
852.46         77.7282
852.86        77.70952
853.27        77.88513
853.67        77.98694
854.07        77.85824
854.48        77.41744
854.88        76.76669
855.29        76.01469
855.69        75.62221
856.10        75.63773
856.50        76.04361
856.90        76.54328
857.31        76.72695
857.71        76.54625
858.12        76.08757
858.52        75.59097
858.92        75.39547
859.33        75.57477
859.73        76.05327
860.13        76.64624
860.54         77.0759
860.94        77.29733
861.34        77.30684
861.75        77.13174
862.15        76.88334
862.55        76.57549
862.96        76.22002
863.36        75.75591
863.76        75.10782
864.17        74.33298
864.57        73.52856
864.97        72.88058
865.38        72.61241
865.78        72.78931
866.18        73.29427
866.58        74.03665
866.99        74.78547
867.39        75.44807
867.79        76.02743
868.19        76.32458
868.60        76.06114
869.00        75.25089
869.40        73.96789
869.80         72.7215
870.21        72.38351
870.61        73.18865
871.01        74.84417
871.41         76.6732
871.81        77.58735
872.22         77.3068
872.62        76.14025
873.02        74.63996
873.42        73.73893
873.82        73.72176
874.22        74.32867
874.63         75.1298
875.03        75.47079
875.43        75.19555
875.83        74.51838
876.23        73.85928
876.63        73.88782
877.03        74.73184
877.44        76.09096
877.84        77.49146
878.24        78.07558
878.64        77.66198
879.04        76.59631
879.44        75.32385
879.84        74.48669
880.24        74.25278
880.64        74.38644
881.04        74.80437
881.44        75.36903
881.84        75.98259
882.24         76.7317
882.65        77.32867
883.05        77.40328
883.45        76.85338
883.85        75.82236
884.25        74.79207
884.65         74.5153
885.05        75.11633
885.45        76.31938
885.85        77.72696
886.25        78.64153
886.65        78.80671
887.05        78.45511
887.45        77.64117
887.85        76.48708
888.25        75.20309
888.65        73.85017
889.04        72.74446
889.44        72.38107
889.84        72.75397
890.24        73.76416
890.64        75.11499
891.04        76.11966
891.44        76.48447
891.84        76.38111
892.24        76.02061
892.64        75.73032
893.04        75.61292
893.44        75.55003
893.83        75.60126
894.23        75.80438
894.63         76.1734
895.03        76.71217
895.43         77.2644
895.83        77.57375
896.23        77.57864
896.63        77.30543
897.02         76.9131
897.42        76.73933
897.82        76.84295
898.22        77.17437
898.62        77.47762
899.01        77.33771
899.41        76.67933
899.81        75.66051
900.21        74.69498
900.61        74.40685
901.00        74.90329
901.40        75.98369
901.80        77.16196
902.20        77.63554
902.59         77.2077
902.99        76.14056
903.39        74.89864
903.79        74.18269
904.18        74.16444
904.58        74.64077
904.98        75.29905
905.38        75.67046
905.77        75.59621
906.17        75.22826
906.57        74.76754
906.96        74.54682
907.36        74.61958
907.76        74.90792
908.15        75.19373
908.55        75.00729
908.95        74.34515
909.34        73.37654
909.74        72.56876
910.14        72.48453
910.53        73.26276
910.93        74.65732
911.33        76.34022
911.72        77.80591
912.12        78.76807
912.52        79.34379
912.91         79.6295
913.31        79.78605
913.70        79.89215
914.10         79.8643
914.49        79.62533
914.89        79.06454
915.29        78.22932
915.68        77.22608
916.08         76.3609
916.47        75.94744
916.87        76.09366
917.26        76.65782
917.66        77.41367
918.05        78.00182
918.45        78.24345
918.84         78.2858
919.24        78.11604
919.64        77.89466
920.03         77.6908
920.42        77.40556
920.82        77.16125
921.21        77.05323
921.61        77.11145
922.00         77.3744
922.40        77.66164
922.79        77.74014
923.19        77.53517
923.58        77.12737
923.98        76.76952
924.37        76.87673
924.77        77.49577
925.16        78.47669
925.55        79.46595
925.95        79.88849
926.34        79.62702
926.74        78.86079
927.13        77.88805
927.52        77.15623
927.92        76.82857
928.31        76.76182
928.70        76.87705
929.10        77.02901
929.49        77.14417
929.89        77.23778
930.28        77.29378
930.67        77.18065
931.07         76.8893
931.46        76.48842
931.85        76.02059
932.24         75.5652
932.64        75.18531
933.03        74.89316
933.42        74.81716
933.82        75.14226
934.21         75.8935
934.60        76.92795
934.99        78.05666
935.39        78.94846
935.78        79.53045
936.17        79.83707
936.56        79.72134
936.96        79.03785
937.35        77.87212
937.74         76.3502
938.13        74.96313
938.53        74.30949
938.92        74.44475
939.31        75.30547
939.70        76.45034
940.09        77.00291
940.49        76.69553
940.88        75.77515
941.27         74.8084
941.66        74.66374
942.05        75.51424
942.44        77.12943
942.84        78.85678
943.23        79.60401
943.62        78.99645
944.01         77.3827
944.40        75.60634
944.79        74.89927
945.18        75.52246
945.57        77.14185
945.97        78.90637
946.36        79.58375
946.75        78.72974
947.14        76.78806
947.53        74.67699
947.92        73.76031
948.31         74.3631
948.70        76.10168
949.09        78.16833
949.48        79.11312
949.87        78.51108
950.26        76.85036
950.65        74.99865
951.04        74.15118
951.43        74.57526
951.82        75.93018
952.21        77.56036
952.60        78.28495
952.99          77.745
953.38        76.33511
953.77        74.82958
954.16         74.2376
954.55        74.76859
954.94        76.22093
955.33        77.89218
955.72        78.31721
956.11        77.06133
956.50        74.66463
956.89        72.32972
957.28        71.60747
957.66        72.81023
958.05        75.43979
958.44         78.5123
958.83        80.01198
959.22         79.2831
959.61        77.05252
960.00        74.47074
960.39        72.99628
960.78        72.91133
961.16        73.80418
961.55         75.0898
961.94        75.71714
962.33        75.30668
962.72        74.33571
963.11        73.24119
963.49        72.56509
963.88        72.45434
964.27        72.67223
964.66        73.17062
965.04        73.95844
965.43        74.84888
965.82        75.85703
966.21         76.7316
966.60        76.99809
966.98        76.59203
967.37        75.74559
967.76        74.71304
968.15        73.82562
968.53        73.18118
968.92         72.6326
969.31        72.42726
969.69          73.034
970.08        74.42944
970.47         76.5774
970.86        78.65812
971.24        79.25651
971.63        78.05272
972.02        75.54483
972.40        72.84367
972.79        71.71121
973.17        72.48819
973.56        74.52666
973.95        77.07148
974.33        78.65435
974.72         78.6852
975.11        77.70829
975.49        76.25842
975.88        75.41721
976.26        75.45248
976.65        75.90919
977.04        76.61232
977.42        77.28248
977.81        77.61557
978.19        77.86339
978.58        77.89574
978.96        77.36072
979.35         76.3374
979.74        74.96203
980.12        73.77299
980.51        73.66563
980.89        74.90201
981.28        77.00143
981.66        79.64307
982.05        81.96651
982.43        83.70924
982.82        84.99979
983.20        85.42912
983.59        84.24908
983.97        81.58326
984.35        77.77149
984.74        74.23938
985.12        72.94703
985.51        74.15184
985.89        77.42655
986.28        81.28041
986.66        83.52174
987.04        83.30438
987.43        81.23156
987.81        78.34833
988.20        76.81088
988.58        77.19991
988.96         78.9211
989.35        80.68384
989.73        80.66478
990.12        78.38461
990.50        74.63432
990.88        70.64528
991.27        68.34586
991.65        68.21729
992.03        69.70317
992.42        71.96711
992.80        74.03288
993.18         75.4341
993.56        76.46022
993.95        77.17672
994.33        77.85603
994.71        78.47808
995.10        78.92798
995.48        79.12651
995.86        79.12978
996.24        78.99286
996.63        78.63829
997.01        78.43176
997.39        78.76798
997.77        79.66127
998.15        80.97044
998.54        82.07469
998.92        82.01762
999.30        80.61267
999.68        78.18016
1000.06        75.44127
1000.45        73.74329
1000.83        73.68532
1001.21        74.92371
1001.59        77.05672
1001.97        79.36274
1002.35        81.44506
1002.73        83.37115
1003.12        84.92714
1003.50        85.72802
1003.88        85.76997
1004.26        85.15549
1004.64        84.04094
1005.02        82.80877
1005.40        81.70114
1005.78        80.68587
1006.16        80.05091
1006.54        80.15062
1006.92        80.97353
1007.30        82.49012
1007.69        84.08752
1008.07        84.57584
1008.45        83.48528
1008.83        81.18785
1009.21        78.49589
1009.59        76.84983
1009.97        76.67646
1010.35        77.43768
1010.73        78.92234
1011.11        80.73328
1011.49        82.54154
1011.86        84.58071
1012.24        85.92536
1012.62        85.32538
1013.00        82.58126
1013.38        77.76512
1013.76        72.38433
1014.14         69.7629
1014.52        71.08323
1014.90        75.59274
1015.28        80.88355
1015.66        83.05939
1016.04        81.16337
1016.41        76.39046
1016.79        70.54605
1017.17        67.41909
1017.55        68.11326
1017.93        70.86443
1018.31        74.26913
1018.69        77.41252
1019.06        80.48277
1019.44         84.1011
1019.82        88.47916
1020.20        92.30313
1020.58        93.99368
1020.95        93.17612
1021.33        90.97225
1021.71        88.70929
1022.09        86.51057
1022.46        83.89333
1022.84        80.89932
1023.22        77.78528
1023.60         75.5468
1023.97        74.69608
1024.35        75.10094
1024.73        76.38078
