SpectraSmart Spectrum 2.9.0.0
--------- Device Information -----------
Spectrum Name :  反射率_0
Saving Time :  2024/04/30 00:01:34
Spectro-Module Model Name : SE2030-DUVN
Spectro-Module Serial Number : OS361AC55029948
Wavelength Start : 200
Wavelength End : 1025
Wavelength Unit : Wavelength(nm)
Spectrum Unit : Reflectance(%)
-----------Spectrum Setting ------------
Integration Time : 20ms
Average : 10
Boxcar : 0
Background removal :  enabled
linearity correction :  enabled
SC :  disabled
Intensity correction :  disabled
DWT denoise :  enabled
savitzky-golay :  disabled
FFT :  disabled
Running average :  disabled
Kalman :  disabled
High pass :  disabled
---------------BEGIN--------------------
Wavelength(nm)             Reflectance(%)
200.29               0
200.75        70.29561
201.21        56.07176
201.67        39.38904
202.13        26.32316
202.58        19.80054
203.04        18.78971
203.50        23.04698
203.96        31.37697
204.42        42.00871
204.88        54.65704
205.34        65.24422
205.80        68.07935
206.26        64.19508
206.72        57.34432
207.18        50.57306
207.64        45.65635
208.10        42.15643
208.55        38.97062
209.01        36.41146
209.47        36.12138
209.93         38.0895
210.39        41.62208
210.85         44.3596
211.31        44.03619
211.77         40.3258
212.23        32.58686
212.69        22.51107
213.14        19.72614
213.60        27.83504
214.06        40.88963
214.52        51.75708
214.98        56.24587
215.44        55.48938
215.90        51.37558
216.36        46.25522
216.81        44.58673
217.27        48.73633
217.73        58.43028
218.19         72.8875
218.65        84.57595
219.11        86.99964
219.57        82.29101
220.02        75.25416
220.48        69.56473
220.94         64.4939
221.40        58.30341
221.86        49.93701
222.32        41.09653
222.77        35.29422
223.23        33.42962
223.69         33.3656
224.15          33.163
224.61        32.45335
225.06         31.2696
225.52        30.66436
225.98        32.17994
226.44        35.39064
226.90        38.93436
227.36        41.30452
227.81        41.55811
228.27        39.97441
228.73        36.84174
229.19          33.444
229.65        32.53154
230.10        34.45166
230.56        37.67592
231.02        40.37752
231.48         40.9646
231.93        39.47561
232.39        36.65162
232.85        33.37057
233.31         31.3464
233.77        31.19407
234.22        32.46117
234.68        34.44821
235.14        35.81582
235.60        36.12315
236.05        35.86982
236.51        35.56392
236.97        35.83523
237.43        36.90556
237.88          38.641
238.34        41.01026
238.80        44.04547
239.26        47.12378
239.71        50.08681
240.17        51.92989
240.63        51.84357
241.08        49.68012
241.54        44.57667
242.00        36.80964
242.46        32.44097
242.91        38.72779
243.37        54.34844
243.83        71.98985
244.28        85.54086
244.74        95.09768
245.20        101.7535
245.66        105.4741
246.11        106.2377
246.57        103.7098
247.03        98.02372
247.48        88.65383
247.94        76.83441
248.40        67.02732
248.85        60.97591
249.31           58.37
249.77        57.25853
250.22        56.96097
250.68        57.43296
251.14        59.81256
251.59         65.3745
252.05        71.13853
252.51         74.4877
252.96        75.10343
253.42        74.26211
253.88         72.1506
254.33        68.65288
254.79        64.76363
255.25        62.35683
255.70        61.75404
256.16        62.25117
256.62        62.80792
257.07        62.62386
257.53        62.07127
257.99        61.32033
258.44        60.12623
258.90        58.91385
259.35        57.55207
259.81        56.36921
260.27        55.50103
260.72        55.12074
261.18         55.2228
261.63        55.37354
262.09        55.30973
262.55        54.38761
263.00          52.662
263.46        50.70435
263.91        48.74679
264.37        47.30904
264.83        46.32979
265.28        45.56198
265.74        45.03873
266.19        44.60499
266.65        44.26149
267.11        44.00418
267.56        43.68692
268.02        43.08585
268.47        42.14622
268.93        40.92814
269.38        39.59779
269.84        38.58494
270.30        37.98183
270.75        37.66262
271.21        37.41833
271.66        36.90143
272.12        36.03769
272.57        34.92894
273.03        33.73388
273.48        32.62154
273.94        31.73113
274.39        30.98121
274.85        30.39215
275.31        29.92319
275.76        29.52311
276.22        29.20821
276.67        28.92543
277.13        28.67922
277.58        28.40856
278.04        28.14251
278.49        27.78853
278.95        27.30841
279.40        26.67807
279.86        26.00072
280.31        25.34214
280.77        24.91105
281.22        24.70322
281.68        24.67586
282.13        24.74247
282.59         24.8243
283.04        24.86337
283.50        24.87174
283.95        24.80989
284.41        24.62626
284.86        24.32433
285.32        23.97865
285.77        23.60912
286.22        23.31414
286.68        23.13314
287.13        23.00187
287.59        22.99365
288.04        23.15987
288.50        23.48969
288.95        23.91918
289.41        24.30237
289.86        24.38657
290.32        24.16983
290.77        23.74589
291.22        23.29722
291.68        23.11116
292.13        23.26388
292.59        23.69476
293.04        24.35069
293.50        25.17786
293.95        26.13411
294.40        27.24046
294.86        28.41439
295.31        29.53378
295.77        30.56301
296.22        31.51002
296.68        32.45651
297.13        33.51947
297.58        34.73468
298.04        36.03634
298.49        37.36579
298.95        38.63327
299.40        39.80902
299.85        40.93457
300.31          42.043
300.76        43.11342
301.21        44.18981
301.67        45.29291
302.12        46.42958
302.58        47.75619
303.03        49.25592
303.48        50.78878
303.94        52.29347
304.39        54.13468
304.84        55.46551
305.30        56.96015
305.75        58.33139
306.20         59.5878
306.66        60.74278
307.11        61.76627
307.57         62.7397
308.02         63.6809
308.47        64.63853
308.93        65.61324
309.38        66.57401
309.83        67.53555
310.29        68.48803
310.74        69.41404
311.19        70.26086
311.65        70.93548
312.10        71.42002
312.55         71.7636
313.00        72.08401
313.46        72.57033
313.91        73.24264
314.36        74.03722
314.82        74.84803
315.27        75.52608
315.72        76.00243
316.18        76.33577
316.63        76.52131
317.08        76.56572
317.53        76.51399
317.99        76.39641
318.44        76.31028
318.89        76.42255
319.35        76.76559
319.80        77.29007
320.25        77.93081
320.70        78.57399
321.16        79.13716
321.61        79.66486
322.06        80.07657
322.51        80.26887
322.97        80.23003
323.42        80.00223
323.87        79.69483
324.32        79.50652
324.78        79.48389
325.23        79.63725
325.68        79.90073
326.13        80.15172
326.59        80.33562
327.04        80.51553
327.49        80.72324
327.94        81.04993
328.39            81.5
328.85        81.98253
329.30        82.46598
329.75        82.75278
330.20        82.79942
330.66        82.66996
331.11        82.47311
331.56        82.32671
332.01        82.30049
332.46        82.36951
332.92        82.55682
333.37        83.00961
333.82         83.6889
334.27        84.56204
334.72        85.47496
335.17        86.16608
335.63        86.53979
336.08         86.6977
336.53        86.72255
336.98         86.8242
337.43        87.07687
337.88        87.41731
338.34        87.82095
338.79        88.27321
339.24        88.74801
339.69        89.27406
340.14        89.79061
340.59        90.17736
341.05          90.423
341.50        90.56657
341.95        90.69437
342.40        90.97093
342.85         91.4247
343.30        91.97091
343.75        92.56001
344.20         93.1094
344.66        93.59101
345.11        94.05134
345.56        94.38605
346.01        94.42253
346.46        94.17741
346.91        93.71239
347.36        93.33981
347.81        93.53676
348.26         94.3653
348.72        95.65733
349.17         97.0473
349.62        97.85147
350.07        97.89104
350.52        97.40049
350.97        96.70718
351.42        96.31599
351.87        96.38003
352.32        96.73379
352.77        97.28975
353.22        97.91353
353.67        98.50999
354.13        99.10034
354.58        99.58248
355.03        99.77692
355.48        99.64125
355.93        99.20439
356.38        98.56055
356.83        97.87563
357.28          97.219
357.73        96.58292
358.18        95.97047
358.63        95.37202
359.08        94.78989
359.53         94.2418
359.98        93.74976
360.43        93.33496
360.88        92.98902
361.33        92.69231
361.78        92.37996
362.23        91.95477
362.68        91.40173
363.13        90.75657
363.58        90.09097
364.03        89.52014
364.48        89.07568
364.93        88.72098
365.38        88.42267
365.83         88.1279
366.28        87.81194
366.73        87.48715
367.18        87.13857
367.63        86.74081
368.08         86.2866
368.53        85.77457
368.98        85.22979
369.43        84.69615
369.88         84.1991
370.33        83.75349
370.78        83.33962
371.23        82.92165
371.68        82.49344
372.13        82.04885
372.58         81.6612
373.03        81.44647
373.48        81.39918
373.93        81.46513
374.38        81.46569
374.83        81.11812
375.28         80.3875
375.72        79.37259
376.17        78.34918
376.62        77.58199
377.07        77.13702
377.52        76.92129
377.97        76.85176
378.42        76.79501
378.87        76.68581
379.32        76.54926
379.77        76.36681
380.22         76.1059
380.67        75.75603
381.11         75.3149
381.56        74.78827
382.01        74.21371
382.46        73.63807
382.91        73.09632
383.36        72.62269
383.81        72.25536
384.26        71.99267
384.71        71.79941
385.15        71.67226
385.60        71.65594
386.05         71.7037
386.50        71.79518
386.95        71.78809
387.40        71.47227
387.85        70.85223
388.29        69.99036
388.74        69.19011
389.19        68.68322
389.64        68.50809
390.09        68.55822
390.54        68.71886
390.98        68.78152
391.43        68.70768
391.88        68.55354
392.33        68.30219
392.78        67.99155
393.23        67.65969
393.67        67.15614
394.12        66.62419
394.57        66.71779
395.02        66.48676
395.47        66.66661
395.91        66.89253
396.36        67.00477
396.81        66.95166
397.26        66.78136
397.71        66.54974
398.15        66.24899
398.60        65.97312
399.05        65.79004
399.50        65.65807
399.95        65.34039
400.39        64.71947
400.84        64.85623
401.29        65.51929
401.74          65.684
402.18        65.25375
402.63        64.75915
403.08        64.41151
403.53        64.28069
403.97        64.40523
404.42        64.74116
404.87        65.09032
405.32        65.12894
405.76        64.79017
406.21        64.24708
406.66        63.65688
407.11        63.24529
407.55        63.14892
408.00        63.28764
408.45        63.59237
408.90        64.11348
409.34        64.60579
409.79        64.41497
410.24        63.74979
410.68        63.56166
411.13        63.92542
411.58        64.31393
412.03        64.58373
412.47        64.73237
412.92        64.68117
413.37        64.47537
413.81        64.17865
414.26         63.9542
414.71        63.81643
415.15        63.74374
415.60        63.71867
416.05        63.75411
416.49         63.8485
416.94        64.00524
417.39        64.17655
417.83        64.26318
418.28        64.25309
418.73        64.16811
419.17         64.0815
419.62        64.12854
420.07        64.31291
420.51        64.56618
420.96        64.83121
421.41        64.92458
421.85        64.79425
422.30        64.72841
422.74        64.67563
423.19        64.31331
423.64        63.79685
424.08        63.90354
424.53        64.57189
424.98         64.9889
425.42        65.06207
425.87        65.41548
426.31         65.9202
426.76        65.70417
427.21        64.82933
427.65        64.76047
428.10        65.33782
428.54        65.38126
428.99        64.91534
429.44        64.44915
429.88        64.19398
430.33        64.50769
430.77        65.17537
431.22        65.81549
431.66        66.27315
432.11        66.17178
432.56        65.67793
433.00        65.79169
433.45        66.59875
433.89        67.04185
434.34        66.71845
434.78              68
435.23        66.51539
435.67        66.19413
436.12        65.95615
436.57        65.98573
437.01        66.22977
437.46        66.56362
437.90        67.03471
438.35        67.16892
438.79        68.08943
439.24        68.39527
439.68        68.45412
440.13        68.60025
440.57        68.81319
441.02         68.8332
441.46        68.63887
441.91        68.39202
442.35         68.1339
442.80          68.216
443.24        68.54645
443.69         68.6938
444.13        68.59754
444.58        68.61301
445.02        68.69157
445.47        68.64135
445.91        68.51465
446.36        68.49993
446.80        68.59331
447.24          68.903
447.69        69.12453
448.13        69.20571
448.58        69.10683
449.02        69.01621
449.47        69.02713
449.91        69.11988
450.36         69.3277
450.80        69.66608
451.25         70.0546
451.69        70.29505
452.13        70.35516
452.58        70.32446
453.02        70.25555
453.47        70.22241
453.91        70.22963
454.36        70.40687
454.80        70.42613
455.24        70.57448
455.69        70.69597
456.13        70.82069
456.58         70.9469
457.02        70.42323
457.46        70.17205
457.91        70.03273
458.35        70.16311
458.79        70.11469
459.24        69.93276
459.68        69.86076
460.13        69.90817
460.57         69.8521
461.01        70.23668
461.46        69.76765
461.90        69.82066
462.34         70.1761
462.79        70.74237
463.23        70.50549
463.68        69.56078
464.12        69.11238
464.56        69.21931
465.01         69.2667
465.45        69.18666
465.89        69.19241
466.34         69.2242
466.78        69.45278
467.22        69.65351
467.67        69.14992
468.11        69.30544
468.55        69.15633
468.99        69.11865
469.44        69.00317
469.88        68.82768
470.32        68.70331
470.77        68.62366
471.21        68.58369
471.65        68.56514
472.10        68.57987
472.54        68.62619
472.98        68.70199
473.42         68.7832
473.87        68.98111
474.31        69.19076
474.75        68.97232
475.20        68.42216
475.64        68.37764
476.08        68.85602
476.52        68.66468
476.97        67.75096
477.41        68.59118
477.85         67.9445
478.29        67.45827
478.74        68.48685
479.18        68.40079
479.62        67.97736
480.06        67.88132
480.50        68.18315
480.95        68.07477
481.39        68.66712
481.83        68.09956
482.27        69.03359
482.72        69.03818
483.16        68.68533
483.60        68.63483
484.04        68.87064
484.48        69.07623
484.93        69.00492
485.37        69.00211
485.81        68.07738
486.25        67.42559
486.69        68.44286
487.14        68.65134
487.58        67.95412
488.02        68.06847
488.46        68.55958
488.90        68.57771
489.34        68.61414
489.79        69.57831
490.23        68.35706
490.67        68.16563
491.11        68.07786
491.55        67.90689
491.99        67.67314
492.43        67.59428
492.88         67.7066
493.32        67.97557
493.76        68.31505
494.20        68.58176
494.64        68.73232
495.08        68.79272
495.52        68.77171
495.96        68.73891
496.41        68.71837
496.85        68.61757
497.29        68.41752
497.73        68.53441
498.17        68.16451
498.61        68.22449
499.05        68.03533
499.49        68.00276
499.93        67.96513
500.37         67.9239
500.82        67.88848
501.26        67.84515
501.70        67.78299
502.14        67.91617
502.58        67.82777
503.02        67.92482
503.46        68.07999
503.90        68.28899
504.34        68.48788
504.78        68.58235
505.22        68.53052
505.66        68.37836
506.10        68.22472
506.54        68.12966
506.98        68.04288
507.42        68.65672
507.86        68.02003
508.30        68.38311
508.74        67.93726
509.18        67.66923
509.62        67.33387
510.06        67.24509
510.50        67.45428
510.94        67.87383
511.38         68.3394
511.82         68.5425
512.26        68.41129
512.70        68.03648
513.14        67.59944
513.58        67.40302
514.02        67.51952
514.46        67.81516
514.90        68.12255
515.34        68.39926
515.78        68.21574
516.22        67.95502
516.66          67.643
517.10        67.49183
517.54         67.5462
517.98        67.73404
518.42        67.96335
518.86        68.06274
519.30        67.98701
519.74        67.85375
520.18        67.71304
520.62        67.50347
521.06        67.31927
521.50        67.43425
521.93         67.7791
522.37        67.95624
522.81        67.92824
523.25        67.88691
523.69        67.88884
524.13        67.94176
524.57        68.05487
525.01        68.21442
525.45        68.34234
525.89        68.31705
526.32        68.11255
526.76        67.79972
527.20        67.47266
527.64        67.28008
528.08        67.25758
528.52        67.35691
528.96        67.51968
529.40        67.65175
529.83        67.71321
530.27        67.73762
530.71        67.72807
531.15        67.69677
531.59         67.6515
532.03        67.58321
532.46        67.49505
532.90        67.42512
533.34        67.37643
533.78        67.35169
534.22        67.34391
534.66        67.33703
535.09        67.32137
535.53        67.31424
535.97        67.31642
536.41        67.34469
536.85        67.39651
537.28        67.45603
537.72        67.50373
538.16        67.50485
538.60        67.45226
539.04        67.36268
539.47        67.23743
539.91        67.13407
540.35        67.04976
540.79        66.98682
541.22        66.94723
541.66        66.94531
542.10        66.97524
542.54        67.03606
542.97        67.10972
543.41        67.18658
543.85         67.2507
544.29        67.31645
544.72        67.34554
545.16        67.31715
545.60        67.22994
546.04        67.06686
546.47        66.90263
546.91        66.96146
547.35        67.21816
547.79        67.41135
548.22        67.46558
548.66        67.62661
549.10        67.88488
549.53        67.88885
549.97          67.549
550.41        68.11418
550.84        67.54253
551.28        67.41843
551.72        67.16722
552.15        67.29133
552.59        66.94443
553.03        67.29841
553.46        67.22106
553.90        67.36172
554.34        67.43002
554.77        67.48869
555.21          67.543
555.65        67.51994
556.08        67.44752
556.52        67.49069
556.96        67.60899
557.39        67.62556
557.83        67.56544
558.27        67.54826
558.70        67.60618
559.14        67.71715
559.57        67.81606
560.01        67.92223
560.45        68.01185
560.88        67.76658
561.32        67.60877
561.75        67.67098
562.19        67.97906
562.63        67.85487
563.06         67.3614
563.50        67.28461
563.93        67.61356
564.37        67.49008
564.80        67.55091
565.24        67.57202
565.68        67.70497
566.11        67.72821
566.55        67.67157
566.98         67.5987
567.42        67.60867
567.85        67.66337
568.29        67.73763
568.72        67.96361
569.16        68.40916
569.60        67.79411
570.03        68.20699
570.47        68.32012
570.90        68.02231
571.34        68.11021
571.77        68.11839
572.21        68.16771
572.64        68.10468
573.08        68.33189
573.51        68.11549
573.95        67.99477
574.38        68.57222
574.82        67.94504
575.25         68.3106
575.69        68.04259
576.12        67.87336
576.56        67.56161
576.99         67.7783
577.42        67.84277
577.86        67.44685
578.29        67.29861
578.73        68.01856
579.16        67.96431
579.60        67.71964
580.03        68.10797
580.47         68.2495
580.90        68.29816
581.33        67.70967
581.77        67.48566
582.20        67.80904
582.64        68.15454
583.07        67.85629
583.51        67.59319
583.94        67.38878
584.37        67.10178
584.81        67.02589
585.24        67.20839
585.68         67.8325
586.11        68.41599
586.54        67.68687
586.98        67.43324
587.41        68.34299
587.85        68.41062
588.28        68.33395
588.71        68.42153
589.15        67.61667
589.58         67.8418
590.01        67.39125
590.45        67.54188
590.88        67.85606
591.31        68.14127
591.75         68.1702
592.18         68.2357
592.61        68.40566
593.05        67.39648
593.48        68.05133
593.91        68.71387
594.35        67.31639
594.78        67.11364
595.21        67.19916
595.65        67.76316
596.08        67.30618
596.51        67.45175
596.94        67.91319
597.38        68.05619
597.81        67.81699
598.24        67.94163
598.68        67.79917
599.11        67.24596
599.54        68.28777
599.97        68.53101
600.41        67.22959
600.84        67.69646
601.27        67.64964
601.70        68.03362
602.14        68.35674
602.57        68.06894
603.00         67.4112
603.43        67.25204
603.87        67.39676
604.30        67.98117
604.73        67.60637
605.16        67.55088
605.60         67.7191
606.03         67.8654
606.46        67.91035
606.89        68.15152
607.32        67.69913
607.76        67.67984
608.19        67.89009
608.62        67.99342
609.05        67.93034
609.48        68.32927
609.92        67.97946
610.35         67.9309
610.78        68.34917
611.21        67.64768
611.64        67.58774
612.07        67.78069
612.50        67.86221
612.94        68.15761
613.37        68.49433
613.80        68.01883
614.23        68.58702
614.66        68.56976
615.09        68.51871
615.52        68.47385
615.96        68.44028
616.39        68.28969
616.82        68.01413
617.25        68.16489
617.68         67.6366
618.11        68.07589
618.54        68.28967
618.97        68.28664
619.40        67.92039
619.84        67.81004
620.27        68.02942
620.70        68.32599
621.13        68.58388
621.56        68.21109
621.99        68.19981
622.42         67.5271
622.85        68.13588
623.28        67.91854
623.71        68.46032
624.14        67.39622
624.57        68.16985
625.00        68.15017
625.43        68.20863
625.86        68.12365
626.29        67.92847
626.72        67.89542
627.15        67.88211
627.58        67.90507
628.01        67.90174
628.44        67.92809
628.87        67.97968
629.30          68.004
629.73        67.99206
630.16        68.15031
630.59        68.03111
631.02        68.16631
631.45        68.11452
631.88        68.06902
632.31         67.9244
632.74        67.91733
633.17        67.70081
633.60        67.60191
634.03        67.52602
634.46         67.4666
634.89        67.42775
635.32        67.42907
635.75        67.46912
636.18        67.53131
636.61        67.59602
637.04        67.63239
637.47        67.62897
637.89        67.60902
638.32        67.56659
638.75        67.49895
639.18        67.40371
639.61        67.39194
640.04        67.29173
640.47         67.2835
640.90        67.31872
641.33        67.40957
641.76         67.5077
642.18         67.5393
642.61        67.46755
643.04         67.3151
643.47        67.17408
643.90        67.16958
644.33         67.3158
644.76        67.65591
645.18        68.04349
645.61         68.0502
646.04        67.57784
646.47        67.48113
646.90        67.70018
647.33        67.68655
647.75        67.42451
648.18        67.26052
648.61        67.24868
649.04        67.27393
649.47        67.33615
649.89        67.59164
650.32        67.90105
650.75        67.85415
651.18         67.5505
651.61        67.49263
652.03        67.71738
652.46        68.02818
652.89        68.20313
653.32        67.99123
653.74        67.58669
654.17        67.22814
654.60        66.78807
655.03        68.54798
655.46        66.87149
655.88        67.75024
656.31        68.26501
656.74        69.55042
657.16        70.07529
657.59         68.2907
658.02         67.2739
658.45        68.36957
658.87         68.2653
659.30        67.96607
659.73        68.51388
660.15        68.44936
660.58        68.16036
661.01        67.92747
661.44        67.78791
661.86        67.58048
662.29        67.35534
662.72        67.52736
663.14        67.97369
663.57        67.87864
664.00        67.36353
664.42        67.23897
664.85        67.55564
665.27        67.82827
665.70        67.96107
666.13        68.05919
666.55        68.10213
666.98        68.04736
667.41         67.9306
667.83        67.81017
668.26        67.70142
668.69        67.60593
669.11        67.52733
669.54        67.46554
669.96         67.4202
670.39        67.41606
670.82        67.44717
671.24        67.45169
671.67         67.4403
672.09        67.53941
672.52        67.72568
672.94        67.91535
673.37        67.57087
673.80         67.9614
674.22        67.61491
674.65        67.73043
675.07        67.91619
675.50        68.11617
675.92        68.26714
676.35         68.3147
676.77        68.25791
677.20        68.07107
677.62        67.84799
678.05        67.77131
678.47        67.86051
678.90        68.03185
679.32        68.19601
679.75        68.25409
680.17        68.17256
680.60        67.99228
681.02        67.78426
681.45        67.67654
681.87        67.70492
682.30         67.8024
682.72        67.95805
683.15        68.11232
683.57        68.26474
684.00        68.43913
684.42        68.58534
684.85        68.66782
685.27        68.68609
685.70         68.4988
686.12        68.23769
686.54        68.54377
686.97         69.2616
687.39        69.49014
687.82        69.13839
688.24        69.13048
688.66        69.02876
689.09        68.78709
689.51        68.34808
689.94        68.08866
690.36        68.05292
690.78        68.06661
691.21        68.12274
691.63        68.38671
692.06        68.73905
692.48        68.78027
692.90         68.5351
693.33        68.40501
693.75        68.41751
694.17        68.32001
694.60         68.1571
695.02        68.09869
695.44        68.14671
695.87        68.37807
696.29        68.70436
696.71        68.61995
697.14         68.2422
697.56        68.34745
697.98        68.85342
698.41        68.95335
698.83        68.64845
699.25        68.53226
699.68        68.61176
700.10        68.60405
700.52        68.49612
700.94        68.43839
701.37        68.42632
701.79        68.41495
702.21        68.39467
702.64        68.38711
703.06        68.39813
703.48        68.44998
703.90        68.54702
704.33        68.68778
704.75        68.82355
705.17        68.94932
705.59        69.02976
706.01        69.06674
706.44        69.07684
706.86        69.08516
707.28          69.096
707.70        69.13096
708.12        69.17601
708.55        69.14521
708.97        69.05952
709.39        69.03448
709.81        69.09814
710.23        69.21127
710.66        69.36547
711.08        69.61152
711.50        69.87217
711.92        70.03167
712.34        70.06811
712.76        70.01448
713.19        69.89853
713.61         69.8194
714.03        69.78869
714.45        69.78501
714.87        69.81153
715.29        69.87191
715.71         69.9562
716.13        70.06258
716.56        70.13863
716.98        70.17999
717.40        70.14771
717.82        70.05499
718.24        69.92809
718.66        69.81282
719.08        69.72694
719.50        69.66083
719.92        69.61871
720.34         69.6037
720.76        69.61249
721.19        69.63885
721.61          69.676
722.03        69.68326
722.45        69.65002
722.87        69.58288
723.29         69.5114
723.71        69.45786
724.13         69.4277
724.55        69.46853
724.97        69.57028
725.39        69.42763
725.81        69.48929
726.23        69.41496
726.65        69.37038
727.07        69.39423
727.49        69.49606
727.91        69.63876
728.33        69.80199
728.75        69.96608
729.17        70.10931
729.59        70.24094
730.01        70.31013
730.43         70.2341
730.85        70.02068
731.27        69.71498
731.69        69.43233
732.10        69.35449
732.52        69.51456
732.94        69.85224
733.36        70.27807
733.78        70.61217
734.20        70.77679
734.62        70.85423
735.04        70.86093
735.46        70.72152
735.88        70.52176
736.30        70.50224
736.72        70.61066
737.13         70.6265
737.55         70.4686
737.97        70.09525
738.39        69.67487
738.81        69.66039
739.23        70.04304
739.65        70.41318
740.06        70.60013
740.48        70.68412
740.90        70.61474
741.32        70.30875
741.74        69.89145
742.16        69.68174
742.57        69.76498
742.99         69.9519
743.41        70.18678
743.83        70.54941
744.25        70.91013
744.67        70.88738
745.08        70.56134
745.50        70.42399
745.92        70.53453
746.34        70.60939
746.75        70.62391
747.17        70.66569
747.59        70.72488
748.01        70.78543
748.42        70.84307
748.84        70.85812
749.26        70.83572
749.68        70.78597
750.09        70.71412
750.51        70.66271
750.93        70.63075
751.35        70.61745
751.76        70.62461
752.18        70.64546
752.60        70.67625
753.01        70.72308
753.43        70.77197
753.85        70.82941
754.27         70.9048
754.68        71.02489
755.10        71.14622
755.52        71.20225
755.93        71.16251
756.35        71.01485
756.77        70.90143
757.18        70.97807
757.60        71.26279
758.02        71.95051
758.43        72.67513
758.85        72.45335
759.26        71.17931
759.68        70.71468
760.10           71.06
760.51        71.35527
760.93         71.3362
761.34        71.50848
761.76        71.89169
762.18        71.94237
762.59        71.70638
763.01        71.22274
763.42        70.69656
763.84        70.42358
764.26        70.48824
764.67        70.72138
765.09        71.04934
765.50        71.42927
765.92        71.76287
766.33        71.83935
766.75        71.62196
767.16        71.54213
767.58        71.60726
768.00        71.48158
768.41         71.2335
768.83        71.39332
769.24        71.79661
769.66        71.69044
770.07        71.15784
770.49        70.87865
770.90        70.96049
771.32        71.30637
771.73        71.78563
772.15        71.96243
772.56        71.78277
772.97         71.7306
773.39        71.41275
773.80        71.41024
774.22        71.58116
774.63        71.93667
775.05        72.29052
775.46        72.43914
775.88        72.30218
776.29        71.98961
776.70        71.61693
777.12         71.3904
777.53        71.37688
777.95        71.49551
778.36        71.71378
778.77        71.93989
779.19        72.12867
779.60        72.41428
780.02        72.70511
780.43        72.74692
780.84        72.60972
781.26        72.60014
781.67        72.75743
782.09        73.07706
782.50        73.39928
782.91        73.19785
783.33        72.54675
783.74        72.15977
784.15        72.09959
784.57        71.95895
784.98        71.77203
785.39        71.79536
785.81        72.04004
786.22        72.42342
786.63        72.87337
787.04        73.27616
787.46        73.58843
787.87        73.80486
788.28        73.95277
788.70        74.07709
789.11         74.1793
789.52        74.25896
789.93        74.27581
790.35        74.16279
790.76        73.93406
791.17        73.62873
791.58        73.34871
792.00        73.20471
792.41        73.24151
792.82        73.48103
793.23        73.83098
793.65        73.95229
794.06        73.88941
794.47        74.07877
794.88        74.43056
795.29        74.48138
795.71         74.1868
796.12        73.82159
796.53        73.53194
796.94        73.48698
797.35        73.74762
797.76        74.26604
798.18        74.83488
798.59        75.15838
799.00        75.13432
799.41        74.85438
799.82        74.45659
800.23        74.18276
800.64        74.11441
801.06        74.15192
801.47        74.28674
801.88        74.42368
802.29        74.52148
802.70        74.60854
803.11        74.67255
803.52        74.68258
803.93        74.64787
804.34        74.57517
804.75        74.48238
805.17        74.46485
805.58        74.57829
805.99        74.59903
806.40        74.56591
806.81        74.98318
807.22        75.63792
807.63        75.50142
808.04        74.70995
808.45        74.42794
808.86        74.76383
809.27        75.07973
809.68        75.23264
810.09        75.28974
810.50        75.20719
810.91         74.9662
811.32        74.70612
811.73        74.64896
812.14        74.83909
812.55        75.21992
812.96        75.62881
813.37        75.76193
813.78        75.55018
814.19        75.12074
814.60        74.64577
815.01        74.36193
815.42        74.32915
815.83        74.46569
816.24        74.73033
816.65        75.03643
817.05        75.31613
817.46        75.54739
817.87        75.69041
818.28        75.62955
818.69        75.36385
819.10        74.92897
819.51        74.44294
819.92         74.1413
820.33        74.10658
820.74        74.26964
821.14        74.57362
821.55        74.92797
821.96        75.27588
822.37        75.65017
822.78        75.95522
823.19        76.01931
823.60        75.80773
824.00        75.35374
824.41        74.82883
824.82        74.54777
825.23        74.58076
825.64        74.86269
826.04        75.23956
826.45        75.34376
826.86        75.11385
827.27        74.66981
827.68        74.19704
828.08         74.0071
828.49        74.13599
828.90        74.51598
829.31        75.04193
829.72        75.53392
830.12        75.94431
830.53        76.24054
830.94        76.47542
831.35        76.69255
831.75        76.91833
832.16        77.04099
832.57        77.05514
832.97        76.92677
833.38        76.67233
833.79        76.38332
834.20        76.07559
834.60        75.73708
835.01        75.42097
835.42        75.10238
835.82        74.96292
836.23        75.22768
836.64        75.93504
837.04        77.03707
837.45        78.09474
837.86        78.53021
838.26        78.19476
838.67        77.26844
839.08        76.15109
839.48        75.45253
839.89        75.37652
840.29        75.73421
840.70        76.30528
841.11        76.74419
841.51        76.95316
841.92        77.00674
842.33        76.99164
842.73        77.02674
843.14         77.0975
843.54        77.17462
843.95         77.2193
844.35        77.25489
844.76        77.24972
845.17        77.19457
845.57        77.10531
845.98        76.96003
846.38        76.78457
846.79        76.60419
847.19        76.36786
847.60        75.94037
848.00        75.35928
848.41         74.6915
848.81        74.19122
849.22        74.23298
849.62        74.90298
850.03        76.03202
850.43        77.35719
850.84        78.18633
851.24        78.36077
851.65        77.95065
852.05        77.23521
852.46         76.6498
852.86        76.33644
853.27        76.24016
853.67        76.16811
854.07        76.05117
854.48        75.80606
854.88        75.51244
855.29        75.17661
855.69        75.02222
856.10        75.00842
856.50        75.17832
856.90        75.33481
857.31         75.2346
857.71        74.88164
858.12        74.30711
858.52        73.75936
858.92        73.59064
859.33        73.86594
859.73        74.53088
860.13        75.30762
860.54        75.75188
860.94        75.78516
861.34        75.42929
861.75        74.87737
862.15        74.53632
862.55        74.47964
862.96         74.6143
863.36        74.65485
863.76        74.17653
864.17        73.16211
864.57        71.83357
864.97        70.55989
865.38        69.83093
865.78        69.79443
866.18        70.27661
866.58        71.11663
866.99        71.94249
867.39        72.60996
867.79        73.17894
868.19         73.5365
868.60        73.52863
869.00        73.17753
869.40        72.48061
869.80        71.80794
870.21        71.81248
870.61        72.65345
871.01        74.09126
871.41        75.55463
871.81         76.1254
872.22        75.58833
872.62        74.23186
873.02        72.56225
873.42        71.42906
873.82        71.11852
874.22        71.42659
874.63        72.01873
875.03        72.37572
875.43           72.35
875.83        72.08367
876.23        71.88113
876.63        72.22271
877.03        73.17229
877.44        74.48672
877.84         75.7163
878.24        76.06139
878.64        75.38516
879.04         74.0135
879.44        72.49422
879.84        71.61629
880.24        71.56153
880.64        72.07611
881.04        72.89707
881.44        73.57881
881.84        73.95449
882.24        74.17579
882.65        74.20726
883.05        74.13103
883.45          73.944
883.85        73.62379
884.25        73.33396
884.65        73.35878
885.05        73.73176
885.45        74.34586
885.85        75.03205
886.25        75.48285
886.65        75.57612
887.05        75.40817
887.45        74.95784
887.85        74.21291
888.25        73.29099
888.65        72.28771
889.04        71.42647
889.44         71.0703
889.84        71.21095
890.24        71.76123
890.64        72.57246
891.04        73.28568
891.44        73.72142
891.84        73.96684
892.24        74.03854
892.64        73.99201
893.04        73.88116
893.44        73.66789
893.83        73.54049
894.23        73.75792
894.63          74.382
895.03        75.32143
895.43         76.2806
895.83        76.80426
896.23        76.78546
896.63         76.3216
897.02        75.66744
897.42        75.31478
897.82        75.37427
898.22        75.74944
898.62         76.1439
899.01        76.07621
899.41        75.44464
899.81        74.43401
900.21        73.46112
900.61        73.14793
901.00        73.60458
901.40        74.62274
901.80        75.72414
902.20        76.13006
902.59         75.6453
902.99        74.51839
903.39        73.20886
903.79        72.40639
904.18        72.28145
904.58        72.65013
904.98        73.18423
905.38        73.38359
905.77        73.10679
906.17        72.53584
906.57         71.9461
906.96        71.78487
907.36        72.12553
907.76        72.83899
908.15        73.63401
908.55        73.91726
908.95        73.60794
909.34         72.8694
909.74         72.1487
910.14        71.99107
910.53         72.5556
910.93        73.63294
911.33        74.92459
911.72        75.97281
912.12        76.53509
912.52         76.7338
912.91        76.77952
913.31        77.01141
913.70        77.51279
914.10        78.11957
914.49        78.52503
914.89        78.26923
915.29        77.32455
915.68        75.90173
916.08        74.47684
916.47        73.64097
916.87         73.5939
917.26        74.12386
917.66        74.94408
918.05        75.59353
918.45        75.85115
918.84        75.89162
919.24        75.73566
919.64        75.57715
920.03        75.49158
920.42        75.37343
920.82        75.25138
921.21        75.09547
921.61        74.92262
922.00        74.79111
922.40        74.71689
922.79        74.79334
923.19        75.00153
923.58        75.32224
923.98        75.68961
924.37        76.02355
924.77        76.27567
925.16        76.44563
925.55        76.52613
925.95        76.51652
926.34        76.44296
926.74        76.30425
927.13        76.08609
927.52        75.73186
927.92        75.26937
928.31        74.72299
928.70        74.23896
929.10        74.02666
929.49        74.12131
929.89        74.42484
930.28        74.79578
930.67        74.89943
931.07        74.65745
931.46        74.21987
931.85        73.69521
932.24        73.25206
932.64        72.97321
933.03        72.81213
933.42        72.87075
933.82        73.30294
934.21        74.11028
934.60        75.17181
934.99        76.26211
935.39        76.98367
935.78        77.27125
936.17        77.19691
936.56        76.73211
936.96        75.92819
937.35        74.91322
937.74        73.73443
938.13        72.76553
938.53        72.45889
938.92        72.82664
939.31        73.82759
939.70        75.02551
940.09        75.55526
940.49        75.15894
940.88        74.08926
941.27        72.91148
941.66        72.48454
942.05        72.99701
942.44        74.24592
942.84        75.67586
943.23        76.35225
943.62        75.94588
944.01        74.74732
944.40        73.47821
944.79        73.19907
945.18        74.11349
945.57         75.9045
945.97        77.74923
946.36        78.47421
946.75        77.65064
947.14        75.70219
947.53        73.50773
947.92        72.37246
948.31        72.62561
948.70        73.92292
949.09         75.5606
949.48        76.27122
949.87        75.68035
950.26        74.21147
950.65        72.62153
951.04        71.94457
951.43        72.40154
951.82        73.69713
952.21        75.18933
952.60        75.73313
952.99        75.00996
953.38        73.41321
953.77        71.76157
954.16        71.12766
954.55        71.72209
954.94        73.32267
955.33        75.19358
955.72        75.77675
956.11        74.58232
956.50        72.17512
956.89        69.74296
957.28        68.80997
957.66        69.70521
958.05        71.95278
958.44        74.66954
958.83        76.05417
959.22        75.50156
959.61        73.62606
960.00        71.47871
960.39          70.408
960.78        70.65367
961.16        71.83632
961.55        73.25201
961.94        73.61886
962.33        72.55913
962.72        70.68591
963.11        68.71915
963.49        67.57551
963.88         67.4693
964.27         68.0686
964.66        69.20649
965.04        70.64608
965.43        72.09544
965.82        73.63786
966.21        74.95305
966.60        75.45428
966.98        75.06363
967.37         73.9956
967.76        72.70363
968.15        71.83285
968.53        71.51513
968.92        71.52786
969.31        71.88171
969.69        72.56992
970.08        73.44862
970.47        74.67994
970.86        75.70956
971.24        75.59422
971.63         74.1903
972.02        71.81245
972.40          69.566
972.79        69.21017
973.17        71.00468
973.56        74.31373
973.95        77.98619
974.33        79.83885
974.72        79.12183
975.11        76.55527
975.49        73.29226
975.88        71.43327
976.26        71.51782
976.65        72.88689
977.04        74.82504
977.42        76.01898
977.81        75.85199
978.19        74.90024
978.58         73.5847
978.96        72.41628
979.35        71.67232
979.74        71.15565
980.12        70.98762
980.51        71.37241
980.89         72.3531
981.28        73.73962
981.66        75.39341
982.05        76.75294
982.43        77.72029
982.82        78.30789
983.20        78.37515
983.59        77.65208
983.97        76.24567
984.35        74.30418
984.74        72.57781
985.12          72.055
985.51        72.83925
985.89        74.78355
986.28        76.98579
986.66        78.27017
987.04        78.10347
987.43        76.83017
987.81        75.08551
988.20        74.28254
988.58        74.74448
988.96        76.12995
989.35        77.42439
989.73        77.23992
990.12        75.23419
990.50        72.00272
990.88        68.62408
991.27        66.81883
991.65         66.9776
992.03         68.6177
992.42        70.92859
992.80        72.95545
993.18        74.25772
993.56        75.11925
993.95        75.62828
994.33        76.11505
994.71        76.60168
995.10         76.9789
995.48        77.19373
995.86        77.33157
996.24        77.42522
996.63        77.36241
997.01         77.4401
997.39        77.91336
997.77        78.77332
998.15        79.98174
998.54        80.90511
998.92        80.57221
999.30        78.81962
999.68        75.90095
1000.06        72.85435
1000.45        71.61274
1000.83        72.83285
1001.21        75.97269
1001.59        79.82948
1001.97        82.39328
1002.35        83.02856
1002.73        82.24661
1003.12        80.75986
1003.50        79.63684
1003.88        79.28648
1004.26        79.41628
1004.64         79.6897
1005.02        79.60167
1005.40        79.05717
1005.78        78.29478
1006.16        77.77822
1006.54        78.10667
1006.92        79.36279
1007.30        81.39304
1007.69        83.51133
1008.07        84.43387
1008.45        83.59821
1008.83        81.35688
1009.21        78.61942
1009.59         76.9637
1009.97        76.87854
1010.35        77.88509
1010.73        79.47967
1011.11        80.81268
1011.49        81.50323
1011.86         81.8461
1012.24        81.63538
1012.62        80.72194
1013.00        79.12504
1013.38        76.81591
1013.76        74.09623
1014.14        71.81719
1014.52        70.38241
1014.90        69.67583
1015.28        69.58804
1015.66        69.71587
1016.04        69.93296
1016.41        70.60904
1016.79        71.29762
1017.17        71.22649
1017.55        70.45302
1017.93         69.2267
1018.31        68.63148
1018.69        69.99415
1019.06        73.64603
1019.44        79.74651
1019.82        87.58936
1020.20        92.47014
1020.58        91.01797
1020.95        84.67382
1021.33        77.25931
1021.71        72.29788
1022.09        69.97276
1022.46        69.12814
1022.84        69.55177
1023.22        69.78674
1023.60        69.30717
1023.97        69.05365
1024.35        69.08652
1024.73        69.24013
