SpectraSmart Spectrum 2.9.0.0
--------- Device Information -----------
Spectrum Name :  反射率_0
Saving Time :  2024/04/21 00:42:56
Spectro-Module Model Name : SE2030-DUVN
Spectro-Module Serial Number : OS361AC55029948
Wavelength Start : 200
Wavelength End : 1025
Wavelength Unit : Wavelength(nm)
Spectrum Unit : Reflectance(%)
-----------Spectrum Setting ------------
Integration Time : 20ms
Average : 10
Boxcar : 0
Background removal :  enabled
linearity correction :  enabled
SC :  disabled
Intensity correction :  disabled
DWT denoise :  enabled
savitzky-golay :  disabled
FFT :  disabled
Running average :  disabled
Kalman :  disabled
High pass :  disabled
---------------BEGIN--------------------
Wavelength(nm)             Reflectance(%)
200.29               0
200.75        -65.2421
201.21       -18.78896
201.67        6.456352
202.13        15.69897
202.58        15.67458
203.04         10.4214
203.50        2.708956
203.96      -0.5962284
204.42        3.124549
204.88        9.977645
205.34        16.88742
205.80        19.85233
206.26        17.86562
206.72        13.93504
207.18        5.088003
207.64        -14.3579
208.10       -41.76857
208.55       -74.01597
209.01       -84.93157
209.47       -49.67541
209.93       -3.604614
210.39        32.34335
210.85        54.68201
211.31        63.77962
211.77        63.19336
212.23         53.8885
212.69        31.32327
213.14       -9.269876
213.60       -77.48487
214.06       -260.1563
214.52       -640.2271
214.98       -257.6742
215.44       -49.65578
215.90        17.74978
216.36        39.07159
216.81        39.49579
217.27        21.36897
217.73       -70.73211
218.19        1039.779
218.65        449.8982
219.11       -943.2903
219.57       -28.20604
220.02        29.34157
220.48        38.21163
220.94        29.72552
221.40       0.9177312
221.86       -68.08161
222.32       -116.7334
222.77       -58.91441
223.23       -5.832533
223.69        21.83725
224.15        32.21238
224.61        33.85445
225.06        31.69904
225.52        27.43392
225.98        22.90256
226.44        19.20411
226.90        14.88088
227.36        12.41476
227.81        16.10219
228.27        23.24324
228.73        30.60304
229.19        35.29758
229.65        35.60507
230.10        32.16684
230.56        26.36069
231.02        19.07595
231.48        13.89187
231.93        13.72677
232.39        17.41906
232.85        21.98485
233.31        24.75969
233.77        25.84039
234.22        26.48229
234.68         26.6247
235.14        26.07197
235.60        25.12784
236.05        23.00232
236.51        20.21103
236.97        23.88264
237.43        34.65066
237.88        41.92486
238.34        41.52174
238.80        62.65926
239.26        52.27798
239.71        49.04636
240.17        39.02678
240.63        28.80997
241.08         23.3592
241.54        26.44615
242.00        37.95633
242.46        46.24141
242.91        48.37406
243.37        45.34916
243.83        39.10493
244.28        37.21683
244.74        43.09617
245.20        51.88519
245.66         57.4116
246.11        53.49326
246.57        39.80592
247.03        18.76967
247.48       -6.691461
247.94       -32.03078
248.40       -59.76055
248.85       -112.2565
249.31       -244.5268
249.77       -285.8617
250.22       -62.62849
250.68        12.40997
251.14         32.8163
251.59        37.27412
252.05        35.54556
252.51        28.95671
252.96        17.73334
253.42        9.040083
253.88         9.48614
254.33        16.89854
254.79        28.88651
255.25        40.99023
255.70         50.2816
256.16        57.02184
256.62        61.21844
257.07        63.03179
257.53        63.67094
257.99        63.46784
258.44         62.5889
258.90        61.88694
259.35        60.91567
259.81        60.00078
260.27         58.9567
260.72        57.70657
261.18        56.63376
261.63        55.50758
262.09        54.45259
262.55         53.1386
263.00        51.50658
263.46        49.84919
263.91        48.22019
264.37        47.11765
264.83        46.47231
265.28        46.07766
265.74        45.78583
266.19        45.20418
266.65        44.33665
267.11        43.24554
267.56         42.0485
268.02        41.01491
268.47        40.16003
268.93        39.44556
269.38        38.73228
269.84        37.87233
270.30        36.83384
270.75        35.68948
271.21        34.60419
271.66        33.75822
272.12        33.20636
272.57        32.84018
273.03         32.5517
273.48        32.14241
273.94        31.58958
274.39        30.93586
274.85        30.25253
275.31        29.57708
275.76        28.93249
276.22        28.33335
276.67        27.81147
277.13        27.49291
277.58        27.32951
278.04        27.29547
278.49        27.23513
278.95        27.00504
279.40         26.5431
279.86        25.94813
280.31        25.27492
280.77        24.68931
281.22        24.20638
281.68        23.84328
282.13        23.53961
282.59        23.28242
283.04        23.03608
283.50        22.82571
283.95        22.68602
284.41        22.69207
284.86        22.82831
285.32        23.07255
285.77        23.29597
286.22        23.33349
286.68        23.18702
287.13        22.87979
287.59        22.60592
288.04        22.55289
288.50        22.73113
288.95        23.18876
289.41        23.80762
289.86        23.92542
290.32        23.42933
290.77         24.3148
291.22        23.44598
291.68        23.60773
292.13        23.89749
292.59        24.36851
293.04         24.9861
293.50        25.76891
293.95        26.72525
294.40        27.83219
294.86        29.07056
295.31        30.39178
295.77        31.77156
296.22        33.19156
296.68        34.64953
297.13        36.14433
297.58        37.69154
298.04        39.29119
298.49        40.95467
298.95        42.71857
299.40         44.5697
299.85        46.51517
300.31         48.5099
300.76        50.45573
301.21        52.35043
301.67        54.23979
302.12        56.18893
302.58        58.41011
303.03        60.89014
303.48        63.59648
303.94        66.38457
304.39        68.97213
304.84        71.29899
305.30         73.4539
305.75        75.50393
306.20        77.67624
306.66        80.01342
307.11        82.37371
307.57        84.69288
308.02        86.79175
308.47        88.66462
308.93        90.41547
309.38        92.03995
309.83        93.60735
310.29         95.1785
310.74        96.68547
311.19        98.17512
311.65        99.69831
312.10        101.2326
312.55        102.7632
313.00        104.2228
313.46        105.5035
313.91        106.5619
314.36        107.4441
314.82        108.2064
315.27        108.9298
315.72        109.6593
316.18        110.3742
316.63        111.0847
317.08        111.8066
317.53        112.5287
317.99        113.2453
318.44        113.9095
318.89        114.4243
319.35        114.7733
319.80        114.9994
320.25        115.1644
320.70        115.3794
321.16        115.6703
321.61        116.0237
322.06        116.4149
322.51        116.8111
322.97        117.1758
323.42        117.5586
323.87        117.9161
324.32        118.1955
324.78        118.3671
325.23        118.4812
325.68        118.5691
326.13        118.7234
326.59        118.9413
327.04        119.2644
327.49        119.6215
327.94        119.9261
328.39        120.1591
328.85        120.3182
329.30        120.5236
329.75        120.8242
330.20        121.2382
330.66        121.6883
331.11        122.2132
331.56        122.7229
332.01        123.1939
332.46        123.6485
332.92         124.014
333.37        124.3326
333.82         124.564
334.27        124.7251
334.72        124.9167
335.17        125.3086
335.63         125.902
336.08        126.7125
336.53         127.592
336.98        128.3443
337.43        128.8958
337.88        129.2813
338.34        129.5288
338.79        129.7667
339.24         130.013
339.69        130.2581
340.14        130.4887
340.59        130.6868
341.05        130.8654
341.50          131.06
341.95        131.3454
342.40        131.8341
342.85        132.5296
343.30        133.3728
343.75         134.226
344.20        134.8813
344.66        135.2862
345.11        135.4668
345.56         135.514
346.01        135.5828
346.46        135.7359
346.91        135.9089
347.36        136.0397
347.81        136.1488
348.26        136.2417
348.72        135.9118
349.17         135.991
349.62        135.9943
350.07        136.1659
350.52        136.4422
350.97        136.6824
351.42        136.6476
351.87         136.284
352.32        135.6756
352.77        134.9964
353.22         134.511
353.67         134.277
354.13        134.2273
354.58        134.1843
355.03        133.9223
355.48        133.3825
355.93        132.6413
356.38        131.8296
356.83          131.14
357.28        130.6075
357.73        130.1595
358.18        129.6765
358.63         128.978
359.08        128.0383
359.53        126.9459
359.98        125.8202
360.43        124.8281
360.88        124.0107
361.33        123.3084
361.78        122.6687
362.23        122.0109
362.68        121.3029
363.13        120.5725
363.58        119.8013
364.03        118.9566
364.48        118.0366
364.93         117.039
365.38        116.0197
365.83        115.0798
366.28          114.24
366.73        113.4723
367.18        112.7139
367.63        111.8609
368.08        110.8948
368.53        109.8638
368.98        108.8083
369.43        107.7755
369.88        106.7791
370.33        105.7972
370.78         104.846
371.23        103.9752
371.68        103.2004
372.13        102.5132
372.58        101.8793
373.03        101.2223
373.48        100.5151
373.93        99.78232
374.38        99.02348
374.83        98.25566
375.28        97.50269
375.72        96.73647
376.17        96.04852
376.62        95.48673
377.07        95.03361
377.52        94.65401
377.97        94.24758
378.42        93.66332
378.87         92.8921
379.32        92.01035
379.77        91.12316
380.22        90.36195
380.67        89.74661
381.11        89.23472
381.56         88.7825
382.01        88.34514
382.46        87.91045
382.91        87.50185
383.36        87.09663
383.81        86.65411
384.26        86.16371
384.71        85.62259
385.15        85.05977
385.60        84.59589
386.05        84.22174
386.50        83.91319
386.95        83.59959
387.40        83.17749
387.85        82.64542
388.29        82.00488
388.74        81.44089
389.19        80.99224
389.64        80.65992
390.09        80.39616
390.54        80.15622
390.98        79.85905
391.43        79.53167
391.88        79.19369
392.33        78.85819
392.78        78.52145
393.23        78.18941
393.67        77.84126
394.12        77.59864
394.57        77.26411
395.02        77.23405
395.47        76.95116
395.91        76.58074
396.36        76.31377
396.81        76.18103
397.26        76.07971
397.71        75.94487
398.15        75.71244
398.60        75.46091
399.05        75.09729
399.50         74.7219
399.95        74.61362
400.39         74.7239
400.84        74.64381
401.29        74.34994
401.74        74.04969
402.18         73.7839
402.63        73.51968
403.08        73.23472
403.53        72.86686
403.97        72.42066
404.42        71.97456
404.87        71.61849
405.32        71.42467
405.76        71.37988
406.21        71.61861
406.66        71.95625
407.11        71.72794
407.55        71.05679
408.00        70.88019
408.45        71.19621
408.90         71.0405
409.34        70.44569
409.79        70.19746
410.24        70.28377
410.68        70.25775
411.13        70.10904
411.58        70.03345
412.03        70.03362
412.47        70.05672
412.92        70.06833
413.37        70.08012
413.81        70.07285
414.26        70.08567
414.71        70.09766
415.15        70.10895
415.60         70.0741
416.05        69.98447
416.49         69.8446
416.94        69.66333
417.39        69.46729
417.83        69.28156
418.28         69.1239
418.73        68.99168
419.17        68.89267
419.62         68.8458
420.07        68.84467
420.51        68.86922
420.96        68.92521
421.41         68.9506
421.85        68.90336
422.30         68.8938
422.74        68.88297
423.19        68.80184
423.64         68.6909
424.08        68.85052
424.53        69.15951
424.98        69.28678
425.42        69.20638
425.87        69.01627
426.31        68.83313
426.76        68.87378
427.21        69.11984
427.65        69.29062
428.10        69.27622
428.54        69.27991
428.99        69.34383
429.44         69.1493
429.88        68.79693
430.33        69.02714
430.77        69.56808
431.22        69.50185
431.66        68.90949
432.11        68.81465
432.56        69.27102
433.00        69.26293
433.45        68.59833
433.89        68.47578
434.34        69.08971
434.78         68.0791
435.23        68.50152
435.67        69.34426
436.12        69.29562
436.57         69.5288
437.01        69.50644
437.46        69.38435
437.90        69.59996
438.35        69.91275
438.79        69.72904
439.24        69.71027
439.68         69.6596
440.13        69.61022
440.57        69.56007
441.02        69.57101
441.46        69.64893
441.91        69.71203
442.35        69.74007
442.80        70.18021
443.24         70.8524
443.69        71.06707
444.13        70.77741
444.58        70.48416
445.02        70.26762
445.47        70.18811
445.91        70.23301
446.36        70.21709
446.80        70.12401
447.24        70.15525
447.69        70.28459
448.13        70.36437
448.58        70.22206
449.02        70.20675
449.47         70.2666
449.91         70.2743
450.36        70.25021
450.80        70.18296
451.25        70.12241
451.69        70.19982
452.13        70.36005
452.58        70.27225
453.02        69.96226
453.47        69.78464
453.91        69.74896
454.36        69.67376
454.80         69.5184
455.24        69.35953
455.69        69.22734
456.13         68.9642
456.58        68.65147
457.02        68.73502
457.46        68.75945
457.91        68.61147
458.35        68.33676
458.79        68.20404
459.24        68.27927
459.68        68.31644
460.13        68.28931
460.57        68.22818
461.01        68.17841
461.46        67.86599
461.90        67.50475
462.34        67.61241
462.79        67.47226
463.23        67.02726
463.68        67.47837
464.12         67.2819
464.56        66.93668
465.01        67.06309
465.45        67.48218
465.89        67.42766
466.34        66.98466
466.78        66.85571
467.22        67.08633
467.67        66.99373
468.11         66.9241
468.55        66.77698
468.99        66.66174
469.44        66.49586
469.88        66.28653
470.32        66.03143
470.77        65.77718
471.21        65.62126
471.65        65.57472
472.10        65.61015
472.54        65.66993
472.98        65.66418
473.42        65.57129
473.87        65.49312
474.31        65.41097
474.75        65.26071
475.20        65.09438
475.64        65.16174
476.08        65.41351
476.52        65.48181
476.97        65.31224
477.41        65.39792
477.85        65.43985
478.29         65.0695
478.74        64.92236
479.18        64.84933
479.62        65.06008
480.06        65.14852
480.50        65.14436
480.95         65.1503
481.39        65.09072
481.83        65.33427
482.27        65.52213
482.72        65.02349
483.16        65.32517
483.60        65.32381
484.04        65.31141
484.48        65.08967
484.93        65.22535
485.37        65.27997
485.81         65.5672
486.25        64.75625
486.69        66.81239
487.14         67.0826
487.58        66.07891
488.02        65.13528
488.46        65.15179
488.90         65.3446
489.34          64.911
489.79        64.58997
490.23        65.14832
490.67        65.19868
491.11        65.05656
491.55        64.89973
491.99        64.79369
492.43        64.69576
492.88         64.6132
493.32        64.59969
493.76        64.59775
494.20        64.58862
494.64        64.58163
495.08        64.31332
495.52        64.31001
495.96        64.30213
496.41        64.39043
496.85        64.46252
497.29        64.44997
497.73        64.51597
498.17        64.33617
498.61        64.43739
499.05        64.65242
499.49        64.49341
499.93        64.07967
500.37        64.12252
500.82        64.55425
501.26        64.69477
501.70        64.46301
502.14        64.23578
502.58        64.06112
503.02        63.69925
503.46        63.79742
503.90        63.78745
504.34        63.82141
504.78        63.87784
505.22         63.9639
505.66        63.99458
506.10        63.95856
506.54        64.03249
506.98        64.24785
507.42        63.69764
507.86        64.32057
508.30        63.71791
508.74        63.99577
509.18        63.85325
509.62        63.77229
510.06        63.75006
510.50        63.76177
510.94        63.73061
511.38        63.63329
511.82        63.54659
512.26        63.46968
512.70        63.36043
513.14        63.24215
513.58        63.17342
514.02        63.16209
514.46        63.19173
514.90        63.22362
515.34        63.22804
515.78        63.19818
516.22         63.1264
516.66        62.88358
517.10        63.08297
517.54        62.89472
517.98        62.95653
518.42        63.00781
518.86        63.05255
519.30        63.07946
519.74        63.05548
520.18        63.01057
520.62        63.06937
521.06        63.18951
521.50        63.13612
521.93        62.92995
522.37        62.80663
522.81        62.78679
523.25        62.74615
523.69        62.68126
524.13         62.6427
524.57        62.63159
525.01        62.63376
525.45        62.65826
525.89        62.71835
526.32        62.80644
526.76        62.91717
527.20        63.01865
527.64        63.06468
528.08        63.04488
528.52        62.97653
528.96        62.88553
529.40        62.80519
529.83        62.74744
530.27         62.7361
530.71        62.74888
531.15        62.74669
531.59        62.72286
532.03        62.69322
532.46        62.66819
532.90        62.67718
533.34        62.71605
533.78        62.77085
534.22        62.81343
534.66        62.80272
535.09        62.72454
535.53        62.61866
535.97        62.49885
536.41         62.4035
536.85        62.34705
537.28        62.31946
537.72         62.3238
538.16        62.36475
538.60        62.43373
539.04        62.52603
539.47        62.60118
539.91        62.65049
540.35        62.65139
540.79        62.61399
541.22        62.55301
541.66        62.50853
542.10        62.48808
542.54         62.4823
542.97           62.48
543.41        62.49406
543.85        62.51517
544.29        62.55418
544.72        62.58873
545.16        62.61528
545.60        62.61634
546.04        62.58549
546.47        62.55914
546.91        62.58814
547.35        62.66877
547.79        62.82927
548.22        62.96836
548.66        62.87028
549.10        62.58852
549.53        62.41547
549.97        62.39095
550.41        62.32998
550.84        62.24961
551.28        62.26453
551.72         62.3518
552.15        62.43222
552.59        62.50797
553.03         62.3654
553.46        62.59231
553.90        62.32607
554.34        62.47852
554.77         62.4239
555.21        62.40175
555.65        62.40469
556.08        62.42456
556.52        62.44946
556.96        62.46007
557.39        62.51343
557.83        62.59406
558.27          62.559
558.70        62.42994
559.14        62.38102
559.57        62.41348
560.01        62.45269
560.45        62.46672
560.88        62.49588
561.32        62.55442
561.75        62.45891
562.19          62.302
562.63        62.34857
563.06        62.53838
563.50        62.53897
563.93        62.34771
564.37        62.20603
564.80        62.15216
565.24        62.27995
565.68        62.52427
566.11        62.63393
566.55        62.60278
566.98        62.59606
567.42        62.65178
567.85        62.60361
568.29         62.5388
568.72        62.65562
569.16        62.94675
569.60        63.01681
570.03        63.14381
570.47        63.18896
570.90        63.04842
571.34        63.44339
571.77        63.38743
572.21         63.5988
572.64        63.52117
573.08        63.44707
573.51        63.45313
573.95        63.95242
574.38        63.87318
574.82        64.60935
575.25        64.24389
575.69        64.25307
576.12        63.47865
576.56        63.77581
576.99        63.93714
577.42        64.00678
577.86        63.77359
578.29         64.5876
578.73        64.90121
579.16        64.09266
579.60        63.66663
580.03        63.99091
580.47        63.76763
580.90        63.98102
581.33        64.34605
581.77         64.1152
582.20        64.75213
582.64        64.79615
583.07        64.52069
583.51        63.95955
583.94          63.431
584.37        63.47443
584.81        63.15972
585.24        63.36324
585.68        63.97048
586.11         63.9225
586.54        64.29204
586.98        63.73972
587.41        63.45369
587.85        63.94445
588.28        63.83524
588.71         64.1441
589.15        63.60444
589.58        63.50054
590.01        63.14153
590.45        62.99729
590.88        63.06797
591.31        62.74197
591.75        62.78632
592.18        62.80114
592.61        62.97598
593.05        63.50357
593.48        63.46671
593.91        63.89021
594.35        63.93371
594.78        63.86663
595.21         63.3973
595.65        63.28314
596.08        63.45523
596.51        63.68985
596.94        63.36989
597.38        63.30531
597.81        63.38924
598.24        63.26137
598.68        63.05047
599.11        63.16718
599.54        63.50183
599.97        63.22005
600.41        63.51783
600.84         63.5826
601.27        63.56953
601.70        63.38539
602.14        63.20234
602.57          62.998
603.00        62.82258
603.43        63.40562
603.87        63.63305
604.30        63.57804
604.73        63.47334
605.16          63.074
605.60        63.13042
606.03        63.29609
606.46         63.7598
606.89         63.3367
607.32        63.08136
607.76        63.59517
608.19        63.36115
608.62        63.19044
609.05        63.63681
609.48        63.14692
609.92        63.25002
610.35        63.27961
610.78        63.16455
611.21        63.38516
611.64        63.15999
612.07         63.1406
612.50        63.13848
612.94        63.06944
613.37        62.94122
613.80        63.08199
614.23         63.0289
614.66        62.91472
615.09        63.05773
615.52        63.02858
615.96         62.9674
616.39        62.93616
616.82        62.95002
617.25        62.86181
617.68        62.91561
618.11          62.748
618.54         62.6521
618.97        62.56043
619.40         62.5163
619.84        62.57886
620.27        62.44077
620.70        62.49294
621.13        62.61779
621.56        62.63796
621.99        62.55597
622.42        62.78878
622.85        62.78812
623.28        62.98376
623.71        62.77635
624.14        62.92874
624.57        62.83209
625.00        62.96059
625.43        62.64349
625.86        62.65513
626.29        62.84519
626.72        62.53039
627.15        62.54153
627.58        62.39062
628.01        62.37159
628.44        62.03761
628.87         62.1875
629.30        62.08585
629.73        62.07653
630.16        62.19746
630.59        61.92928
631.02        62.27066
631.45        62.14062
631.88        62.25539
632.31        62.34918
632.74         62.1406
633.17        62.26204
633.60        62.15897
634.03        62.03502
634.46        61.94321
634.89        61.82523
635.32        61.78571
635.75        61.78815
636.18        61.88999
636.61         62.0788
637.04        61.97963
637.47        62.14145
637.89        62.13108
638.32         62.0946
638.75        62.01006
639.18         61.8899
639.61        61.73451
640.04        61.58998
640.47        61.54757
640.90        61.62062
641.33        61.78252
641.76        61.97174
642.18        62.08995
642.61        62.09367
643.04        62.01946
643.47        61.90424
643.90        61.81624
644.33         61.7784
644.76        61.75491
645.18        61.74392
645.61        61.76599
646.04        61.80414
646.47        61.80753
646.90        61.77394
647.33        61.75334
647.75          61.743
648.18        61.71687
648.61        61.70705
649.04        61.75623
649.47        61.83376
649.89        62.13486
650.32        61.97504
650.75        62.14174
651.18        62.35184
651.61        62.15058
652.03        61.64305
652.46        61.48947
652.89        61.75624
653.32        61.93207
653.74        61.88985
654.17        62.25715
654.60        61.67173
655.03        61.70452
655.46        61.37589
655.88        62.52705
656.31         63.5848
656.74        68.81026
657.16        67.85686
657.59        66.07906
658.02          63.505
658.45        62.45971
658.87        62.86805
659.30        62.21607
659.73        62.06227
660.15        61.90795
660.58        62.45714
661.01        62.68925
661.44        62.58356
661.86        62.29744
662.29        61.91822
662.72        61.76434
663.14         61.8594
663.57         61.8924
664.00        61.83904
664.42        61.87478
664.85        61.99181
665.27        61.96132
665.70        61.97802
666.13        61.94286
666.55        61.92635
666.98        61.89351
667.41        61.85455
667.83        61.84394
668.26        61.87334
668.69        61.87708
669.11        61.84957
669.54        61.97791
669.96        62.30276
670.39        62.00023
670.82        62.50879
671.24        62.40304
671.67        62.16716
672.09        62.09409
672.52        62.21676
672.94        62.22591
673.37        62.12848
673.80         62.1519
674.22        62.27679
674.65        62.29634
675.07        62.21539
675.50        62.10195
675.92        62.00349
676.35        61.96171
676.77        61.99141
677.20        62.08627
677.62        62.23901
678.05        62.36028
678.47        62.41845
678.90        62.69211
679.32        62.68409
679.75        62.75073
680.17        62.74326
680.60        62.68623
681.02        62.60445
681.45        62.51484
681.87        62.44722
682.30        62.45625
682.72        62.53071
683.15        62.50119
683.57          62.373
684.00        62.46313
684.42        62.43069
684.85         62.4797
685.27        62.49711
685.70        62.54874
686.12        62.60205
686.54        62.62647
686.97        62.61244
687.39        62.57722
687.82        62.54451
688.24         62.5731
688.66        62.62482
689.09        62.83185
689.51        62.71756
689.94        62.78698
690.36        62.88449
690.78        62.91898
691.21        62.89096
691.63        62.81561
692.06        62.74689
692.48        62.79546
692.90        62.93603
693.33        62.99617
693.75          62.972
694.17        62.93798
694.60        62.89656
695.02        62.97701
695.44        62.92626
695.87        62.94439
696.29        62.98094
696.71        63.02226
697.14        63.05481
697.56        63.19952
697.98        63.41903
698.41        63.24376
698.83        63.29874
699.25        63.12062
699.68        62.93589
700.10        62.79655
700.52        62.72932
700.94        62.71097
701.37        62.71797
701.79        62.77111
702.21        62.83958
702.64        62.92776
703.06        63.00725
703.48        63.03923
703.90        63.02161
704.33        62.96233
704.75         62.8908
705.17        62.83867
705.59        62.82085
706.01        62.82544
706.44        62.86602
706.86        62.98005
707.28        63.14915
707.70        63.36009
708.12         63.5641
708.55        63.67752
708.97        63.67752
709.39        63.59436
709.81        63.47264
710.23        63.39911
710.66        63.40466
711.08        63.47731
711.50        63.56913
711.92         63.6205
712.34        63.61607
712.76        63.57428
713.19        63.51691
713.61        63.52524
714.03        63.58871
714.45        63.69714
714.87        63.81654
715.29        63.85336
715.71         63.7863
716.13          63.807
716.56        63.63242
716.98        63.59607
717.40        63.61153
717.82        63.66868
718.24          63.742
718.66        63.79466
719.08        63.81771
719.50        63.82069
719.92        63.81948
720.34        63.83619
720.76        63.87603
721.19        63.92146
721.61        63.97674
722.03        64.02031
722.45        64.04927
722.87        64.07341
723.29        64.10188
723.71        64.14818
724.13        64.21669
724.55        64.29884
724.97        64.39626
725.39        64.51301
725.81        64.64189
726.23        64.77514
726.65        64.88928
727.07         64.9532
727.49        64.96414
727.91        64.92358
728.33        64.85551
728.75        64.83403
729.17        64.85996
729.59        64.84861
730.01        64.82274
730.43        64.87842
730.85        65.01424
731.27        65.17237
731.69        65.31306
732.10        65.32766
732.52        65.40253
732.94        65.16928
733.36        64.79292
733.78        64.60281
734.20        64.65492
734.62        64.79387
735.04        64.93465
735.46        65.01134
735.88        64.99709
736.30        64.88581
736.72         64.7356
737.13        64.75765
737.55        64.90144
737.97        64.91547
738.39        64.82371
738.81        64.90853
739.23        65.15462
739.65        65.31735
740.06        65.32158
740.48        65.33525
740.90        65.32372
741.32        65.21417
741.74        65.05821
742.16        64.98859
742.57        65.04292
742.99        65.17056
743.41        65.31146
743.83        65.34464
744.25        65.24471
744.67        65.04626
745.08        64.84805
745.50        64.77225
745.92        64.86391
746.34        65.07632
746.75        65.31351
747.17        65.41842
747.59        65.36492
748.01        65.18108
748.42        64.96229
748.84         64.9311
749.26        65.09859
749.68        65.21326
750.09         65.2605
750.51        65.44881
750.93        65.71584
751.35        65.81167
751.76        65.73033
752.18        65.63637
752.60         65.5438
753.01        65.37478
753.43        65.14532
753.85        64.98634
754.27        64.92413
754.68         64.9237
755.10        64.98542
755.52        65.08013
755.93        65.18977
756.35        65.33211
756.77        65.48537
757.18         65.5527
757.60        65.50942
758.02        65.47919
758.43        65.55618
758.85        65.24615
759.26        65.63071
759.68        65.87127
760.10         65.4649
760.51        65.35452
760.93        65.88945
761.34        65.64824
761.76        65.88758
762.18        65.91417
762.59         65.9814
763.01        65.97063
763.42         65.1153
763.84        65.19139
764.26        65.59322
764.67        66.02523
765.09        66.27612
765.50         66.5895
765.92        66.87187
766.33        66.68176
766.75        66.09682
767.16        65.74603
767.58        65.69052
768.00        65.75119
768.41        65.91371
768.83         66.0099
769.24        65.95109
769.66        66.27151
770.07        66.08826
770.49        65.92968
770.90        65.64095
771.32         65.6161
771.73        65.83739
772.15        65.93129
772.56        65.90063
772.97        65.96499
773.39        66.09651
773.80        66.20218
774.22        66.23341
774.63        66.22879
775.05        66.17942
775.46        66.13946
775.88        66.10106
776.29         66.0658
776.70        66.02524
777.12        65.99083
777.53        65.98261
777.95        65.99083
778.36        66.01311
778.77        66.03594
779.19        66.06075
779.60        66.10284
780.02        66.16244
780.43        66.28169
780.84         66.4674
781.26          66.613
781.67        66.75346
782.09        67.05656
782.50        67.40845
782.91        67.44506
783.33        67.19624
783.74        67.09472
784.15        67.13609
784.57        67.17905
784.98        67.19525
785.39        67.03118
785.81         66.7762
786.22         66.8475
786.63        67.18079
787.04        67.30479
787.46        67.19736
787.87        67.08958
788.28         67.0501
788.70        67.03332
789.11        67.03362
789.52        67.16333
789.93        67.34908
790.35        67.26934
790.76        66.99668
791.17        66.98946
791.58        67.26764
792.00        67.38873
792.41        67.35297
792.82        67.59451
793.23        68.00961
793.65        67.86527
794.06        67.39542
794.47        67.66653
794.88         68.4412
795.29        69.08524
795.71        68.48344
796.12        68.19548
796.53        68.00072
796.94        67.75331
797.35        67.51167
797.76        67.43771
798.18        67.51601
798.59        67.57539
799.00        67.58771
799.41         67.6269
799.82        67.67677
800.23         67.6862
800.64        67.64996
801.06        67.55415
801.47        67.45999
801.88        67.40207
802.29        67.39642
802.70        67.42937
803.11         67.4971
803.52        67.59037
803.93          67.703
804.34        67.83527
804.75        67.96751
805.17        68.08133
805.58         68.1983
805.99        68.23113
806.40        68.20382
806.81        68.33485
807.22        68.54628
807.63        68.43707
808.04        68.08567
808.45        67.98177
808.86        68.16689
809.27        68.36948
809.68        68.52453
810.09        68.63216
810.50        68.66458
810.91        68.63761
811.32        68.55505
811.73        68.42356
812.14        68.26028
812.55        68.06133
812.96        67.91708
813.37        67.96519
813.78        68.22713
814.19        68.68325
814.60        69.15181
815.01        69.32666
815.42         69.1466
815.83        68.69357
816.24        68.14509
816.65        67.83749
817.05        67.89123
817.46        68.18624
817.87        68.57717
818.28        68.79327
818.69        68.76806
819.10        68.58984
819.51        68.37526
819.92        68.32556
820.33        68.49451
820.74        68.78619
821.14        69.10662
821.55        69.34544
821.96         69.4519
822.37        69.47546
822.78        69.41045
823.19         69.2448
823.60        68.99801
824.00        68.68416
824.41        68.36914
824.82        68.23827
825.23        68.32751
825.64        68.60151
826.04        68.94263
826.45        69.11265
826.86        69.06839
827.27        68.87277
827.68        68.63503
828.08        68.57716
828.49        68.69105
828.90        68.95024
829.31        69.28884
829.72        69.51766
830.12        69.59618
830.53        69.89918
830.94        69.78164
831.35        69.71907
831.75        69.55174
832.16        69.27721
832.57        69.02158
832.97        68.99327
833.38        69.22246
833.79        69.63114
834.20        70.09096
834.60        70.40774
835.01        70.52148
835.42        70.48299
835.82          70.335
836.23        70.10555
836.64        69.85284
837.04        69.59441
837.45        69.34637
837.86        69.19473
838.26        69.17168
838.67        69.24795
839.08        69.42624
839.48        69.68407
839.89        69.98404
840.29        70.31752
840.70        70.61768
841.11        70.78092
841.51        70.80064
841.92          70.668
842.33        70.46579
842.73        70.33849
843.14        70.28923
843.54        70.31977
843.95        70.39855
844.35        70.49224
844.76        70.57385
845.17        70.66253
845.57        70.76264
845.98        70.83926
846.38        70.91411
846.79        70.96143
847.19        71.01132
847.60        71.03979
848.00        71.08013
848.41        71.09673
848.81        71.14224
849.22        71.22882
849.62        71.38918
850.03        71.57028
850.43        71.74744
850.84        71.77385
851.24         71.6793
851.65        71.44307
852.05        71.18824
852.46        71.03349
852.86        71.02414
853.27         71.1515
853.67         71.2862
854.07        71.39365
854.48         71.4211
854.88        71.41604
855.29         71.3461
855.69        71.32628
856.10        71.28635
856.50        71.29066
856.90         71.2656
857.31        71.14583
857.71        70.98207
858.12        70.74263
858.52        70.50612
858.92        70.32612
859.33        70.20544
859.73        70.18349
860.13        70.19687
860.54        70.13648
860.94        70.04552
861.34        69.91779
861.75        69.79723
862.15        69.83952
862.55        70.02635
862.96        70.27855
863.36        70.54109
863.76        70.67564
864.17        70.63591
864.57        70.49914
864.97        70.24821
865.38        69.84259
865.78        69.35422
866.18        68.79301
866.58        68.34439
866.99        68.31302
867.39        68.78282
867.79        69.60681
868.19        70.51151
868.60        71.04124
869.00        71.17007
869.40         71.1604
869.80        71.02575
870.21        70.64674
870.61         70.1474
871.01        69.62167
871.41        69.15409
871.81        68.78219
872.22        68.53426
872.62        68.42194
873.02        68.45562
873.42        68.77788
873.82        69.18639
874.22        69.20973
874.63        68.99189
875.03        68.86334
875.43        68.86104
875.83         69.6543
876.23         68.9375
876.63        68.14827
877.03        67.08983
877.44         65.2204
877.84        161.8199
878.24        66.37122
878.64        67.25916
879.04        68.81388
879.44        69.45578
879.84        66.69708
880.24        71.05318
880.64        71.15427
881.04        68.96828
881.44        67.30834
881.84         66.7061
882.24        67.24749
882.65         68.3044
883.05        68.53288
883.45        67.66534
883.85        66.51346
884.25        65.57285
884.65        65.26273
885.05        65.71225
885.45        66.67925
885.85        67.76295
886.25         68.4188
886.65        68.50677
887.05        68.20515
887.45        67.67158
887.85        67.16997
888.25        66.82846
888.65        66.57351
889.04        66.45746
889.44        66.57809
889.84        66.91372
890.24        67.42004
890.64        67.96812
891.04        68.35704
891.44        68.53522
891.84        68.55546
892.24        68.42015
892.64        68.15697
893.04        67.81133
893.44        67.38761
893.83        67.03523
894.23        66.94527
894.63        67.16244
895.03        67.65994
895.43         68.2509
895.83        68.60593
896.23        68.64508
896.63        68.44181
897.02        68.20061
897.42        68.30352
897.82        68.77306
898.22        69.47317
898.62        70.13855
899.01        70.35437
899.41        70.00719
899.81        69.26949
900.21        68.37864
900.61        67.72079
901.00        67.41579
901.40        67.41426
901.80        67.63384
902.20        67.82065
902.59          67.884
902.99        68.12126
903.39        68.60802
903.79        67.98298
904.18        68.57445
904.58        68.49807
904.98        68.38657
905.38         68.1005
905.77        67.65266
906.17        67.12477
906.57        66.65067
906.96         66.5427
907.36         66.8541
907.76        67.49399
908.15        68.31677
908.55        68.92088
908.95          69.225
909.34        69.27084
909.74         69.1628
910.14        69.04564
910.53        68.97527
910.93        68.89773
911.33          68.766
911.72        68.50878
912.12        68.13499
912.52        67.70377
912.91        67.28628
913.31        67.06118
913.70        67.03872
914.10          67.161
914.49        67.37225
914.89        67.49078
915.29         67.4921
915.68        67.41149
916.08        67.30834
916.47        67.22995
916.87        67.23291
917.26        67.29546
917.66        67.42043
918.05        67.63732
918.45         67.9138
918.84        68.23387
919.24        68.56731
919.64        68.92073
920.03        69.27961
920.42         69.6256
920.82        69.84462
921.21        69.78272
921.61        69.45148
922.00        68.95177
922.40        68.55185
922.79        68.55984
923.19        68.70495
923.58        69.64986
923.98        71.42303
924.37        71.54333
924.77        68.74549
925.16        75.02578
925.55        68.93311
925.95        68.93583
926.34        68.91169
926.74         68.5886
927.13        67.83522
927.52        67.47477
927.92        67.83655
928.31        68.40899
928.70        69.07679
929.10        69.60107
929.49        69.94102
929.89        70.15748
930.28        70.21445
930.67         69.9637
931.07        69.43181
931.46        68.57878
931.85        67.70572
932.24        67.71402
932.64        68.72527
933.03        69.96738
933.42        70.67471
933.82        72.69534
934.21        71.19976
934.60        69.99188
934.99        68.79948
935.39        68.61148
935.78        69.45496
936.17        71.57323
936.56        77.41304
936.96        71.60818
937.35         74.9282
937.74        72.08652
938.13        69.90573
938.53         68.0185
938.92        67.10779
939.31        67.66025
939.70        68.71439
940.09        69.31244
940.49        69.19984
940.88        68.75597
941.27        68.21551
941.66         67.9827
942.05         68.2099
942.44        68.67619
942.84        69.16951
943.23        69.51797
943.62        69.64294
944.01        69.59483
944.40         69.5137
944.79        69.61845
945.18         69.9461
945.57        70.42122
945.97        70.78404
946.36        70.74316
946.75        70.20815
947.14         69.2972
947.53        68.32798
947.92        67.84765
948.31        68.00259
948.70        68.61471
949.09        69.37508
949.48         69.8037
949.87        69.76879
950.26        69.41879
950.65        68.91315
951.04        68.50903
951.43        68.30655
951.82         68.2272
952.21        68.23171
952.60        68.27018
952.99        68.31257
953.38          68.378
953.77        68.48286
954.16        68.63627
954.55        68.83213
954.94        69.06219
955.33        69.23577
955.72        69.20681
956.11        68.94598
956.50        68.49114
956.89        68.02001
957.28        67.81134
957.66        67.96738
958.05        68.36662
958.44        68.81233
958.83        68.98456
959.22        68.80534
959.61         68.3236
960.00        67.78341
960.39        67.64442
960.78        68.01531
961.16        68.76855
961.55         69.4479
961.94        69.53055
962.33         68.9262
962.72        67.75871
963.11        66.44742
963.49        65.86633
963.88        66.28735
964.27         67.4285
964.66        68.70185
965.04        69.29774
965.43        69.00853
965.82        68.13168
966.21        67.08531
966.60        66.60491
966.98        66.91764
967.37         67.7563
967.76        68.80959
968.15        69.58072
968.53        69.91456
968.92        69.94409
969.31        69.77065
969.69        69.54144
970.08         69.2986
970.47        68.97189
970.86        68.64362
971.24        68.49066
971.63        68.52538
972.02         68.7346
972.40        68.96514
972.79        68.86916
973.17        68.44865
973.56        67.81773
973.95        67.19257
974.33        66.95975
974.72        67.22603
975.11        67.83521
975.49         68.7311
975.88         69.7457
976.26        70.81967
976.65        71.86878
977.04        72.69692
977.42        72.99446
977.81        72.67919
978.19        71.79471
978.58        70.77919
978.96        70.41208
979.35        70.88963
979.74        71.93812
980.12         73.1235
980.51        73.71096
980.89        73.70251
981.28        73.22929
981.66         72.5073
982.05        72.09375
982.43        72.17765
982.82        72.58703
983.20        73.10625
983.59        73.37925
983.97        73.35211
984.35        73.11332
984.74            72.7
985.12        72.26699
985.51        71.86971
985.89        71.56284
986.28        71.33784
986.66          71.232
987.04        71.28511
987.43        71.38654
987.81         71.3791
988.20        72.27782
988.58        74.15931
988.96         74.6151
989.35         72.9289
989.73        77.97047
990.12        74.54604
990.50        74.32523
990.88        73.42333
991.27        72.81921
991.65        72.60036
992.03        72.85279
992.42        73.40073
992.80        73.39051
993.18        72.64956
993.56        71.45747
993.95        70.23319
994.33        69.61666
994.71        69.79176
995.10         70.5136
995.48        71.51192
995.86        72.33473
996.24        72.80505
996.63        72.98787
997.01        73.03548
997.39        72.98106
997.77        72.86764
998.15        72.66858
998.54        72.48219
998.92        72.38404
999.30        72.45188
999.68        72.71497
1000.06        73.13695
1000.45        73.55065
1000.83         73.9702
1001.21        74.37267
1001.59        74.77891
1001.97        75.24021
1002.35         75.7372
1002.73        76.19582
1003.12        76.58812
1003.50        76.94872
1003.88        77.27655
1004.26        77.60029
1004.64        77.84563
1005.02        77.85239
1005.40        77.56075
1005.78        76.98099
1006.16        76.32083
1006.54        75.91368
1006.92        75.86648
1007.30        76.18086
1007.69        76.52913
1008.07        76.49606
1008.45         75.9906
1008.83        75.10474
1009.21        74.38326
1009.59        74.90056
1009.97        76.71682
1010.35        79.12475
1010.73        81.29751
1011.11        82.60694
1011.49        83.09558
1011.86        82.77949
1012.24        81.54325
1012.62        81.94136
1013.00        81.90144
1013.38        81.15582
1013.76        78.53337
1014.14        81.90002
1014.52        87.42297
1014.90        80.66516
1015.28        82.12338
1015.66        83.68523
1016.04         80.8131
1016.41        81.21255
1016.79         80.4572
1017.17        79.78658
1017.55        78.72458
1017.93         77.5161
1018.31        76.84725
1018.69        77.33316
1019.06        79.05767
1019.44        81.57372
1019.82        83.94376
1020.20          84.973
1020.58         84.4388
1020.95        82.41619
1021.33        79.37141
1021.71        77.15903
1022.09        77.03458
1022.46        78.32407
1022.84        80.05907
1023.22        81.53835
1023.60         82.7099
1023.97        83.87696
1024.35        84.96426
1024.73        85.64003
