SpectraSmart Spectrum 2.9.0.0
--------- Device Information -----------
Spectrum Name :  反射率_0
Saving Time :  2024/04/21 00:54:14
Spectro-Module Model Name : SE2030-DUVN
Spectro-Module Serial Number : OS361AC55029948
Wavelength Start : 200
Wavelength End : 1025
Wavelength Unit : Wavelength(nm)
Spectrum Unit : Reflectance(%)
-----------Spectrum Setting ------------
Integration Time : 20ms
Average : 10
Boxcar : 0
Background removal :  enabled
linearity correction :  enabled
SC :  disabled
Intensity correction :  disabled
DWT denoise :  enabled
savitzky-golay :  disabled
FFT :  disabled
Running average :  disabled
Kalman :  disabled
High pass :  disabled
---------------BEGIN--------------------
Wavelength(nm)             Reflectance(%)
200.29               0
200.75       -37.75659
201.21       -2.478427
201.67         14.8782
202.13        20.87962
202.58        20.44857
203.04        15.74202
203.50        8.251622
203.96        2.568459
204.42         1.04136
204.88        1.738434
205.34        2.933672
205.80        1.578101
206.26       -3.186646
206.72       -8.447539
207.18       -15.49615
207.64       -27.30387
208.10       -41.31617
208.55       -56.27981
209.01       -55.24757
209.47       -24.18341
209.93        10.81117
210.39        36.62427
210.85         52.3829
211.31        59.32006
211.77        60.23569
212.23        56.28634
212.69        44.90964
213.14        22.35424
213.60       -20.53179
214.06       -145.3864
214.52       -425.6535
214.98       -167.2047
215.44       -16.22337
215.90        33.68185
216.36        50.15149
216.81        52.13229
217.27        42.74875
217.73       -8.339986
218.19        613.6507
218.65        284.7882
219.11       -507.5089
219.57        13.53371
220.02        46.33559
220.48        51.31305
220.94        46.30904
221.40        29.43769
221.86       -10.26181
222.32       -35.69093
222.77       0.2145509
223.23        31.69474
223.69        47.50355
224.15        52.62846
224.61        52.20604
225.06         49.1356
225.52        44.82731
225.98        41.08484
226.44        38.84698
226.90        36.87409
227.36        36.72194
227.81        40.54145
228.27        46.03209
228.73        51.17493
229.19        54.12265
229.65        53.66033
230.10        50.16626
230.56        44.56662
231.02        37.60846
231.48        32.75424
231.93        32.75402
232.39        36.48916
232.85         41.2785
233.31        44.90602
233.77        47.49995
234.22        50.13153
234.68        52.59711
235.14        54.30785
235.60        55.21983
236.05        54.88319
236.51        53.94258
236.97        57.28119
237.43        65.18578
237.88        71.65913
238.34        74.60345
238.80        85.31168
239.26        81.62906
239.71        79.13813
240.17        72.41598
240.63         65.8662
241.08        63.44788
241.54        67.03434
242.00        75.31242
242.46        79.97031
242.91        78.50836
243.37        70.79568
243.83        58.60463
244.28        50.71282
244.74        52.73216
245.20        60.21104
245.66        67.37162
246.11        68.46097
246.57        62.85645
247.03        52.85179
247.48        39.84584
247.94        25.97292
248.40        9.380093
248.85       -25.21816
249.31       -117.0562
249.77       -145.8525
250.22        10.38425
250.68        63.15459
251.14         77.6094
251.59         80.9426
252.05        80.34876
252.51        76.69327
252.96        70.55891
253.42        66.94977
253.88        69.63945
254.33        76.44283
254.79        85.06174
255.25        91.57793
255.70        95.14992
256.16        97.53583
256.62        99.07899
257.07        100.1153
257.53         101.298
257.99        101.8999
258.44        101.4141
258.90        100.4265
259.35        98.43073
259.81        96.49133
260.27        94.37052
260.72        91.97855
261.18        90.03613
261.63        88.06194
262.09        86.65459
262.55        85.68039
263.00        84.84756
263.46        84.32747
263.91        83.58833
264.37        82.60011
264.83        81.24956
265.28        79.61143
265.74        78.02772
266.19        76.54948
266.65        75.31014
267.11        74.14873
267.56        72.97995
268.02        71.82352
268.47        70.58947
268.93        69.34994
269.38         68.0229
269.84        66.56481
270.30        64.97777
270.75        63.30759
271.21        61.69607
271.66        60.27007
272.12        59.10922
272.57        58.11673
273.03         57.2958
273.48        56.54662
273.94        55.86106
274.39        55.19324
274.85        54.49644
275.31        53.59815
275.76        52.47631
276.22        51.24854
276.67        50.03113
277.13        49.13676
277.58        48.53038
278.04        48.17203
278.49        47.83088
278.95        47.32659
279.40        46.55126
279.86        45.64824
280.31        44.67202
280.77        43.84433
281.22         43.1539
281.68         42.6126
282.13         42.1012
282.59        41.57388
283.04         40.9763
283.50        40.38943
283.95        39.86343
284.41        39.53341
284.86        39.39098
285.32        39.41407
285.77        39.48191
286.22        39.47328
286.68        39.37759
287.13         39.1761
287.59        38.99456
288.04        38.89791
288.50        38.89735
288.95        39.04002
289.41        39.27551
289.86        39.10676
290.32        38.48039
290.77        38.99282
291.22         38.1461
291.68        38.21278
292.13        38.45995
292.59        38.93188
293.04        39.58406
293.50        40.41426
293.95        41.40956
294.40        42.54795
294.86        43.79382
295.31        45.07576
295.77         46.3726
296.22        47.67244
296.68        48.99675
297.13        50.37006
297.58        51.81871
298.04        53.33007
298.49        54.90746
298.95        56.58431
299.40         58.3267
299.85        60.12544
300.31        61.91528
300.76        63.55736
301.21        65.04773
301.67          66.459
302.12         67.8491
302.58        69.43719
303.03        71.22226
303.48        73.19158
303.94        75.26929
304.39        77.26899
304.84        79.15044
305.30        80.97533
305.75        82.73626
306.20         84.5517
306.66         86.4435
307.11        88.30479
307.57        90.11479
308.02        91.74914
308.47        93.21957
308.93        94.60066
309.38        95.88293
309.83        97.14484
310.29        98.42799
310.74        99.67218
311.19         100.895
311.65         102.101
312.10        103.2636
312.55        104.3905
313.00        105.4483
313.46        106.3861
313.91        107.1786
314.36        107.8536
314.82         108.464
315.27        109.0811
315.72        109.7381
316.18        110.4171
316.63        111.0896
317.08        111.7103
317.53        112.2573
317.99        112.7347
318.44        113.1564
318.89        113.5285
319.35        113.8538
319.80        114.1441
320.25        114.3857
320.70         114.565
321.16         114.681
321.61        114.7645
322.06        114.8634
322.51        115.0603
322.97        115.3534
323.42        115.7574
323.87        116.1878
324.32        116.5217
324.78        116.7041
325.23        116.8072
325.68        116.8756
326.13        117.0227
326.59          117.25
327.04        117.5768
327.49         117.926
327.94        118.2102
328.39        118.4026
328.85        118.5009
329.30         118.609
329.75        118.7461
330.20        118.9368
330.66        119.1356
331.11        119.4078
331.56        119.7088
332.01        120.0346
332.46        120.3878
332.92        120.7332
333.37        121.1683
333.82        121.6409
334.27        122.1397
334.72        122.6258
335.17        123.0426
335.63        123.3432
336.08        123.6055
336.53         123.848
336.98        124.1605
337.43        124.5632
337.88        125.0291
338.34        125.4832
338.79        125.8636
339.24        126.1271
339.69        126.3224
340.14         126.495
340.59        126.7158
341.05        127.0136
341.50        127.3686
341.95        127.7997
342.40        128.3435
342.85        128.9792
343.30        129.6753
343.75        130.3245
344.20         130.764
344.66        130.9656
345.11         130.955
345.56        130.8298
346.01        130.7511
346.46        130.7852
346.91        130.8786
347.36        130.9774
347.81        131.0912
348.26        131.2193
348.72        131.0121
349.17        131.1713
349.62        131.2627
350.07        131.4898
350.52         131.793
350.97        132.0555
351.42        132.0846
351.87        131.8302
352.32         131.352
352.77        130.7862
353.22          130.34
353.67         130.064
354.13        129.9225
354.58        129.7665
355.03        129.4133
355.48        128.8265
355.93        128.0724
356.38        127.3004
356.83        126.7299
357.28        126.3899
357.73        126.1948
358.18        125.9704
358.63        125.4466
359.08        124.5714
359.53        123.4511
359.98        122.2499
360.43        121.2114
360.88        120.3979
361.33        119.7295
361.78        119.1238
362.23        118.4518
362.68        117.6726
363.13        116.8374
363.58        115.9609
364.03         115.058
364.48        114.1397
364.93        113.1916
365.38        112.2435
365.83        111.3547
366.28         110.537
366.73         109.778
367.18        109.0404
367.63        108.2591
368.08        107.4228
368.53        106.5612
368.98        105.6929
369.43        104.8363
369.88        103.9931
370.33        103.1454
370.78        102.3122
371.23        101.5464
371.68        100.8638
372.13        100.2537
372.58        99.67394
373.03        99.04024
373.48        98.32761
373.93        97.56483
374.38        96.78095
374.83        96.03535
375.28        95.36304
375.72        94.73358
376.17        94.19017
376.62        93.71249
377.07         93.2714
377.52        92.83999
377.97         92.3898
378.42        91.89011
378.87        91.34084
379.32        90.76754
379.77        90.15071
380.22         89.4443
380.67        88.64603
381.11        87.77929
381.56        86.92858
382.01        86.26584
382.46        85.84246
382.91        85.61396
383.36        85.46745
383.81        85.22134
384.26        84.82109
384.71        84.30897
385.15        83.74079
385.60        83.27535
386.05        82.91965
386.50        82.62964
386.95        82.33624
387.40        81.94669
387.85        81.45776
388.29          80.869
388.74         80.3576
389.19        79.95307
389.64        79.65282
390.09        79.41154
390.54        79.18178
390.98        78.87703
391.43         78.5342
391.88        78.18596
392.33        77.84568
392.78        77.54884
393.23        77.30846
393.67         77.0046
394.12        76.77106
394.57        76.76348
395.02        76.90427
395.47         76.8421
395.91        76.55872
396.36        76.29118
396.81        76.07361
397.26        75.78564
397.71        75.42561
398.15        75.08978
398.60        74.88419
399.05        74.52647
399.50        74.15434
399.95        74.38372
400.39        75.01669
400.84        74.99947
401.29        74.32031
401.74        73.75975
402.18        73.44743
402.63        73.14977
403.08        72.86064
403.53        72.54751
403.97        72.22371
404.42        72.04183
404.87        71.96433
405.32        71.87259
405.76         71.7396
406.21        71.55121
406.66        71.34388
407.11        71.30849
407.55        71.39393
408.00        71.26926
408.45        70.95747
408.90        70.58786
409.34        70.28794
409.79        70.37367
410.24        70.71118
410.68        70.76781
411.13        70.50377
411.58        70.22131
412.03        69.99764
412.47         69.8493
412.92        69.78751
413.37        69.81844
413.81        69.88966
414.26        69.97707
414.71        70.04164
415.15        70.10719
415.60        70.12453
416.05        70.07349
416.49        69.95592
416.94         69.7719
417.39        69.56431
417.83        69.39204
418.28         69.2756
418.73        69.20063
419.17        69.14807
419.62        69.09126
420.07        69.01864
420.51        68.93426
420.96        68.86773
421.41        68.79628
421.85        68.68762
422.30        68.62753
422.74        68.58598
423.19        68.51401
423.64        68.44569
424.08        68.66867
424.53        69.00931
424.98        69.07575
425.42        68.83784
425.87        68.38201
426.31        67.93576
426.76        67.95266
427.21        68.40314
427.65        68.77522
428.10         68.8896
428.54        68.96803
428.99        69.01199
429.44        68.78478
429.88        68.38007
430.33        68.24579
430.77        68.30862
431.22         68.3425
431.66        68.30469
432.11        68.34255
432.56        68.47567
433.00        68.46995
433.45        68.16651
433.89        68.15076
434.34        68.54267
434.78        67.83492
435.23        67.70279
435.67         68.7757
436.12        68.25726
436.57        68.48273
437.01        68.50351
437.46        68.42799
437.90        69.00082
438.35        68.43295
438.79        68.83191
439.24        68.71014
439.68        68.62854
440.13         68.6305
440.57        68.66768
441.02        68.51318
441.46         68.2364
441.91        68.22223
442.35        68.36808
442.80        68.80753
443.24        69.38955
443.69        69.38953
444.13        68.79884
444.58        69.20341
445.02        68.97029
445.47        69.13076
445.91         69.1395
446.36        69.13383
446.80        69.09211
447.24        68.95156
447.69         68.8066
448.13        68.96667
448.58        69.19182
449.02        69.26936
449.47        69.13916
449.91         69.0855
450.36        69.12901
450.80        69.01225
451.25        68.80323
451.69        68.77888
452.13        68.90078
452.58        68.80964
453.02        68.51997
453.47        68.35836
453.91        68.32367
454.36        68.25668
454.80        68.14863
455.24        68.01852
455.69        67.87565
456.13        67.76932
456.58        67.77432
457.02        67.47368
457.46        67.60815
457.91        67.55035
458.35        67.58644
458.79        67.50902
459.24        67.37845
459.68        67.19286
460.13        67.02444
460.57          66.852
461.01        66.70768
461.46        66.50803
461.90        66.74866
462.34        66.15891
462.79        66.56437
463.23        66.34711
463.68        66.71511
464.12        66.34927
464.56        65.67278
465.01        65.76057
465.45        66.34797
465.89        66.34164
466.34         65.8334
466.78        65.59526
467.22        65.65639
467.67        65.94479
468.11        65.67776
468.55        65.57211
468.99        65.41994
469.44        65.28421
469.88        65.16795
470.32        65.00598
470.77        64.82928
471.21        64.71194
471.65        64.66324
472.10        64.66572
472.54        64.66654
472.98        64.61739
473.42        64.51846
473.87        64.35981
474.31        64.15739
474.75        64.15564
475.20        64.33418
475.64        64.21796
476.08        64.24315
476.52         64.2125
476.97        64.21732
477.41        64.27757
477.85        64.36871
478.29        64.16386
478.74        63.73524
479.18        64.06704
479.62        63.90947
480.06        64.00928
480.50          63.997
480.95        64.01221
481.39        64.00436
481.83        64.22102
482.27        64.19752
482.72        64.10033
483.16        64.37943
483.60        64.02325
484.04        64.66537
484.48        64.22565
484.93         63.8289
485.37        64.28843
485.81        64.45987
486.25        63.76592
486.69        64.55582
487.14         64.6768
487.58        64.38602
488.02        63.87001
488.46        63.79642
488.90        63.97416
489.34        63.59591
489.79        63.05378
490.23        63.74822
490.67        63.72903
491.11         63.5273
491.55        63.47428
491.99        63.60545
492.43        63.67701
492.88        63.66488
493.32        63.70534
493.76        63.73953
494.20        63.74553
494.64        63.74354
495.08        63.41389
495.52        63.32037
495.96        63.34239
496.41        63.53954
496.85        63.52868
497.29        63.29675
497.73        63.27652
498.17        63.16634
498.61        63.39373
499.05        63.70631
499.49        63.49401
499.93        62.90892
500.37        62.73588
500.82         62.9772
501.26        63.24773
501.70        63.42719
502.14        63.08043
502.58        62.81442
503.02        62.67628
503.46        62.79486
503.90        62.91754
504.34        62.96646
504.78        62.99478
505.22         62.9897
505.66        62.89935
506.10        62.76495
506.54        62.76243
506.98        62.92379
507.42        62.78883
507.86        63.11866
508.30        63.06321
508.74        63.04743
509.18         62.9007
509.62        62.74126
510.06        62.67727
510.50        62.70807
510.94          62.737
511.38         62.7308
511.82        62.71453
512.26        62.67543
512.70        62.58026
513.14        62.46225
513.58        62.40823
514.02         62.4342
514.46        62.49338
514.90        62.51503
515.34        62.56409
515.78        62.40549
516.22        62.22434
516.66        61.87825
517.10        62.08062
517.54        61.98998
517.98        62.23243
518.42        62.47372
518.86        62.60144
519.30        62.57767
519.74        62.41061
520.18        62.18504
520.62         62.1089
521.06        62.16818
521.50        62.10612
521.93        61.93237
522.37        61.86085
522.81        61.89861
523.25        61.92853
523.69        61.92847
524.13        61.91703
524.57        61.88867
525.01        61.83327
525.45        61.77869
525.89        61.77245
526.32        61.81899
526.76        61.90899
527.20        62.00045
527.64        62.02845
528.08        61.98066
528.52        61.88353
528.96        61.77901
529.40        61.72368
529.83        61.73015
530.27        61.80722
530.71        61.91117
531.15        61.97112
531.59        61.96986
532.03        61.93179
532.46        61.87467
532.90        61.84089
533.34        61.83493
533.78        61.84284
534.22        61.84508
534.66        61.81268
535.09        61.73468
535.53         61.6498
535.97        61.56509
536.41         61.5061
536.85        61.48172
537.28        61.48152
537.72        61.51031
538.16        61.57673
538.60        61.67163
539.04        61.78749
539.47        61.87551
539.91        61.91577
540.35        61.88493
540.79        61.79567
541.22        61.67896
541.66        61.60142
542.10        61.57581
542.54        61.58588
542.97        61.60018
543.41        61.60022
543.85         61.5751
544.29        61.54636
544.72        61.51533
545.16         61.5382
545.60        61.61091
546.04        61.64005
546.47        61.64432
546.91        61.82178
547.35         62.0818
547.79        62.06311
548.22         61.7799
548.66        61.57757
549.10        61.50528
549.53        61.44502
549.97        61.40753
550.41        61.38944
550.84        61.38166
551.28        61.44116
551.72         61.5417
552.15        61.55002
552.59        61.45618
553.03        61.50858
553.46        61.34566
553.90        61.32996
554.34         61.3427
554.77        61.41562
555.21        61.55287
555.65        61.52731
556.08        61.67705
556.52        61.73237
556.96        61.77813
557.39        61.80762
557.83        61.82041
558.27        61.74357
558.70        61.61366
559.14         61.5387
559.57        61.51629
560.01        61.61532
560.45        61.74565
560.88        61.60934
561.32        61.32779
561.75        61.24701
562.19         61.4075
562.63        61.57627
563.06        61.67112
563.50        61.64272
563.93         61.4899
564.37        61.33416
564.80        61.21427
565.24        61.24602
565.68        61.40471
566.11        61.49783
566.55         61.5246
566.98         61.6486
567.42        61.83205
567.85        61.74697
568.29        61.57586
568.72        61.49916
569.16        61.58076
569.60        61.77275
570.03         61.6267
570.47         61.7488
570.90        61.98478
571.34        61.82484
571.77        62.38286
572.21        62.18351
572.64        62.18406
573.08        62.12983
573.51        62.06467
573.95        62.40105
574.38        62.54415
574.82        62.97454
575.25        62.52752
575.69        62.48639
576.12        61.94505
576.56         62.1948
576.99        62.54787
577.42         62.2593
577.86        62.54948
578.29        62.78763
578.73        63.19666
579.16        62.68873
579.60        62.41334
580.03        62.58251
580.47          62.303
580.90        62.43258
581.33        62.56356
581.77        62.68637
582.20        63.13065
582.64        63.43459
583.07        62.82008
583.51        62.51806
583.94        62.54516
584.37         62.3252
584.81        62.09393
585.24        62.07304
585.68        62.71219
586.11        62.29306
586.54        62.55819
586.98        62.29573
587.41        62.05336
587.85        62.20777
588.28        62.55155
588.71        62.69369
589.15        62.53462
589.58        62.15316
590.01        61.90284
590.45         62.0372
590.88        62.04028
591.31        61.75077
591.75        61.70643
592.18        61.67884
592.61        61.87487
593.05        62.04814
593.48        62.47757
593.91        62.34686
594.35         62.3517
594.78        62.24583
595.21        61.78625
595.65        61.82731
596.08         62.1479
596.51         62.2218
596.94        61.93386
597.38        61.84128
597.81        61.96275
598.24        62.05251
598.68         61.9963
599.11        61.99175
599.54        62.01559
599.97         62.0773
600.41        62.15916
600.84        62.23011
601.27        62.38169
601.70        62.17875
602.14        61.98624
602.57        61.86761
603.00        61.96108
603.43        61.97844
603.87        62.40443
604.30        62.26484
604.73        62.22596
605.16        61.95359
605.60        62.30766
606.03        62.33793
606.46        62.23703
606.89        62.14928
607.32        61.64981
607.76        62.41254
608.19        61.94915
608.62        62.07761
609.05        62.56809
609.48        62.17191
609.92        62.26074
610.35         62.1389
610.78         62.0052
611.21        61.99568
611.64        61.87728
612.07        61.90581
612.50        62.03647
612.94        61.97914
613.37        61.67765
613.80        62.31044
614.23         61.9833
614.66        61.83698
615.09        61.46385
615.52        61.44524
615.96        61.73418
616.39        61.78935
616.82        61.60182
617.25        61.53827
617.68        61.49554
618.11        61.47178
618.54        61.59401
618.97        61.54283
619.40        61.35244
619.84        61.50634
620.27        61.42307
620.70        61.45887
621.13        61.43903
621.56        61.42848
621.99        61.50121
622.42        61.54882
622.85        61.59718
623.28        61.58147
623.71        61.49822
624.14        61.81342
624.57        61.44014
625.00        61.57016
625.43        61.26256
625.86        61.34102
626.29        61.64283
626.72        61.19033
627.15        61.39305
627.58        61.31615
628.01        61.45933
628.44        61.14959
628.87        61.11577
629.30         61.5317
629.73        61.42194
630.16        61.23235
630.59        61.15757
631.02        61.34589
631.45        61.08897
631.88        61.13818
632.31        61.26727
632.74        61.15523
633.17         61.3862
633.60        61.37899
634.03         61.3107
634.46        61.24155
634.89        61.11664
635.32        61.04632
635.75        61.00305
636.18        61.04321
636.61        61.15852
637.04        61.00936
637.47        61.10776
637.89         61.0522
638.32        60.99842
638.75        60.94878
639.18        60.91249
639.61        60.90605
640.04        60.91845
640.47        60.88685
640.90        60.83651
641.33        60.90537
641.76        61.06694
642.18        61.15811
642.61        61.14876
643.04        61.13428
643.47        61.12452
643.90        61.10248
644.33        61.07535
644.76         61.0359
645.18        60.99622
645.61        60.99635
646.04        61.02756
646.47        61.02975
646.90        61.00323
647.33        60.99783
647.75        61.00497
648.18        61.01748
648.61         61.0562
649.04        61.07611
649.47         61.0558
649.89        61.36513
650.32        61.30805
650.75        61.35054
651.18        61.27729
651.61        61.15731
652.03        61.04653
652.46        60.86126
652.89        60.68464
653.32        60.84404
653.74        61.31097
654.17        61.04345
654.60        61.21411
655.03        60.87612
655.46        60.91351
655.88        61.41682
656.31        62.17484
656.74         66.4967
657.16        64.96445
657.59        63.49486
658.02        61.85959
658.45        61.39904
658.87         61.5687
659.30        61.46553
659.73         60.9133
660.15        60.64018
660.58        61.24573
661.01        61.61893
661.44        61.76789
661.86        61.66702
662.29        61.36954
662.72        60.99013
663.14         60.8342
663.57         60.8172
664.00        60.95179
664.42        61.01128
664.85        60.98273
665.27        60.90467
665.70        60.98027
666.13        60.99148
666.55        61.00064
666.98        61.01355
667.41        61.01715
667.83         61.0005
668.26        60.97468
668.69        60.88802
669.11         60.7696
669.54        60.87613
669.96        61.25902
670.39        61.04252
670.82        61.62482
671.24         61.6445
671.67        61.52364
672.09        61.41816
672.52        61.37085
672.94        61.19044
673.37        60.93122
673.80        60.83808
674.22        60.92116
674.65         60.9696
675.07        60.98794
675.50        61.07471
675.92        61.21011
676.35        61.29124
676.77        61.30167
677.20        61.27999
677.62        61.26255
678.05         61.2322
678.47        61.18731
678.90        61.39404
679.32        61.34729
679.75        61.43173
680.17        61.48975
680.60        61.53811
681.02        61.56466
681.45        61.54683
681.87        61.49173
682.30        61.40496
682.72        61.32433
683.15        61.24971
683.57        61.18396
684.00        61.29078
684.42         61.2086
684.85        61.24501
685.27        61.28077
685.70        61.32819
686.12        61.35817
686.54        61.37036
686.97        61.35793
687.39        61.32975
687.82        61.31063
688.24        61.36154
688.66        61.45256
689.09        61.71661
689.51        61.65062
689.94        61.80202
690.36        61.78868
690.78        61.72997
691.21        61.59386
691.63        61.44636
692.06        61.35881
692.48        61.43347
692.90        61.62549
693.33        61.73641
693.75        61.74855
694.17        61.70808
694.60        61.64591
695.02        61.78039
695.44        61.83073
695.87        61.90001
696.29        61.91419
696.71        61.78778
697.14        61.59614
697.56         61.7889
697.98        62.28217
698.41        62.23404
698.83        62.23845
699.25        62.05714
699.68        61.92519
700.10        61.80486
700.52        61.72248
700.94        61.68298
701.37        61.65302
701.79        61.63731
702.21        61.60995
702.64        61.58112
703.06        61.55943
703.48        61.56323
703.90        61.59958
704.33        61.66041
704.75        61.72622
705.17        61.74941
705.59        61.72304
706.01        61.65246
706.44        61.59851
706.86        61.67887
707.28        61.89438
707.70        62.20559
708.12        62.51113
708.55         62.6505
708.97        62.58524
709.39         62.3692
709.81        62.09999
710.23        61.95476
710.66        61.98976
711.08        62.16622
711.50        62.37816
711.92        62.47522
712.34        62.42134
712.76         62.2637
713.19        62.07875
713.61        62.03746
714.03        62.15258
714.45        62.38111
714.87        62.63815
715.29        62.75535
715.71        62.69086
716.13        62.65557
716.56        62.40442
716.98        62.31984
717.40        62.33363
717.82        62.41818
718.24        62.52291
718.66        62.56881
719.08        62.53827
719.50        62.46764
719.92        62.39656
720.34        62.36361
720.76        62.39127
721.19         62.4879
721.61        62.63425
722.03        62.73568
722.45        62.77446
722.87        62.79252
723.29        62.80319
723.71        62.81634
724.13        62.84047
724.55        62.86608
724.97        62.90289
725.39         62.9698
725.81        63.06407
726.23         63.1777
726.65        63.27739
727.07        63.31435
727.49        63.28201
727.91        63.18582
728.33        63.06304
728.75        63.01149
729.17        63.03669
729.59        63.04395
730.01        63.04058
730.43        63.10224
730.85        63.22222
731.27        63.34519
731.69        63.44959
732.10        63.46517
732.52        63.57567
732.94        63.40115
733.36        63.08841
733.78        62.94669
734.20        63.02583
734.62         63.1733
735.04        63.32229
735.46        63.44941
735.88        63.53294
736.30        63.51702
736.72        63.44006
737.13         63.5532
737.55        63.75725
737.97        63.65493
738.39        63.32233
738.81        63.22379
739.23         63.4151
739.65        63.64685
740.06        63.90198
740.48        64.00793
740.90         63.9476
741.32         63.7597
741.74        63.54704
742.16        63.47257
742.57        63.59025
742.99        63.83617
743.41        64.10221
743.83        64.19616
744.25        64.07652
744.67        63.80163
745.08         63.5076
745.50        63.37762
745.92        63.47734
746.34        63.74413
746.75        64.05481
747.17        64.20995
747.59        64.16378
748.01        63.95023
748.42        63.69139
748.84        63.62443
749.26        63.76494
749.68        63.94072
750.09         64.0778
750.51        64.10685
750.93        64.04881
751.35        64.08477
751.76        64.20895
752.18        64.23647
752.60        64.16434
753.01        64.12456
753.43        64.08875
753.85        64.00274
754.27        63.87128
754.68        63.71759
755.10        63.59288
755.52        63.54852
755.93        63.60072
756.35        63.74377
756.77        63.93084
757.18         64.0848
757.60         64.1678
758.02        64.17906
758.43        64.19722
758.85        64.20056
759.26        64.41598
759.68        64.73761
760.10        64.40282
760.51        63.96128
760.93        64.08614
761.34        63.86853
761.76         64.2683
762.18        64.42481
762.59        64.47362
763.01        64.62894
763.42        64.07607
763.84        64.21173
764.26        64.42762
764.67        64.71481
765.09        64.90119
765.50        65.11779
765.92        65.30811
766.33        65.15228
766.75        64.72037
767.16        64.52829
767.58         64.5835
768.00        64.72926
768.41        64.91284
768.83        64.86063
769.24        64.57249
769.66        64.80733
770.07        64.67561
770.49        64.71822
770.90        64.67725
771.32        64.65924
771.73        64.66688
772.15        64.66685
772.56        64.67785
772.97        64.69807
773.39        64.71026
773.80        64.75903
774.22        64.81347
774.63        64.88508
775.05        64.94924
775.46        65.01586
775.88        65.06214
776.29        65.11184
776.70        65.13605
777.12        65.10369
777.53        65.03139
777.95        64.91931
778.36        64.80931
778.77        64.76144
779.19        64.78902
779.60        64.88486
780.02        65.00053
780.43        65.08191
780.84        65.11329
781.26        65.06689
781.67         65.0131
782.09        65.07473
782.50        65.22637
782.91        65.32337
783.33        65.33005
783.74         65.3639
784.15        65.38492
784.57         65.3755
784.98        65.36512
785.39        65.34721
785.81        65.36266
786.22        65.52635
786.63        65.80183
787.04        66.00679
787.46        66.12983
787.87        66.24422
788.28        66.34347
788.70        66.37315
789.11        66.31335
789.52         66.1805
789.93        66.04049
790.35        65.99238
790.76        66.07742
791.17        66.28309
791.58        66.49927
792.00        66.56337
792.41        66.47729
792.82        66.15513
793.23        65.78677
793.65        65.95103
794.06        66.58532
794.47        66.95591
794.88        66.96674
795.29        67.04972
795.71        67.14029
796.12        66.97032
796.53        66.59101
796.94        66.42897
797.35        66.49276
797.76        66.42757
798.18        66.24678
798.59        66.21584
799.00          66.334
799.41        66.45988
799.82        66.54755
800.23        66.58857
800.64        66.56911
801.06        66.47002
801.47        66.36583
801.88        66.31293
802.29         66.3296
802.70        66.38882
803.11        66.48376
803.52        66.59949
803.93        66.73285
804.34         66.8978
804.75        67.04532
805.17        67.14497
805.58        67.22549
805.99        67.09068
806.40        66.85413
806.81        67.16296
807.22         67.8264
807.63        67.77927
808.04        67.11657
808.45        66.91566
808.86        67.24751
809.27        67.48135
809.68        67.54019
810.09        67.59245
810.50        67.61588
810.91        67.57023
811.32        67.46757
811.73        67.32926
812.14         67.1722
812.55        67.00282
812.96        66.86636
813.37         66.8304
813.78        66.90644
814.19        67.07679
814.60        67.27398
815.01        67.38811
815.42        67.39407
815.83         67.3218
816.24        67.21671
816.65        67.16759
817.05         67.2136
817.46        67.29947
817.87        67.43173
818.28        67.58083
818.69        67.73597
819.10        67.90779
819.51        68.08659
819.92        68.24945
820.33        68.37665
820.74        68.44837
821.14        68.46846
821.55        68.47208
821.96        68.45477
822.37         68.4216
822.78        68.33121
823.19        68.11364
823.60        67.76973
824.00        67.34525
824.41        66.92767
824.82        66.72488
825.23        66.78388
825.64        67.05965
826.04        67.42719
826.45        67.64181
826.86        67.65559
827.27        67.53044
827.68        67.37776
828.08        67.42055
828.49          67.645
828.90        68.01641
829.31        68.44891
829.72        68.72655
830.12        68.79914
830.53        69.04933
830.94        68.83565
831.35        68.68674
831.75        68.45039
832.16        68.12818
832.57        67.81029
832.97        67.64377
833.38        67.65926
833.79        67.80857
834.20        68.04637
834.60         68.2963
835.01        68.51772
835.42        68.72787
835.82        68.87219
836.23        68.81438
836.64        68.55903
837.04        68.15479
837.45        67.71633
837.86         67.4939
838.26        67.55974
838.67        67.84113
839.08        68.22365
839.48        68.49845
839.89         68.5928
840.29         68.5603
840.70        68.48891
841.11        68.52325
841.51        68.71674
841.92         68.9875
842.33        69.24976
842.73        69.36874
843.14        69.26884
843.54         69.0285
843.95        68.76389
844.35        68.68275
844.76        68.82222
845.17        69.12274
845.57        69.46499
845.98         69.6182
846.38        69.55204
846.79        69.31199
847.19        69.03503
847.60        68.86034
848.00        68.87198
848.41        68.99427
848.81        69.20197
849.22        69.37862
849.62        69.51941
850.03        69.61012
850.43         69.7064
850.84        69.78982
851.24        69.90762
851.65        69.98162
852.05        70.03117
852.46        69.99496
852.86        69.87428
853.27        69.74894
853.67        69.56535
854.07        69.38146
854.48        69.17756
854.88        68.95905
855.29        68.75967
855.69        68.80798
856.10        69.04744
856.50        69.51947
856.90        69.97013
857.31         70.0187
857.71        69.64334
858.12        68.89471
858.52        68.07565
858.92        67.64068
859.33        67.71104
859.73        68.20688
860.13        68.88199
860.54        69.32028
860.94        69.44849
861.34        69.33055
861.75        69.08403
862.15        68.98865
862.55         69.0741
862.96         69.2263
863.36        69.33672
863.76        69.19083
864.17        68.74591
864.57        68.13329
864.97        67.46429
865.38        66.89483
865.78        66.53841
866.18        66.34309
866.58         66.3588
866.99        66.63173
867.39        67.15331
867.79        67.85707
868.19        68.54025
868.60        68.84184
869.00        68.77197
869.40        68.56317
869.80        68.27976
870.21        67.88884
870.61        67.52839
871.01        67.29032
871.41        67.13853
871.81         66.9191
872.22        66.63474
872.62        66.34911
873.02        66.18679
873.42         66.5136
873.82        67.16916
874.22        67.57114
874.63        67.79697
875.03         68.0548
875.43        68.32045
875.83        69.30546
876.23        68.67645
876.63        67.89558
877.03        66.77016
877.44        64.72297
877.84        163.0535
878.24        65.59048
878.64        66.50235
879.04         68.1925
879.44        68.94657
879.84        66.08602
880.24        70.31547
880.64        70.10989
881.04         67.5311
881.44        65.69352
881.84        65.23672
882.24        66.17902
882.65        67.70476
883.05        68.20329
883.45        67.34829
883.85        66.01785
884.25        64.81104
884.65         64.3156
885.05        64.71905
885.45        65.73869
885.85        66.89819
886.25        67.54445
886.65        67.51812
887.05        67.03129
887.45        66.34064
887.85        65.87077
888.25         65.7701
888.65        65.89582
889.04        66.14371
889.44        66.35658
889.84          66.466
890.24        66.54242
890.64         66.5993
891.04        66.63791
891.44        66.67184
891.84        66.69221
892.24        66.70787
892.64         66.7505
893.04         66.8242
893.44         66.9125
893.83        67.04294
894.23        67.22544
894.63        67.46715
895.03        67.77662
895.43        68.06465
895.83         68.1838
896.23        68.11269
896.63        67.88017
897.02        67.63952
897.42        67.68744
897.82        68.02759
898.22          68.566
898.62        69.06487
899.01        69.14542
899.41        68.70773
899.81        67.90353
900.21         66.9675
900.61         66.2878
901.00        65.97643
901.40        65.98495
901.80        66.21243
902.20         66.3627
902.59        66.34785
902.99        66.50979
903.39         66.9547
903.79        66.29501
904.18        66.99212
904.58        67.02369
904.98        67.08701
905.38         67.0873
905.77        67.01928
906.17        66.94391
906.57        66.85141
906.96         66.8207
907.36        66.87238
907.76        66.99442
908.15        67.24676
908.55        67.58322
908.95        68.01617
909.34        68.47276
909.74        68.89472
910.14         69.1551
910.53        69.21872
910.93        69.12119
911.33        68.84134
911.72        68.34979
912.12        67.69613
912.52        66.92014
912.91          66.187
913.31        65.82962
913.70        65.88821
914.10        66.28596
914.49        66.83556
914.89        67.11889
915.29         67.0451
915.68        66.69707
916.08        66.28968
916.47        66.12357
916.87        66.30642
917.26         66.7402
917.66        67.23486
918.05        67.51339
918.45        67.48387
918.84        67.23435
919.24        66.96312
919.64        67.04716
920.03        67.55531
920.42        68.34063
920.82        69.07863
921.21        69.27649
921.61        68.86044
922.00        68.06272
922.40        67.27943
922.79        67.01652
923.19        67.06301
923.58        68.04672
923.98        70.02326
924.37        70.43464
924.77        67.99714
925.16        74.88908
925.55        69.28898
925.95        69.55647
926.34        69.51192
926.74        68.95004
927.13        67.83601
927.52        67.19431
927.92        67.44053
928.31        67.98885
928.70        68.69899
929.10        69.28783
929.49        69.69003
929.89        70.01146
930.28        70.12956
930.67        69.73277
931.07        68.84251
931.46        67.47356
931.85        66.13962
932.24        66.12583
932.64        67.60885
933.03        69.62399
933.42        71.19235
933.82        73.77451
934.21        72.61096
934.60        71.46304
934.99        70.11798
935.39        69.64584
935.78        70.16201
936.17        71.90341
936.56        77.41949
936.96        71.41309
937.35        74.70842
937.74        71.92484
938.13        69.90453
938.53        68.15259
938.92        67.29478
939.31         67.8495
939.70        68.86299
940.09        69.39579
940.49        69.20443
940.88        68.63829
941.27        68.00614
941.66        67.85786
942.05         68.3596
942.44        69.23727
942.84        70.10648
943.23        70.54512
943.62         70.4363
944.01        69.90148
944.40        69.25844
944.79        69.03867
945.18        69.37693
945.57        70.11963
945.97        70.84205
946.36        70.98923
946.75        70.40018
947.14        69.26334
947.53        68.04327
947.92        67.53437
948.31        67.93691
948.70        68.97808
949.09        70.16614
949.48        70.75069
949.87        70.54984
950.26        69.81105
950.65        68.86574
951.04        68.25167
951.43        68.14602
951.82        68.37211
952.21        68.77458
952.60        69.10085
952.99        69.23797
953.38        69.27118
953.77        69.23991
954.16        69.17536
954.55        69.10462
954.94        69.02607
955.33        68.91124
955.72        68.73914
956.11        68.52363
956.50        68.26479
956.89        68.11944
957.28        68.32103
957.66        68.91016
958.05        69.73277
958.44        70.48507
958.83        70.70255
959.22        70.28336
959.61        69.31493
960.00        68.13593
960.39        67.42344
960.78         67.4184
961.16        67.99474
961.55        68.66651
961.94        68.84278
962.33        68.41115
962.72        67.51624
963.11        66.60129
963.49        66.54428
963.88        67.54553
964.27        69.23618
964.66        70.91534
965.04        71.66173
965.43        71.25871
965.82          70.039
966.21          68.491
966.60        67.48859
966.98        67.33921
967.37        67.77966
967.76        68.52811
968.15        69.10725
968.53        69.36917
968.92          69.467
969.31        69.46705
969.69        69.44601
970.08        69.40757
970.47        69.25426
970.86        69.08478
971.24         69.1161
971.63        69.35498
972.02        69.77804
972.40        70.13344
972.79        69.93573
973.17        69.18048
973.56        68.01721
973.95        66.86434
974.33        66.46895
974.72        67.01939
975.11        68.24837
975.49        69.81567
975.88        71.07477
976.26        71.85921
976.65        72.26162
977.04        72.32445
977.42        72.08493
977.81        71.55706
978.19        70.66164
978.58        69.81346
978.96        69.72529
979.35        70.50793
979.74        71.90012
980.12        73.33131
980.51        73.89519
980.89        73.57524
981.28        72.49522
981.66        71.03494
982.05        70.17668
982.43        70.30216
982.82        71.18772
983.20        72.30941
983.59        72.82883
983.97        72.58314
984.35        71.75684
984.74        70.74839
985.12        70.33432
985.51        70.67693
985.89        71.59007
986.28        72.51767
986.66        72.73454
987.04        72.15361
987.43        70.89719
987.81        69.31064
988.20        69.48696
988.58        71.80746
988.96        73.22678
989.35        72.67439
989.73        78.35452
990.12        75.01182
990.50        74.39506
990.88        72.84766
991.27         71.6217
991.65        70.96007
992.03        70.88133
992.42        71.26693
992.80        71.32392
993.18        70.87272
993.56         70.1731
993.95        69.57686
994.33        69.58044
994.71        70.29359
995.10        71.49158
995.48        72.75849
995.86        73.43414
996.24        73.35336
996.63        72.66344
997.01        71.86668
997.39        71.55007
997.77        71.86417
998.15        72.62515
998.54        73.56059
998.92         74.1474
999.30        74.27705
999.68        74.08115
1000.06        73.77307
1000.45         73.7237
1000.83        74.15182
1001.21        74.88416
1001.59        75.62606
1001.97        75.97161
1002.35        75.86678
1002.73        75.46268
1003.12        75.06004
1003.50        75.09969
1003.88        75.63408
1004.26        76.56629
1004.64        77.56774
1005.02        77.95264
1005.40        77.45779
1005.78        76.24299
1006.16        74.79694
1006.54        73.93895
1006.92        73.92115
1007.30         74.5722
1007.69        75.39264
1008.07        75.73273
1008.45        75.42301
1008.83        74.64787
1009.21        73.92825
1009.59        74.28679
1009.97        75.82234
1010.35         77.8601
1010.73        79.70531
1011.11        80.88805
1011.49        81.47588
1011.86        81.45495
1012.24         80.6282
1012.62        81.38815
1013.00        81.44503
1013.38        80.61066
1013.76        77.83324
1014.14        81.46138
1014.52        87.41564
1014.90        81.39088
1015.28        83.59664
1015.66        85.51216
1016.04        83.00455
1016.41        82.96128
1016.79        81.73476
1017.17        80.91711
1017.55        80.17113
1017.93        79.62591
1018.31        79.56157
1018.69        79.92532
1019.06        80.72907
1019.44        81.88899
1019.82        82.99947
1020.20        83.50652
1020.58        83.32613
1020.95        82.40739
1021.33        81.15459
1021.71        80.67444
1022.09        81.45873
1022.46        82.96386
1022.84        84.35016
1023.22        85.01716
1023.60        85.01792
1023.97        84.59171
1024.35        84.03915
1024.73        83.94131
