SpectraSmart Spectrum 2.9.0.0
--------- Device Information -----------
Spectrum Name :  反射率_0
Saving Time :  2024/04/20 23:55:55
Spectro-Module Model Name : SE2030-DUVN
Spectro-Module Serial Number : OS361AC55029948
Wavelength Start : 200
Wavelength End : 1025
Wavelength Unit : Wavelength(nm)
Spectrum Unit : Reflectance(%)
-----------Spectrum Setting ------------
Integration Time : 20ms
Average : 10
Boxcar : 0
Background removal :  enabled
linearity correction :  enabled
SC :  disabled
Intensity correction :  disabled
DWT denoise :  enabled
savitzky-golay :  disabled
FFT :  disabled
Running average :  disabled
Kalman :  disabled
High pass :  disabled
---------------BEGIN--------------------
Wavelength(nm)             Reflectance(%)
200.29               0
200.75        71.12707
201.21        76.23787
201.67        75.38225
202.13        72.93986
202.58        69.34486
203.04        64.32629
203.50        57.44236
203.96        49.95916
204.42        43.80682
204.88        39.14915
205.34        37.37377
205.80        39.79753
206.26        47.41463
206.72        62.84614
207.18        82.90098
207.64        96.91227
208.10        98.63271
208.55        89.65064
209.01        77.83963
209.47        77.27385
209.93        83.93633
210.39        90.72035
210.85        95.53237
211.31        97.94212
211.77        98.62668
212.23        98.08536
212.69        96.76007
213.14        98.08166
213.60        105.6794
214.06        138.1134
214.52         220.239
214.98        144.8712
215.44        99.12335
215.90        85.02242
216.36        79.68597
216.81        75.92347
217.27        70.28015
217.73        48.67804
218.19        300.1158
218.65        167.7571
219.11       -163.2372
219.57           55.15
220.02        68.63405
220.48        70.01968
220.94        66.35435
221.40        55.66885
221.86         30.5883
222.32        12.80429
222.77        33.26855
223.23        52.31598
223.69        62.04278
224.15        65.13049
224.61        64.64699
225.06        62.36291
225.52        59.04409
225.98        55.45609
226.44         52.1258
226.90        48.22307
227.36        45.42677
227.81        46.81464
228.27        51.00231
228.73        55.68806
229.19        58.65261
229.65        58.47685
230.10        55.48785
230.56        50.57948
231.02        44.54213
231.48        40.72042
231.93        41.38232
232.39         45.1825
232.85        49.43995
233.31        51.96523
233.77        52.87435
234.22          53.236
234.68        52.93045
235.14        51.71847
235.60        49.84521
236.05          46.736
236.51        43.16744
236.97        45.19025
237.43        53.51102
237.88        60.37834
238.34        62.51857
238.80         76.9872
239.26        69.99619
239.71        65.59824
240.17        55.24018
240.63        45.58855
241.08        42.54148
241.54        49.30915
242.00        64.27164
242.46        76.20711
242.91        82.57218
243.37        84.42767
243.83        82.91209
244.28        82.46109
244.74        85.30885
245.20        88.98386
245.66        90.98909
246.11        89.00529
246.57        82.99725
247.03         73.9864
247.48        64.10384
247.94        57.23039
248.40        55.14877
248.85        60.84869
249.31        96.72855
249.77        158.0296
250.22        111.8823
250.68        83.47777
251.14        73.04507
251.59        70.80334
252.05        72.81451
252.51        77.74009
252.96        83.72998
253.42          84.884
253.88        78.02728
254.33        67.58784
254.79        61.00025
255.25        61.15431
255.70        64.72979
256.16        68.87184
256.62        71.84743
257.07        72.82766
257.53        72.72919
257.99        71.86901
258.44        70.27376
258.90        68.70345
259.35        66.76084
259.81        64.96201
260.27        63.17166
260.72        61.39839
261.18        60.06732
261.63        58.84942
262.09        57.92931
262.55        57.02512
263.00        56.00265
263.46        55.08864
263.91        54.15575
264.37        53.49466
264.83        53.00818
265.28        52.57088
265.74        52.18245
266.19         51.6097
266.65        50.89709
267.11        50.04501
267.56        49.08592
268.02        48.17381
268.47        47.29249
268.93        46.44729
269.38        45.57681
269.84        44.65598
270.30        43.67367
270.75        42.66286
271.21        41.69587
271.66         40.8028
272.12        40.02975
272.57        39.33445
273.03        38.72689
273.48        38.16573
273.94        37.65605
274.39        37.15667
274.85        36.67405
275.31        36.13939
275.76        35.53668
276.22        34.93242
276.67        34.32841
277.13        33.82451
277.58         33.3881
278.04        33.02372
278.49        32.67225
278.95        32.35038
279.40        31.99305
279.86         31.6367
280.31        31.21089
280.77        30.71317
281.22        30.11736
281.68        29.51277
282.13        28.89839
282.59        28.36207
283.04        27.89539
283.50        27.49956
283.95        27.20557
284.41        27.09631
284.86        27.14558
285.32        27.33622
285.77        27.51207
286.22        27.47041
286.68        27.20495
287.13         26.7442
287.59        26.29898
288.04        26.08155
288.50        26.11728
288.95        26.44041
289.41        26.93142
289.86        26.93742
290.32        26.34765
290.77        27.08518
291.22        26.13969
291.68        26.20501
292.13        26.40775
292.59        26.79162
293.04         27.3089
293.50        27.95946
293.95        28.74839
294.40         29.6647
294.86        30.70016
295.31        31.82266
295.77        33.02015
296.22        34.27598
296.68        35.59753
297.13        36.99474
297.58        38.48035
298.04         40.0443
298.49        41.68293
298.95        43.41062
299.40        45.20264
299.85         47.0671
300.31        48.95366
300.76        50.75861
301.21        52.48595
301.67        54.19175
302.12        55.96012
302.58         58.0288
303.03        60.39649
303.48        63.03204
303.94        65.79091
304.39        68.38764
304.84        70.75841
305.30        72.98843
305.75         75.1432
306.20        77.44665
306.66        79.93412
307.11        82.45786
307.57        84.93621
308.02        87.16734
308.47        89.14314
308.93        90.97285
309.38        92.66959
309.83        94.33488
310.29        96.02801
310.74        97.66212
311.19        99.26535
311.65         100.861
312.10        102.4173
312.55        103.9351
313.00        105.3363
313.46        106.4965
313.91        107.3827
314.36        108.0543
314.82        108.6267
315.27        109.2686
315.72        110.0427
316.18         110.908
316.63        111.8059
317.08        112.6372
317.53        113.3589
317.99        113.9892
318.44        114.5475
318.89        115.0468
319.35        115.4932
319.80        115.8919
320.25        116.2229
320.70        116.4697
321.16        116.6287
321.61        116.7267
322.06        116.8315
322.51        117.0543
322.97        117.4003
323.42        117.8908
323.87        118.3939
324.32         118.707
324.78        118.7652
325.23        118.6626
325.68        118.5483
326.13        118.7048
326.59        119.1683
327.04        119.9163
327.49        120.7261
327.94        121.2616
328.39        121.4307
328.85        121.2942
329.30        121.1159
329.75          121.19
330.20        121.6109
330.66        122.2384
331.11        122.9872
331.56        123.5564
332.01        123.8657
332.46        124.0076
332.92         124.038
333.37        124.2108
333.82        124.5462
334.27        124.9952
334.72        125.5365
335.17        126.1402
335.63        126.7499
336.08        127.4461
336.53        128.1802
336.98        128.9183
337.43        129.6402
337.88        130.3307
338.34        130.9462
338.79        131.5028
339.24        131.9689
339.69        132.3475
340.14        132.6704
340.59        132.9947
341.05        133.3413
341.50        133.7176
341.95        134.1069
342.40        134.4785
342.85        134.8271
343.30        135.1687
343.75         135.514
344.20        135.8822
344.66        136.2793
345.11          136.66
345.56        137.0195
346.01        137.3548
346.46        137.6671
346.91         137.929
347.36        138.0823
347.81        138.1605
348.26        138.1884
348.72        137.7366
349.17        137.7078
349.62        137.6445
350.07        137.8166
350.52          138.14
350.97        138.4768
351.42        138.5843
351.87        138.3879
352.32        137.9657
352.77          137.42
353.22        136.9079
353.67        136.4786
354.13        136.1052
354.58        135.7152
355.03        135.2547
355.48         134.712
355.93         134.118
356.38        133.5248
356.83        132.9987
357.28        132.5377
357.73        132.1021
358.18        131.6136
358.63        130.9586
359.08        130.1215
359.53        129.1528
359.98        128.1276
360.43        127.1524
360.88        126.2579
361.33        125.4155
361.78        124.6045
362.23        123.7927
362.68        122.9678
363.13        122.1442
363.58        121.3099
364.03        120.4401
364.48        119.5273
364.93        118.5683
365.38        117.5843
365.83        116.6183
366.28        115.6809
366.73        114.7599
367.18         113.837
367.63         112.882
368.08        111.8951
368.53        110.9044
368.98        109.9149
369.43        108.9158
369.88        107.9075
370.33        106.8902
370.78        105.9035
371.23        105.0366
371.68         104.312
372.13        103.6913
372.58        103.1284
373.03        102.5352
373.48        101.8693
373.93        101.1556
374.38         100.357
374.83        99.43172
375.28        98.41093
375.72        97.30758
376.17        96.28448
376.62        95.48469
377.07        94.91727
377.52         94.5255
377.97        94.18787
378.42        93.71271
378.87        93.05992
379.32        92.29616
379.77         91.5108
380.22        90.81874
380.67        90.23109
381.11        89.70329
381.56        89.17143
382.01        88.56625
382.46        87.89062
382.91        87.19786
383.36         86.5288
383.81        85.93213
384.26        85.41702
384.71         84.9549
385.15        84.53559
385.60        84.21246
386.05        83.94905
386.50         83.7338
386.95        83.48539
387.40        83.08809
387.85        82.54025
388.29        81.83788
388.74        81.19418
389.19        80.69408
389.64        80.34177
390.09        80.07729
390.54        79.82767
390.98        79.46272
391.43        79.01858
391.88        78.55321
392.33        78.10009
392.78        77.73747
393.23        77.48444
393.67        77.15434
394.12        76.88972
394.57        76.96098
395.02        77.23961
395.47        77.14113
395.91        76.65682
396.36        76.26448
396.81        75.99886
397.26        75.58133
397.71        75.07572
398.15        74.65749
398.60         74.4219
399.05        74.29179
399.50        74.22729
399.95        74.08553
400.39        73.87698
400.84         73.7816
401.29        73.76879
401.74        73.47176
402.18        72.96597
402.63        72.72906
403.08        72.72254
403.53        72.49196
403.97        72.02228
404.42        71.59681
404.87        71.27354
405.32        71.04364
405.76        70.90959
406.21        70.90813
406.66        70.97415
407.11        70.92683
407.55        70.78535
408.00        70.75694
408.45         70.8371
408.90        70.67668
409.34        70.33218
409.79        70.26377
410.24        70.40892
410.68        70.35637
411.13        70.09374
411.58        69.84112
412.03        69.64931
412.47        69.53439
412.92        69.49412
413.37        69.53068
413.81        69.60631
414.26        69.72094
414.71         69.8399
415.15        69.97909
415.60        70.06747
416.05        70.05024
416.49        69.91982
416.94        69.68378
417.39        69.42139
417.83        69.24557
418.28        69.18883
418.73        69.22786
419.17        69.29316
419.62        69.27536
420.07        69.14803
420.51         68.9413
420.96         68.7639
421.41        68.70874
421.85        68.76389
422.30        68.98185
422.74        69.23322
423.19        69.33295
423.64        69.28682
424.08        69.40543
424.53        69.62612
424.98        69.73004
425.42        69.71735
425.87        69.67314
426.31         69.6503
426.76        69.70411
427.21        69.83039
427.65        69.96563
428.10        70.01081
428.54        69.98373
428.99        69.92029
429.44        69.68312
429.88        69.37975
430.33        69.48539
430.77        69.82907
431.22         70.0248
431.66         70.0166
432.11        69.99674
432.56        70.06908
433.00        70.10683
433.45        69.96255
433.89        70.18925
434.34        70.79298
434.78        69.75117
435.23        69.66117
435.67        70.10502
436.12        70.88119
436.57         71.1671
437.01        70.74339
437.46        70.55659
437.90        71.42529
438.35        70.68566
438.79        71.09686
439.24        70.89866
439.68        70.85325
440.13        70.90722
440.57        71.05933
441.02        71.09341
441.46          71.029
441.91         71.3511
442.35        71.84463
442.80        72.04905
443.24        72.24039
443.69        72.12289
444.13        71.86278
444.58        71.72297
445.02        71.51667
445.47        71.67193
445.91        72.00323
446.36        72.16578
446.80        72.10532
447.24        71.99588
447.69        71.91747
448.13        72.00447
448.58        72.07265
449.02        72.20782
449.47        72.29807
449.91        72.30936
450.36        72.24603
450.80        72.02225
451.25         71.7542
451.69        71.72087
452.13         71.8945
452.58        71.90259
453.02        71.71533
453.47        71.60732
453.91        71.56405
454.36        71.42606
454.80        71.21664
455.24        71.08245
455.69        71.05982
456.13        71.04309
456.58         71.0153
457.02         71.0776
457.46        70.84583
457.91        70.74704
458.35        70.77211
458.79        70.67852
459.24        70.50526
459.68        70.36714
460.13         70.3434
460.57        70.13937
461.01        69.73165
461.46         70.0561
461.90        69.79541
462.34        69.32561
462.79        69.26509
463.23         69.0945
463.68        69.81815
464.12        69.56625
464.56        68.78907
465.01         68.7345
465.45        69.26284
465.89        69.47455
466.34        69.29091
466.78        69.10191
467.22        69.03194
467.67        68.44603
468.11        68.56223
468.55        68.37798
468.99        68.24148
469.44        68.13163
469.88        68.05261
470.32        67.99404
470.77        67.93953
471.21        67.87999
471.65        67.80708
472.10        67.73762
472.54        67.64542
472.98        67.52469
473.42        67.40176
473.87        67.22968
474.31        67.00751
474.75        67.04085
475.20        67.33558
475.64        67.01668
476.08        67.43906
476.52        67.35544
476.97        67.08097
477.41        67.36999
477.85        67.23814
478.29        66.82173
478.74        66.52754
479.18        67.01917
479.62        66.87191
480.06        67.02123
480.50        66.99683
480.95        66.97206
481.39        66.91234
481.83        67.08048
482.27        66.97319
482.72        67.04362
483.16        67.21527
483.60        67.02828
484.04         67.5578
484.48        67.18453
484.93        66.93436
485.37        67.07748
485.81        67.39905
486.25        66.73425
486.69        68.62704
487.14         68.9846
487.58        66.80881
488.02        66.54193
488.46        66.57105
488.90        66.59342
489.34        66.07284
489.79        65.56181
490.23         66.4777
490.67        66.58598
491.11        66.33121
491.55        66.06257
491.99        65.88923
492.43        65.86453
492.88        65.84483
493.32        66.00535
493.76         66.1759
494.20        66.24876
494.64        66.20985
495.08        65.81023
495.52        65.61308
495.96        65.51192
496.41        65.61568
496.85        65.65014
497.29         65.5323
497.73        65.61945
498.17        65.53276
498.61        65.42718
499.05        65.23664
499.49        65.09535
499.93        65.05336
500.37        65.15814
500.82        65.32645
501.26        65.36032
501.70        65.27229
502.14        65.00583
502.58        65.12032
503.02        65.02374
503.46        64.98093
503.90        64.97325
504.34        65.01379
504.78        65.03566
505.22         65.0377
505.66        65.00021
506.10        64.94017
506.54        64.95647
506.98        65.06109
507.42        64.74637
507.86        65.26924
508.30        64.68728
508.74        65.01955
509.18        64.88827
509.62        64.78461
510.06        64.67503
510.50        64.54435
510.94        64.32102
511.38        64.03964
511.82        63.86956
512.26        63.82771
512.70        63.84694
513.14        63.89278
513.58        63.92667
514.02        63.92896
514.46        63.90944
514.90        63.86984
515.34        63.84842
515.78        63.85431
516.22         63.8527
516.66        63.68645
517.10        63.91911
517.54        63.72849
517.98         63.7617
518.42        63.76932
518.86        63.76099
519.30        63.73578
519.74        63.65643
520.18        63.58326
520.62        63.69105
521.06        63.93769
521.50        64.06509
521.93        64.03567
522.37        63.99414
522.81        63.93996
523.25        63.77755
523.69        63.54999
524.13        63.38409
524.57        63.30526
525.01        63.27663
525.45        63.30102
525.89         63.3809
526.32         63.5024
526.76        63.66827
527.20        63.82488
527.64        63.90293
528.08        63.88917
528.52        63.76052
528.96        63.58029
529.40         63.5483
529.83        63.63546
530.27        63.61377
530.71        63.48362
531.15        63.44669
531.59        63.50562
532.03        63.53962
532.46        63.54279
532.90        63.57977
533.34        63.64264
533.78        63.70952
534.22        63.75932
534.66         63.7635
535.09        63.70938
535.53        63.63023
535.97        63.54053
536.41        63.47929
536.85        63.45767
537.28        63.46677
537.72        63.49134
538.16        63.50603
538.60        63.50181
539.04        63.48796
539.47         63.4566
539.91        63.44878
540.35        63.45079
540.79        63.45487
541.22        63.45066
541.66        63.43877
542.10        63.41148
542.54        63.36882
542.97        63.30847
543.41        63.25707
543.85        63.21884
544.29        63.20962
544.72        63.20279
545.16        63.20968
545.60         63.2162
546.04        63.14614
546.47        63.07266
546.91        63.24092
547.35        63.56709
547.79        63.76488
548.22        63.74788
548.66        63.50041
549.10        63.14746
549.53         63.0654
549.97        63.23561
550.41          63.225
550.84        63.02221
551.28        62.90655
551.72         62.9057
552.15        62.93737
552.59        63.01814
553.03        63.06936
553.46        63.20216
553.90         63.1866
554.34        63.05242
554.77        62.81389
555.21        62.59021
555.65        62.53981
556.08        62.67719
556.52        63.00526
556.96        63.37259
557.39        63.46606
557.83        63.30219
558.27        63.14157
558.70        63.04924
559.14         62.9607
559.57        62.89274
560.01        62.96124
560.45        63.09015
560.88        63.10591
561.32        63.05463
561.75        62.92911
562.19        62.81381
562.63        62.93795
563.06        63.20351
563.50        63.06233
563.93        62.59865
564.37         62.5327
564.80        62.81413
565.24         62.9362
565.68        62.88785
566.11        62.92288
566.55        63.04609
566.98        63.20506
567.42        63.38463
567.85        63.20916
568.29        63.17555
568.72        63.18718
569.16        63.36642
569.60        63.63469
570.03        63.58388
570.47        63.69002
570.90        63.76409
571.34        63.88345
571.77        64.19048
572.21        64.02158
572.64        63.82781
573.08         64.2281
573.51        64.01208
573.95        64.20576
574.38        64.08821
574.82        65.08123
575.25        64.55627
575.69          64.524
576.12        64.08485
576.56        64.30521
576.99        64.14423
577.42        64.53117
577.86        64.62311
578.29        64.81998
578.73        65.35584
579.16        65.19038
579.60        64.55412
580.03        64.26608
580.47        64.70016
580.90        64.53258
581.33        64.49273
581.77        64.89005
582.20         65.4533
582.64        65.76512
583.07        65.14137
583.51        64.79514
583.94        64.40382
584.37        64.13393
584.81        63.79864
585.24        63.90825
585.68        64.63277
586.11        64.77995
586.54        64.83241
586.98        64.47836
587.41        64.14103
587.85        64.42616
588.28        64.79534
588.71        64.52399
589.15        64.38043
589.58        64.07394
590.01        63.71089
590.45        63.64466
590.88        63.52491
591.31        63.21619
591.75        63.29806
592.18        63.20423
592.61        63.24187
593.05        63.69709
593.48        64.00158
593.91        64.83541
594.35        64.55112
594.78        64.33649
595.21         63.5818
595.65        63.47122
596.08        63.87341
596.51        64.18855
596.94        63.84028
597.38        63.83103
597.81        64.04372
598.24        63.80651
598.68        63.79213
599.11        63.68199
599.54        63.98053
599.97        64.20884
600.41        64.03528
600.84        64.14022
601.27        64.21311
601.70        63.51564
602.14        63.70982
602.57        63.42215
603.00        63.25368
603.43        63.93518
603.87        64.23495
604.30        64.19132
604.73        64.00156
605.16        63.49004
605.60         63.6995
606.03        63.67671
606.46        63.81638
606.89        63.53822
607.32        63.38897
607.76        63.73913
608.19         63.7714
608.62         63.5877
609.05        64.10477
609.48        63.73878
609.92        64.02338
610.35        63.64353
610.78        63.73649
611.21        63.39356
611.64         63.5405
612.07        63.47507
612.50        63.57495
612.94        63.56451
613.37        63.50035
613.80        63.59572
614.23        63.45758
614.66        63.43788
615.09        63.43459
615.52        63.34405
615.96        63.16584
616.39        63.16587
616.82        63.40397
617.25        62.92521
617.68        63.33918
618.11        63.16595
618.54         63.0591
618.97        62.85944
619.40         62.7125
619.84        62.44642
620.27        62.54501
620.70        62.65662
621.13        62.89112
621.56        62.66373
621.99        62.65323
622.42        62.75959
622.85        63.13749
623.28        62.86561
623.71        63.15408
624.14        62.80653
624.57        62.93368
625.00        62.99603
625.43         62.7275
625.86        62.73772
626.29        62.84912
626.72        62.83309
627.15        62.66209
627.58         62.6248
628.01        62.77491
628.44        62.33048
628.87        62.09252
629.30        62.49745
629.73        62.46082
630.16        62.53232
630.59        62.25802
631.02        62.45358
631.45        62.21421
631.88        62.24267
632.31        62.30586
632.74         62.1059
633.17        62.26147
633.60        62.20692
634.03        62.13456
634.46        62.09685
634.89        62.02207
635.32         62.0142
635.75        62.03988
636.18        62.12356
636.61        62.25352
637.04        62.25331
637.47        62.37022
637.89        62.40569
638.32        62.42054
638.75        62.40949
639.18        62.37722
639.61        62.32416
640.04        62.26023
640.47        62.20984
640.90        62.17974
641.33        62.16597
641.76        62.16771
642.18        62.18683
642.61        62.20584
643.04        62.23272
643.47        62.25525
643.90        62.25825
644.33        62.23732
644.76          62.181
645.18        62.11096
645.61        62.08231
646.04         62.0928
646.47        62.08537
646.90        62.04798
647.33        62.00813
647.75        61.95586
648.18        61.89355
648.61        61.87719
649.04        61.90502
649.47        61.96012
649.89        62.42602
650.32        62.53973
650.75        62.63137
651.18        62.49414
651.61        62.33516
652.03        62.21696
652.46        62.05929
652.89        61.93997
653.32        62.01243
653.74        62.27853
654.17        62.28903
654.60        62.21938
655.03          62.033
655.46        61.80233
655.88        62.12641
656.31          64.033
656.74        69.82395
657.16        68.85648
657.59        66.51595
658.02        63.24881
658.45        62.37949
658.87        62.43139
659.30        62.29804
659.73        62.41204
660.15        61.86407
660.58        62.18575
661.01        62.53513
661.44        63.06051
661.86        62.94488
662.29        62.32216
662.72        62.01099
663.14        62.09261
663.57        62.06503
664.00        61.92045
664.42        61.88784
664.85         61.9701
665.27        61.98203
665.70         62.1094
666.13         62.1393
666.55        62.21143
666.98        62.23611
667.41        62.23581
667.83        62.21427
668.26        62.18584
668.69        62.09935
669.11        61.95934
669.54        61.98647
669.96         62.2347
670.39        61.83916
670.82        62.27565
671.24        62.25232
671.67        62.21196
672.09        62.28266
672.52        62.45233
672.94        62.42813
673.37        62.24219
673.80        62.19445
674.22        62.30092
674.65        62.33039
675.07        62.29719
675.50        62.31694
675.92        62.38486
676.35        62.41422
676.77        62.39814
677.20        62.37793
677.62        62.38617
678.05        62.39502
678.47        62.39573
678.90        62.64547
679.32        62.64914
679.75        62.76376
680.17        62.83084
680.60        62.89029
681.02        62.92907
681.45        62.86422
681.87        62.73316
682.30        62.68307
682.72        62.72163
683.15        62.66747
683.57        62.51983
684.00        62.55832
684.42        62.45914
684.85         62.4964
685.27        62.55774
685.70        62.66225
686.12        62.76318
686.54        62.82102
686.97         62.8177
687.39        62.79181
687.82        62.76129
688.24         62.7292
688.66        62.68433
689.09        62.87335
689.51        62.81657
689.94        62.91494
690.36        63.00775
690.78        63.06732
691.21        63.08639
691.63        63.03683
692.06        62.96712
692.48        62.99498
692.90        63.10577
693.33        63.15277
693.75        63.14139
694.17        63.12123
694.60        63.07649
695.02        63.17615
695.44        63.14155
695.87        63.01528
696.29        62.82323
696.71        62.88208
697.14        63.15389
697.56        63.42249
697.98        63.62358
698.41        63.48546
698.83         63.6274
699.25        63.45787
699.68        63.22319
700.10        63.07283
700.52        63.04311
700.94        63.07998
701.37        63.13432
701.79        63.18558
702.21         63.1951
702.64        63.19353
703.06        63.17804
703.48         63.1328
703.90        63.05033
704.33        62.98957
704.75        63.00147
705.17         62.9527
705.59         62.8082
706.01        63.36223
706.44        63.20119
706.86        63.43803
707.28         63.6223
707.70        63.79244
708.12        63.91838
708.55        63.95342
708.97        63.91036
709.39        63.84441
709.81        63.76972
710.23        63.67284
710.66        63.57439
711.08        63.51652
711.50        63.50208
711.92        63.53249
712.34        63.60796
712.76        63.72517
713.19        63.86036
713.61        64.01928
714.03         64.1617
714.45        64.28776
714.87        64.38506
715.29        64.41506
715.71        64.37202
716.13        64.40312
716.56        64.18674
716.98        64.18851
717.40        64.02388
717.82        63.94513
718.24        63.89043
718.66        63.91089
719.08        64.00972
719.50        64.16533
719.92        64.34662
720.34        64.49287
720.76        64.58366
721.19        64.62666
721.61        64.62956
722.03        64.57954
722.45        64.48753
722.87         64.3588
723.29        64.24744
723.71        64.24238
724.13        64.36057
724.55        64.57564
724.97        64.82275
725.39        64.99123
725.81        65.04557
726.23        65.01151
726.65        64.92716
727.07        64.86035
727.49        64.83739
727.91        64.83366
728.33        64.83495
728.75        64.85156
729.17        64.86737
729.59        64.82063
730.01        64.76592
730.43        64.84986
730.85        65.07617
731.27        65.35559
731.69        65.61641
732.10        65.70133
732.52        65.78842
732.94        65.53574
733.36        65.10387
733.78        64.82359
734.20        64.76367
734.62        64.73457
735.04        64.75745
735.46        64.87315
735.88        65.00266
736.30        65.20836
736.72        65.39884
737.13        65.47708
737.55        65.38519
737.97        65.13461
738.39          64.855
738.81        64.83288
739.23        65.08028
739.65        65.36108
740.06        65.53163
740.48        65.66611
740.90        65.70412
741.32        65.57606
741.74        65.35938
742.16        65.25192
742.57        65.30931
742.99        65.45467
743.41         65.6082
743.83        65.62605
744.25        65.47777
744.67        65.20987
745.08        64.94694
745.50        64.84813
745.92        64.96787
746.34        65.24977
746.75        65.56213
747.17        65.69181
747.59        65.59536
748.01        65.31105
748.42        64.97935
748.84        64.87904
749.26        65.03609
749.68        65.23759
750.09        65.40184
750.51        65.51385
750.93        65.55235
751.35        65.55304
751.76        65.54071
752.18        65.50615
752.60         65.4614
753.01        65.44861
753.43        65.41135
753.85        65.28675
754.27        65.07715
754.68        64.82458
755.10         64.6212
755.52        64.56282
755.93        64.68082
756.35        64.97684
756.77        65.34584
757.18        65.61393
757.60        65.80186
758.02        65.78778
758.43        65.61023
758.85        65.90627
759.26        65.72637
759.68        65.87468
760.10        65.32787
760.51        65.11519
760.93        65.81921
761.34        65.66636
761.76         66.2215
762.18        66.13636
762.59        65.84369
763.01        65.85256
763.42        65.37344
763.84        65.49027
764.26        65.60313
764.67        65.98492
765.09        66.39594
765.50        66.66826
765.92         66.7373
766.33         66.4469
766.75        65.91738
767.16        65.64716
767.58        65.66299
768.00        65.90397
768.41        66.25113
768.83        66.12997
769.24        65.60223
769.66        65.83023
770.07        65.92851
770.49        66.07198
770.90         65.9972
771.32        65.99656
771.73        66.06409
772.15        66.08676
772.56        66.08304
772.97        66.01829
773.39        65.90438
773.80        65.96495
774.22        66.12699
774.63        66.10831
775.05        65.92336
775.46         65.9026
775.88        66.04192
776.29        66.18304
776.70        66.26972
777.12        66.30526
777.53        66.29171
777.95        66.22109
778.36         66.1204
778.77        66.02736
779.19        65.96318
779.60        65.93542
780.02         65.9461
780.43        66.03159
780.84        66.19419
781.26        66.34486
781.67        66.50757
782.09        66.79464
782.50        67.10519
782.91        67.15194
783.33        66.95116
783.74        66.86499
784.15        66.88965
784.57        66.88053
784.98        66.83303
785.39        66.73856
785.81        66.63172
786.22        66.63905
786.63        66.75829
787.04        66.86229
787.46        66.95231
787.87        67.07829
788.28        67.22557
788.70        67.32475
789.11        67.34787
789.52        67.32418
789.93         67.2849
790.35        67.27242
790.76        67.31201
791.17          67.393
791.58         67.4886
792.00        67.52682
792.41        67.52454
792.82         67.5246
793.23        67.57793
793.65        67.61901
794.06          67.686
794.47        68.02862
794.88         68.5766
795.29        68.46942
795.71         68.7177
796.12        68.63847
796.53        68.54356
796.94        68.37672
797.35        68.16923
797.76        67.95628
798.18        67.78171
798.59        67.70045
799.00        67.72264
799.41        67.86398
799.82        68.04333
800.23        68.10754
800.64        68.02145
801.06        67.80303
801.47        67.58696
801.88        67.52011
802.29        67.64793
802.70        67.92958
803.11        68.26289
803.52        68.47324
803.93        68.50661
804.34        68.40371
804.75        68.28111
805.17        68.30223
805.58        68.52897
805.99        68.93979
806.40        69.38506
806.81          69.492
807.22        69.26051
807.63        69.04491
808.04        68.95073
808.45        68.90456
808.86         68.9375
809.27        69.13833
809.68        69.40824
810.09        69.49562
810.50        69.34956
810.91        69.07158
811.32        68.72075
811.73        68.38654
812.14        68.12245
812.55        67.89956
812.96        67.79099
813.37        67.92168
813.78        68.28607
814.19        68.82612
814.60        69.37616
815.01        69.68326
815.42        69.68686
815.83        69.44807
816.24        69.06824
816.65        68.75791
817.05        68.61944
817.46        68.58236
817.87        68.65219
818.28        68.78534
818.69        68.96044
819.10        69.19813
819.51        69.48234
819.92        69.76498
820.33        70.00945
820.74        70.19131
821.14        70.29056
821.55        70.31612
821.96        70.26437
822.37        70.14654
822.78        69.97034
823.19        69.75238
823.60        69.51773
824.00        69.29454
824.41        69.11064
824.82        69.07122
825.23        69.18999
825.64        69.44265
826.04        69.75443
826.45        69.96439
826.86        70.04408
827.27        70.02732
827.68        69.97011
828.08        70.00426
828.49        70.09248
828.90        70.23543
829.31        70.41311
829.72        70.51182
830.12        70.51575
830.53        70.77083
830.94        70.62896
831.35        70.51276
831.75        70.25624
832.16        69.86986
832.57        69.50404
832.97        69.40195
833.38        69.60484
833.79        70.02944
834.20        70.51495
834.60        70.81708
835.01          70.871
835.42        70.74422
835.82        70.53216
836.23        70.35278
836.64        70.27754
837.04        70.28155
837.45        70.31187
837.86        70.34701
838.26        70.38383
838.67        70.42234
839.08         70.4886
839.48        70.60093
839.89        70.74855
840.29         70.9201
840.70          71.077
841.11        71.16201
841.51        71.17997
841.92        71.11659
842.33        71.03239
842.73        71.02312
843.14         71.0743
843.54            71.2
843.95        71.35918
844.35        71.51186
844.76        71.62743
845.17        71.70714
845.57        71.79298
845.98        71.91525
846.38        72.10513
846.79        72.33086
847.19        72.53017
847.60        72.52551
848.00        72.32874
848.41        71.94838
848.81        71.59901
849.22        71.56612
849.62        71.94901
850.03        72.61386
850.43        73.33738
850.84        73.66431
851.24        73.53837
851.65        73.00204
852.05        72.34323
852.46        71.98073
852.86        72.05067
853.27         72.4577
853.67        72.87916
854.07        73.01321
854.48        72.76567
854.88        72.26827
855.29        71.70129
855.69         71.5598
856.10        71.87856
856.50        72.60573
856.90        73.39397
857.31        73.71915
857.71        73.49532
858.12        72.80424
858.52        71.95248
858.92        71.39162
859.33        71.25173
859.73        71.45252
860.13        71.76616
860.54        71.81596
860.94        71.56338
861.34        71.09924
861.75        70.58187
862.15        70.33886
862.55        70.41688
862.96        70.69415
863.36        71.03971
863.76        71.19949
864.17        71.09647
864.57        70.83723
864.97        70.50697
865.38        70.23226
865.78        70.11014
866.18        70.08605
866.58        70.15825
866.99        70.30511
867.39        70.53508
867.79        70.82786
868.19        71.12507
868.60        71.24614
869.00        71.22863
869.40        71.26854
869.80         71.3107
870.21        71.09868
870.61         70.6907
871.01        70.20695
871.41        69.77124
871.81        69.47996
872.22        69.36762
872.62        69.41962
873.02        69.55845
873.42         69.7812
873.82        69.88375
874.22         69.4739
874.63        68.83878
875.03        68.55553
875.43         68.7181
875.83        69.89391
876.23         69.6599
876.63        69.27175
877.03        68.46937
877.44        66.77619
877.84        159.1039
878.24        67.71597
878.64        68.36779
879.04        69.61788
879.44        69.99601
879.84        67.11229
880.24        71.37376
880.64        71.54104
881.04        69.54707
881.44        68.13502
881.84        67.78582
882.24        68.54317
882.65        69.77946
883.05        70.21043
883.45        69.56831
883.85        68.61168
884.25        67.72747
884.65        67.19894
885.05        67.16736
885.45        67.48786
885.85        67.94337
886.25        68.24409
886.65        68.30498
887.05         68.2262
887.45        68.06512
887.85        67.90939
888.25        67.80246
888.65        67.69527
889.04        67.62758
889.44        67.68575
889.84        67.86143
890.24        68.12077
890.64        68.36479
891.04        68.43956
891.44        68.32445
891.84        68.08581
892.24        67.78893
892.64        67.55183
893.04        67.43242
893.44        67.39951
893.83        67.50484
894.23        67.79683
894.63        68.27006
895.03        68.90483
895.43        69.55431
895.83        69.96729
896.23        70.08141
896.63        69.95132
897.02        69.72137
897.42        69.68645
897.82        69.87359
898.22        70.19644
898.62        70.50669
899.01         70.5758
899.41        70.32296
899.81        69.84469
900.21         69.2661
900.61         68.7827
901.00         68.4575
901.40         68.3195
901.80        68.30735
902.20         68.1998
902.59        67.95223
902.99        67.86208
903.39        68.14558
903.79        67.64403
904.18         68.7275
904.58        69.39268
904.98        70.07162
905.38        70.32074
905.77        70.06477
906.17        69.45647
906.57        68.71863
906.96        68.31447
907.36        68.36453
907.76        68.75536
908.15         69.3276
908.55        69.66061
908.95        69.67996
909.34        69.45296
909.74        69.16573
910.14        69.06446
910.53        69.21153
910.93        69.52219
911.33        69.77552
911.72        69.63598
912.12        69.05979
912.52        68.16167
912.91        67.24788
913.31        66.87309
913.70        67.12556
914.10        67.85516
914.49        68.71019
914.89        69.00345
915.29        68.60075
915.68         67.7032
916.08        66.74651
916.47        66.36848
916.87        66.75237
917.26        67.67581
917.66         68.7871
918.05        69.54813
918.45        69.77071
918.84        69.61745
919.24        69.29887
919.64        69.21998
920.03        69.48109
920.42        69.91261
920.82        70.28316
921.21        70.25701
921.61        69.79793
922.00        69.13086
922.40        68.52679
922.79        68.27209
923.19        68.13058
923.58        68.77177
923.98        70.43338
924.37        70.85847
924.77        68.84786
925.16        76.05992
925.55        71.36485
925.95        71.97422
926.34        71.93436
926.74        71.14214
927.13        69.67158
927.52        68.68592
927.92        68.69508
928.31        69.11932
928.70        69.76623
929.10        70.27246
929.49        70.55523
929.89        70.73354
930.28        70.79633
930.67        70.61156
931.07        70.20238
931.46        69.49928
931.85        68.75233
932.24        68.78649
932.64        69.70918
933.03        70.79279
933.42        71.33643
933.82        73.22173
934.21        71.73203
934.60        70.57574
934.99        69.45644
935.39        69.28123
935.78        70.06707
936.17        72.09521
936.56        77.79277
936.96        72.06683
937.35        75.35363
937.74        72.60855
938.13        70.58799
938.53        69.01263
938.92        68.54048
939.31        69.55941
939.70          70.999
940.09         71.8013
940.49        71.72003
940.88        71.16026
941.27        70.41618
941.66        70.02138
942.05        70.18758
942.44         70.6689
942.84        71.23601
943.23        71.68267
943.62        71.90839
944.01        71.96463
944.40        71.96534
944.79        72.07994
945.18        72.33065
945.57        72.65828
945.97        72.80518
946.36        72.48468
946.75        71.62924
947.14         70.3771
947.53        69.12024
947.92        68.52674
948.31        68.77146
948.70        69.63515
949.09        70.73601
949.48        71.47916
949.87        71.68762
950.26        71.52519
950.65        71.14381
951.04        70.79836
951.43        70.59212
951.82        70.43517
952.21        70.31094
952.60        70.22375
952.99        70.16029
953.38        70.13211
953.77        70.14333
954.16        70.16873
954.55          70.197
954.94        70.24982
955.33        70.23347
955.72        69.99767
956.11        69.53535
956.50        68.89017
956.89        68.31943
957.28         68.2254
957.66        68.70767
958.05         69.5785
958.44        70.50111
958.83        70.95748
959.22        70.82043
959.61        70.18595
960.00        69.36728
960.39        68.97503
960.78         69.1957
961.16         69.8788
961.55        70.54867
961.94        70.64186
962.33        70.06282
962.72        68.96675
963.11        67.79616
963.49        67.44551
963.88          68.158
964.27        69.59045
964.66        71.11786
965.04        71.90775
965.43        71.73793
965.82        70.90614
966.21        69.77342
966.60        68.98741
966.98        68.78446
967.37          68.952
967.76        69.32325
968.15        69.62139
968.53        69.76589
968.92        69.86622
969.31        69.92634
969.69        69.91246
970.08        69.80326
970.47        69.55239
970.86        69.31976
971.24        69.41608
971.63        69.85503
972.02        70.54342
972.40        71.17133
972.79        71.18431
973.17        70.55605
973.56        69.46835
973.95        68.30486
974.33        67.75531
974.72        68.01917
975.11         68.8517
975.49        70.06161
975.88        71.24239
976.26        72.27031
976.65        73.16787
977.04        73.78596
977.42        73.87366
977.81        73.38168
978.19        72.30875
978.58        71.20149
978.96        71.05019
979.35        72.04374
979.74        73.79219
980.12        75.60741
980.51        76.47404
980.89        76.36198
981.28        75.45482
981.66        74.12894
982.05        73.31771
982.43        73.39705
982.82        74.12316
983.20        75.06642
983.59        75.53539
983.97         75.3931
984.35        74.80515
984.74        74.02623
985.12        73.58238
985.51        73.58971
985.89        73.94941
986.28        74.32275
986.66        74.28001
987.04        73.78887
987.43        72.90257
987.81        71.79807
988.20        72.12178
988.58        74.15379
988.96        75.21246
989.35        74.43198
989.73        79.73195
990.12        76.89145
990.50        76.84252
990.88        76.05538
991.27        75.46403
991.65        75.18981
992.03        75.22408
992.42        75.58605
992.80        75.84824
993.18        75.90152
993.56        75.93851
993.95        75.90273
994.33        75.64936
994.71        75.20839
995.10        74.57373
995.48         74.0667
995.86        74.22276
996.24         75.0977
996.63        76.41311
997.01        77.80925
997.39        78.50366
997.77        78.31299
998.15         77.4977
998.54        76.39532
998.92        75.44241
999.30        74.85563
999.68        74.52338
1000.06        74.47843
1000.45        74.72295
1000.83        75.30253
1001.21        76.19031
1001.59        77.17299
1001.97        77.91059
1002.35        78.32249
1002.73        78.45419
1003.12        78.46521
1003.50        78.64836
1003.88        79.05444
1004.26         79.6244
1004.64        80.20484
1005.02         80.4678
1005.40        80.26774
1005.78        79.66845
1006.16        78.89211
1006.54        78.29909
1006.92        78.02449
1007.30         78.0569
1007.69         78.1265
1008.07        77.90099
1008.45        77.29912
1008.83        76.40565
1009.21        75.71807
1009.59        76.19759
1009.97          77.906
1010.35        80.22424
1010.73         82.3711
1011.11         83.7658
1011.49        84.46629
1011.86        84.47749
1012.24        83.79134
1012.62        84.75781
1013.00        85.44363
1013.38        85.55311
1013.76        84.10849
1014.14        86.70049
1014.52         90.5696
1014.90        84.90292
1015.28        85.24249
1015.66        85.77842
1016.04        82.59048
1016.41         82.4488
1016.79        81.61003
1017.17        81.50161
1017.55        81.66446
1017.93        82.29974
1018.31        83.37608
1018.69        84.32814
1019.06        85.03479
1019.44        85.52527
1019.82        85.83116
1020.20        86.00939
1020.58         86.1245
1020.95        86.10181
1021.33        86.08324
1021.71        86.21405
1022.09        86.50517
1022.46         86.8569
1022.84         87.1419
1023.22        87.28169
1023.60        87.30373
1023.97        87.28584
1024.35        87.21851
1024.73        87.09036
