SpectraSmart Spectrum 2.9.0.0
--------- Device Information -----------
Spectrum Name :  反射率_0
Saving Time :  2024/04/21 00:37:54
Spectro-Module Model Name : SE2030-DUVN
Spectro-Module Serial Number : OS361AC55029948
Wavelength Start : 200
Wavelength End : 1025
Wavelength Unit : Wavelength(nm)
Spectrum Unit : Reflectance(%)
-----------Spectrum Setting ------------
Integration Time : 20ms
Average : 10
Boxcar : 0
Background removal :  enabled
linearity correction :  enabled
SC :  disabled
Intensity correction :  disabled
DWT denoise :  enabled
savitzky-golay :  disabled
FFT :  disabled
Running average :  disabled
Kalman :  disabled
High pass :  disabled
---------------BEGIN--------------------
Wavelength(nm)             Reflectance(%)
200.29               0
200.75       -27.75973
201.21         9.99615
201.67        28.47514
202.13        32.77893
202.58        28.00189
203.04        17.19101
203.50        1.992079
203.96       -11.03804
204.42       -17.27742
204.88        -19.0343
205.34       -18.30297
205.80       -18.72793
206.26       -21.06194
206.72       -20.84988
207.18       -19.67162
207.64       -22.72229
208.10        -29.9271
208.55       -41.80291
209.01       -41.34539
209.47       -12.49363
209.93        20.58486
210.39        45.20866
210.85        59.44112
211.31        63.19683
211.77        58.32352
212.23        43.84389
212.69        14.25377
213.14       -34.20814
213.60       -106.4212
214.06       -277.7707
214.52       -587.1774
214.98       -220.7252
215.44       -45.49219
215.90        8.769592
216.36        24.40539
216.81        21.27121
217.27       -1.432116
217.73       -109.4083
218.19        1171.691
218.65        479.4258
219.11       -1016.358
219.57       -37.77972
220.02        24.22977
220.48        36.01535
220.94        32.10655
221.40        12.45013
221.86       -35.51741
222.32       -63.98764
222.77        -17.6716
223.23        20.94241
223.69        39.78312
224.15        45.47872
224.61        44.18556
225.06        39.44284
225.52         32.5649
225.98         25.1944
226.44        18.56141
226.90        11.35346
227.36        7.042909
227.81        11.59704
228.27        21.38259
228.73        31.55472
229.19        38.31303
229.65        39.80017
230.10        36.97371
230.56        31.35451
231.02        23.86742
231.48        18.37558
231.93        17.95647
232.39        21.34863
232.85        25.61334
233.31        28.08462
233.77        28.82834
234.22        29.16881
234.68        28.98521
235.14        27.96114
235.60        26.41483
236.05        23.56982
236.51        20.20813
236.97        24.01845
237.43        35.64616
237.88        44.33983
238.34        46.03467
238.80        66.52761
239.26        57.30825
239.71        53.22856
240.17        41.59423
240.63        28.97266
241.08        20.76253
241.54         21.0612
242.00        30.63987
242.46        37.55343
242.91        38.65136
243.37        35.75318
243.83        31.40369
244.28        33.29877
244.74        43.73822
245.20        56.38554
245.66        64.76703
246.11        63.22784
246.57        51.59724
247.03        31.86782
247.48        6.655912
247.94       -20.35654
248.40        -53.4114
248.85        -120.681
249.31       -312.4226
249.77       -462.8501
250.22       -171.0919
250.68       -48.29928
251.14       -7.283169
251.59         7.37895
252.05        13.14483
252.51        15.41413
252.96        15.50794
253.42         17.4097
253.88        22.63041
254.33        28.89638
254.79        36.47244
255.25        44.22881
255.70        50.47845
256.16          55.124
256.62        58.07037
257.07        59.38151
257.53         59.9537
257.99        59.95192
258.44        59.38436
258.90        58.91174
259.35        58.11443
259.81        57.38847
260.27        56.54782
260.72        55.50055
261.18        54.63865
261.63         53.7489
262.09        53.00988
262.55        52.18367
263.00        51.18595
263.46        50.23785
263.91        49.30205
264.37        48.75346
264.83        48.48385
265.28        48.31244
265.74        48.13945
266.19        47.62408
266.65        46.79318
267.11        45.70559
267.56        44.44629
268.02        43.23847
268.47        42.11059
268.93        41.06559
269.38        40.06034
269.84        39.09011
270.30        38.14299
270.75        37.23535
271.21        36.43594
271.66        35.76834
272.12        35.25009
272.57         34.8297
273.03        34.43258
273.48        33.91096
273.94        33.26469
274.39        32.50049
274.85         31.7441
275.31        31.11548
275.76        30.63085
276.22        30.28303
276.67        29.96984
277.13         29.6274
277.58        29.19934
278.04        28.74628
278.49        28.28205
278.95        27.90625
279.40        27.58713
279.86         27.3314
280.31        27.04484
280.77         26.6828
281.22         26.2106
281.68        25.71434
282.13        25.22844
282.59        24.88199
283.04        24.66286
283.50        24.54362
283.95        24.48185
284.41        24.44535
284.86        24.40771
285.32        24.40968
285.77         24.3945
286.22        24.29647
286.68         24.1402
287.13        23.90843
287.59        23.76526
288.04        23.85291
288.50        24.15762
288.95         24.7296
289.41        25.43158
289.86        25.58008
290.32        25.06648
290.77        25.85629
291.22        24.90548
291.68        24.98745
292.13         25.2277
292.59        25.66078
293.04        26.25474
293.50        27.03023
293.95        27.98695
294.40        29.10496
294.86        30.32128
295.31        31.51697
295.77        32.66397
296.22        33.77094
296.68        34.91281
297.13        36.20522
297.58        37.68891
298.04        39.33046
298.49        41.06776
298.95        42.82098
299.40         44.5412
299.85        46.25734
300.31        47.98219
300.76        49.71075
301.21        51.45245
301.67         53.2161
302.12        54.99244
302.58        56.88056
303.03        58.86269
303.48        60.97027
303.94        63.14973
304.39        65.25743
304.84        67.27112
305.30        69.23031
305.75         71.1728
306.20        73.27342
306.66        75.54093
307.11         77.8457
307.57        80.07616
308.02        81.98946
308.47        83.57188
308.93        84.94386
309.38         86.1681
309.83        87.41054
310.29        88.77676
310.74        90.15875
311.19        91.55791
311.65        92.93848
312.10        94.26122
312.55        95.54652
313.00        96.76656
313.46        97.87405
313.91        98.84208
314.36        99.68758
314.82        100.4501
315.27        101.1886
315.72        101.9354
316.18        102.6822
316.63        103.4141
317.08        104.1082
317.53        104.7483
317.99        105.3287
318.44        105.8611
318.89        106.3473
319.35        106.7848
319.80        107.1865
320.25         107.517
320.70        107.7286
321.16        107.8164
321.61        107.8192
322.06        107.8252
322.51        107.9826
322.97        108.3065
323.42        108.7953
323.87        109.3227
324.32         109.691
324.78          109.83
325.23        109.8367
325.68        109.8037
326.13        109.9199
326.59        110.2094
327.04        110.6619
327.49        111.1704
327.94        111.5944
328.39        111.8859
328.85        112.0605
329.30        112.2197
329.75        112.3893
330.20        112.5969
330.66        112.7871
331.11        113.0377
331.56        113.3407
332.01        113.6951
332.46        114.0957
332.92        114.4721
333.37        114.8485
333.82        115.1676
334.27        115.4557
334.72         115.724
335.17        115.9948
335.63        116.2561
336.08         116.563
336.53        116.9417
336.98        117.4869
337.43        118.1995
337.88        119.0363
338.34        119.8537
338.79        120.4749
339.24         120.823
339.69        120.9653
340.14        121.0014
340.59        121.0993
341.05        121.3236
341.50        121.6398
341.95        122.0492
342.40        122.5542
342.85        123.1305
343.30        123.7714
343.75         124.398
344.20        124.8844
344.66        125.2047
345.11        125.3616
345.56        125.4185
346.01        125.4865
346.46        125.6132
346.91        125.7631
347.36        125.8906
347.81        126.0052
348.26        126.1133
348.72         125.924
349.17        126.0459
349.62        126.1605
350.07        126.4398
350.52        126.8171
350.97         127.151
351.42        127.2058
351.87        126.9259
352.32        126.3947
352.77        125.7594
353.22        125.2464
353.67        124.9155
354.13        124.7166
354.58        124.5396
355.03         124.261
355.48        123.8453
355.93         123.345
356.38        122.8109
356.83        122.3108
357.28        121.8524
357.73         121.392
358.18         120.894
358.63        120.3158
359.08        119.6507
359.53        118.9285
359.98        118.1558
360.43         117.332
360.88        116.4654
361.33        115.5569
361.78        114.6524
362.23        113.8274
362.68         113.096
363.13        112.4411
363.58        111.7918
364.03        111.0308
364.48        110.1318
364.93        109.1292
365.38        108.1016
365.83        107.1792
366.28        106.3964
366.73        105.7124
367.18        105.0639
367.63        104.3521
368.08        103.5504
368.53        102.6945
368.98        101.8187
369.43        100.9614
369.88        100.1312
370.33          99.313
370.78        98.49209
371.23         97.6672
371.68        96.85034
372.13        96.04787
372.58        95.30332
373.03        94.66338
373.48        94.12151
373.93        93.66476
374.38        93.19777
374.83         92.5759
375.28        91.78786
375.72        90.86852
376.17        89.98798
376.62        89.31907
377.07        88.87446
377.52         88.5704
377.97        88.28341
378.42        87.82236
378.87        87.15401
379.32        86.37591
379.77        85.55522
380.22        84.76427
380.67         84.0256
381.11        83.31085
381.56        82.66657
382.01        82.20126
382.46        81.93256
382.91        81.83389
383.36         81.7722
383.81        81.53508
384.26        81.07449
384.71        80.44324
385.15        79.75243
385.60        79.24966
386.05         78.9597
386.50        78.80923
386.95        78.68085
387.40        78.40009
387.85        77.93693
388.29        77.31759
388.74        76.73388
389.19         76.2428
389.64        75.85378
390.09        75.51797
390.54        75.19345
390.98        74.80888
391.43        74.40714
391.88         74.0183
392.33        73.66286
392.78        73.39217
393.23        73.21069
393.67        72.96358
394.12         72.7507
394.57         72.7421
395.02        72.82707
395.47        72.54718
395.91        71.94645
396.36         71.4796
396.81        71.21268
397.26        70.93019
397.71        70.60933
398.15        70.31352
398.60        70.11736
399.05        69.83345
399.50        69.56909
399.95        69.68551
400.39        70.06519
400.84        70.17329
401.29        69.93104
401.74        69.42281
402.18        68.81867
402.63        68.56232
403.08        68.61994
403.53        68.43653
403.97        67.99483
404.42        67.69803
404.87        67.58667
405.32        67.51788
405.76         67.4647
406.21        67.54214
406.66        67.65257
407.11        67.44489
407.55        66.97823
408.00        66.75732
408.45        66.79606
408.90        66.45583
409.34        65.86187
409.79         65.8397
410.24         66.2741
410.68        66.40282
411.13         66.1775
411.58        65.98237
412.03        65.85632
412.47         65.7248
412.92        65.58692
413.37        65.47038
413.81        65.37621
414.26        65.36156
414.71        65.40815
415.15        65.51567
415.60         65.6098
416.05        65.62169
416.49        65.53329
416.94        65.35468
417.39        65.14283
417.83        64.98013
418.28        64.88959
418.73        64.84494
419.17        64.80918
419.62        64.73177
420.07        64.60644
420.51        64.45585
420.96        64.33102
421.41        64.27482
421.85        64.26842
422.30        64.27834
422.74        64.28149
423.19        64.44893
423.64        64.71633
424.08        64.87231
424.53        64.81489
424.98        64.75777
425.42         64.7261
425.87        64.43512
426.31        64.05473
426.76        64.19699
427.21        64.77357
427.65        65.03336
428.10         64.8684
428.54        64.80688
428.99        64.87022
429.44         64.6853
429.88        64.33183
430.33        64.22668
430.77        64.30879
431.22        64.48317
431.66        64.64549
432.11        64.66547
432.56        64.56152
433.00        64.36555
433.45        64.03014
433.89        64.01302
434.34        64.40454
434.78        64.00269
435.23        64.14963
435.67        64.89744
436.12        64.66834
436.57        64.59223
437.01        64.28732
437.46        64.03053
437.90        64.47191
438.35        64.71497
438.79        64.67445
439.24        64.69609
439.68        64.70009
440.13        64.62001
440.57        64.50458
441.02        64.48075
441.46        64.59166
441.91        64.89221
442.35        65.20242
442.80        65.58403
443.24        65.89317
443.69        65.77484
444.13        65.33816
444.58        65.09862
445.02        65.12109
445.47        65.34093
445.91        65.62455
446.36        65.75058
446.80        65.66785
447.24        65.44514
447.69        65.18514
448.13        65.19648
448.58        65.27184
449.02        65.20737
449.47        64.97375
449.91        64.88448
450.36        64.96269
450.80        64.94805
451.25        64.86826
451.69        64.92679
452.13        65.06717
452.58        64.96013
453.02        64.62991
453.47        64.40515
453.91        64.30112
454.36        64.17188
454.80        64.02607
455.24        63.89404
455.69         63.7852
456.13        63.72468
456.58        63.82238
457.02         63.5089
457.46        64.14438
457.91         63.9105
458.35        63.42571
458.79        63.15125
459.24        63.20111
459.68         63.1389
460.13        62.93598
460.57        62.85905
461.01          62.981
461.46        62.20678
461.90        62.55196
462.34        62.12232
462.79        62.45729
463.23        62.04349
463.68        62.56107
464.12        62.25927
464.56        61.69974
465.01        61.81548
465.45         62.3632
465.89         62.2882
466.34        61.69766
466.78        61.45859
467.22        61.59586
467.67        61.67339
468.11        61.42508
468.55        61.15221
468.99        60.84005
469.44        60.59888
469.88        60.44539
470.32        60.27861
470.77        60.12183
471.21        60.06092
471.65        60.09778
472.10        60.20857
472.54        60.30987
472.98         60.3198
473.42        60.22807
473.87        59.99989
474.31        59.70908
474.75        59.73715
475.20        60.00589
475.64         60.0183
476.08        59.81266
476.52        59.73543
476.97        59.75967
477.41         59.8933
477.85        60.13466
478.29         59.4874
478.74        59.73615
479.18        59.46948
479.62        59.59619
480.06        59.60079
480.50        59.62598
480.95        59.61128
481.39        59.44559
481.83        59.99393
482.27        59.61322
482.72        59.77421
483.16        59.51345
483.60        59.82452
484.04        59.79218
484.48        59.54049
484.93        59.49751
485.37        59.38318
485.81        59.87455
486.25         59.4286
486.69        61.65323
487.14        62.03476
487.58        60.85555
488.02         59.5995
488.46        59.25654
488.90         59.4955
489.34        59.01022
489.79        58.58014
490.23        59.26838
490.67        59.30317
491.11        59.14112
491.55        58.93351
491.99        58.76496
492.43        58.70749
492.88        58.58728
493.32        58.60601
493.76        58.64404
494.20         58.6725
494.64        58.69889
495.08        58.44191
495.52        58.47922
495.96        58.43161
496.41        58.43845
496.85        58.36189
497.29        58.20478
497.73        58.34913
498.17        58.43264
498.61        58.49167
499.05        58.38038
499.49        58.14632
499.93        57.91355
500.37        57.84395
500.82        57.93198
501.26        58.23981
501.70        58.61271
502.14        58.26949
502.58        57.80817
503.02        57.58356
503.46        57.73533
503.90        57.88679
504.34        57.94403
504.78        57.98045
505.22        57.98434
505.66        57.88117
506.10        57.73391
506.54        57.76266
506.98        58.00541
507.42        57.76073
507.86        58.47718
508.30        57.98861
508.74        58.19088
509.18        57.88605
509.62        57.59612
510.06        57.42015
510.50        57.37279
510.94        57.34966
511.38        57.30435
511.82        57.26804
512.26        57.22356
512.70        57.14861
513.14        57.05709
513.58        56.99202
514.02        56.96215
514.46        56.94032
514.90        56.90448
515.34        56.92276
515.78         56.9109
516.22        56.89466
516.66         56.7073
517.10        56.99584
517.54        56.79025
517.98        56.84598
518.42        56.87465
518.86        56.89814
519.30        56.91167
519.74        56.88454
520.18        56.84542
520.62        56.90423
521.06        57.02249
521.50         56.9883
521.93        56.82136
522.37         56.7352
522.81        56.74498
523.25        56.73319
523.69        56.68727
524.13        56.64006
524.57        56.59054
525.01         56.5323
525.45        56.48159
525.89        56.46198
526.32        56.47639
526.76        56.52525
527.20        56.58529
527.64        56.62198
528.08        56.62539
528.52        56.60254
528.96        56.57872
529.40        56.58743
529.83        56.63125
530.27        56.72531
530.71        56.81634
531.15        56.81828
531.59        56.72088
532.03         56.5599
532.46        56.39212
532.90        56.32027
533.34        56.36008
533.78        56.47447
534.22        56.60999
534.66        56.68449
535.09        56.66779
535.53        56.60844
535.97        56.51572
536.41        56.41846
536.85        56.33381
537.28        56.25473
537.72        56.20098
538.16         56.2075
538.60        56.27412
539.04        56.38729
539.47        56.50108
539.91        56.59164
540.35        56.63023
540.79        56.62781
541.22        56.58799
541.66        56.53342
542.10        56.46967
542.54        56.39167
542.97        56.30606
543.41        56.25329
543.85        56.23575
544.29        56.25827
544.72        56.28876
545.16        56.32128
545.60        56.33998
546.04         56.2902
546.47        56.21965
546.91        56.32848
547.35        56.55562
547.79        56.61776
548.22        56.48867
548.66        56.35103
549.10        56.25136
549.53        56.19481
549.97        56.18554
550.41        56.15066
550.84        56.09941
551.28        56.06908
551.72        56.05499
552.15        56.10775
552.59        56.24075
553.03        56.05223
553.46        56.33041
553.90        56.24881
554.34        55.99516
554.77        56.29725
555.21        55.92276
555.65        56.00861
556.08        56.15578
556.52        56.33191
556.96        56.45441
557.39        56.51065
557.83        56.47629
558.27        56.24321
558.70        55.91744
559.14        55.70555
559.57        55.67168
560.01         55.9491
560.45        56.35703
560.88        56.40224
561.32        56.16222
561.75        55.95526
562.19        55.90203
562.63        56.12401
563.06        56.48368
563.50        56.38268
563.93        55.89824
564.37        55.77116
564.80        55.99069
565.24        56.13131
565.68        56.15253
566.11        56.18218
566.55        56.22227
566.98        56.26799
567.42        56.36752
567.85        56.22227
568.29        56.39842
568.72        56.43057
569.16        56.53479
569.60        56.58441
570.03        56.84108
570.47        57.02411
570.90        57.12778
571.34        57.31253
571.77        57.45117
572.21        57.35519
572.64        57.50655
573.08        57.47203
573.51        57.07457
573.95        57.30697
574.38        57.78519
574.82        58.53239
575.25        58.40025
575.69        58.13871
576.12        57.22746
576.56         57.4729
576.99        57.42769
577.42        57.87136
577.86        58.16665
578.29        58.51587
578.73        59.04881
579.16        58.35884
579.60         57.5397
580.03        57.64679
580.47        57.74332
580.90        57.74927
581.33        58.25319
581.77        58.42009
582.20        58.87281
582.64        59.10227
583.07        58.68127
583.51        58.08618
583.94        57.85485
584.37        57.40377
584.81        57.16258
585.24         57.2684
585.68        57.96892
586.11        58.09005
586.54        58.06108
586.98         57.7611
587.41        57.93648
587.85        57.79951
588.28        57.88155
588.71        58.05512
589.15        57.63763
589.58        57.51442
590.01        57.44674
590.45        57.19758
590.88        57.33398
591.31        56.85344
591.75        56.69412
592.18        56.64302
592.61        56.82493
593.05        57.66888
593.48        57.43917
593.91        57.80704
594.35        57.84575
594.78          57.916
595.21        57.27427
595.65         57.1217
596.08        57.25858
596.51        57.41793
596.94        57.06398
597.38        56.97344
597.81         57.0445
598.24        57.04527
598.68        57.06002
599.11        56.96481
599.54        57.49049
599.97        57.32769
600.41         57.2292
600.84         57.4192
601.27        57.43391
601.70        57.27033
602.14        57.12739
602.57        56.94665
603.00        56.80936
603.43        57.31226
603.87        57.46395
604.30        57.39421
604.73        57.24792
605.16        57.19133
605.60        56.98305
606.03         57.0958
606.46        57.34972
606.89        57.07034
607.32         56.7841
607.76        57.00209
608.19        56.87043
608.62        57.05793
609.05        57.68676
609.48        57.02919
609.92        56.58645
610.35        57.15653
610.78        56.96174
611.21        56.79749
611.64        56.83077
612.07         56.7503
612.50        56.79809
612.94        56.73524
613.37        56.57304
613.80        56.81451
614.23        56.70138
614.66        56.55357
615.09        56.60904
615.52        56.61521
615.96        56.69174
616.39        56.62025
616.82        56.37486
617.25        56.54723
617.68        56.22578
618.11        56.16691
618.54         56.2309
618.97        56.25733
619.40        56.30281
619.84        56.03975
620.27        56.28917
620.70        56.19494
621.13        56.02582
621.56        55.93737
621.99        55.96275
622.42        56.01869
622.85        56.05922
623.28         56.1558
623.71        56.27315
624.14        56.41381
624.57        56.13194
625.00        56.63084
625.43        56.06516
625.86        56.12698
626.29         56.3418
626.72        55.85783
627.15        55.95698
627.58        55.82379
628.01        55.93587
628.44        55.61799
628.87        55.52094
629.30        56.06376
629.73        55.89816
630.16         55.7872
630.59        55.76353
631.02        55.97166
631.45        55.74594
631.88        55.75251
632.31        55.78938
632.74         55.5716
633.17        55.65882
633.60        55.56989
634.03        55.48185
634.46        55.43586
634.89        55.36553
635.32        55.37133
635.75        55.42196
636.18         55.5112
636.61        55.60558
637.04        55.65524
637.47        55.64754
637.89        55.60103
638.32        55.52478
638.75         55.4597
639.18         55.4197
639.61        55.39629
640.04        55.38683
640.47        55.38669
640.90         55.3925
641.33        55.40712
641.76        55.42827
642.18        55.45567
642.61         55.4747
643.04         55.4911
643.47        55.50128
643.90        55.50591
644.33        55.50587
644.76         55.4874
645.18        55.46281
645.61        55.47624
646.04        55.51746
646.47        55.51709
646.90        55.47824
647.33        55.46393
647.75        55.46557
648.18        55.46822
648.61        55.49221
649.04        55.48495
649.47        55.42745
649.89         55.7094
650.32        55.68651
650.75        55.66072
651.18          55.487
651.61        55.44215
652.03        55.52794
652.46        55.51612
652.89        55.49518
653.32        55.57706
653.74        55.66932
654.17        55.93801
654.60        55.87819
655.03         54.9481
655.46        55.18375
655.88        56.04491
656.31        57.98227
656.74        63.40319
657.16        62.54975
657.59        60.91165
658.02        57.62186
658.45        56.08338
658.87        55.97141
659.30        55.74255
659.73        55.45162
660.15        54.85234
660.58        55.67405
661.01         55.9644
661.44        56.06547
661.86        55.83468
662.29        55.39182
662.72        55.24343
663.14        55.42162
663.57        55.56444
664.00        55.60048
664.42        55.64027
664.85        55.66833
665.27        55.51043
665.70        55.39157
666.13        55.29575
666.55        55.30227
666.98        55.35091
667.41        55.41666
667.83        55.47219
668.26         55.5135
668.69         55.5095
669.11         55.4503
669.54        55.51441
669.96        55.74889
670.39        55.35561
670.82        55.68628
671.24        55.69226
671.67        55.75267
672.09        55.84733
672.52        55.96257
672.94        55.93172
673.37        55.78279
673.80        55.72429
674.22        55.77425
674.65        55.76207
675.07        55.70657
675.50        55.70279
675.92         55.7459
676.35         55.7578
676.77        55.72961
677.20        55.70358
677.62        55.71492
678.05        55.72749
678.47        55.72882
678.90        56.02119
679.32        56.01477
679.75        56.12343
680.17        56.16826
680.60        56.17771
681.02         56.1533
681.45         56.1111
681.87         56.0699
682.30        55.99177
682.72        55.92474
683.15        55.96119
683.57        56.05925
684.00        56.21682
684.42        56.03417
684.85        56.04401
685.27        56.11353
685.70        56.14878
686.12         56.1293
686.54        56.11748
686.97        56.11084
687.39        56.11654
687.82        56.13839
688.24        56.15516
688.66        56.14761
689.09        56.34506
689.51        56.31337
689.94        56.40798
690.36        56.48237
690.78        56.49094
691.21         56.4543
691.63        56.40701
692.06        56.39797
692.48           56.51
692.90        56.69141
693.33        56.73914
693.75        56.64202
694.17        56.50524
694.60        56.35565
695.02        56.31075
695.44        56.18197
695.87        56.21815
696.29        56.35918
696.71        56.51376
697.14        56.63702
697.56        56.81866
697.98        57.02033
698.41        56.85835
698.83        56.89652
699.25         56.6793
699.68        56.43309
700.10        56.26569
700.52        56.21297
700.94        56.24129
701.37        56.30133
701.79        56.36288
702.21        56.38804
702.64        56.39896
703.06         56.4044
703.48        56.42182
703.90        56.46031
704.33        56.50727
704.75        56.55764
705.17        56.58987
705.59        56.60015
706.01        56.58891
706.44         56.5862
706.86         56.6558
707.28        56.79148
707.70        56.97351
708.12        57.14391
708.55        57.20594
708.97        57.13752
709.39        56.97774
709.81        56.79054
710.23        56.69276
710.66        56.72266
711.08        56.85581
711.50        57.02576
711.92         57.1426
712.34        57.18099
712.76        57.16621
713.19        57.12476
713.61        57.14305
714.03        57.21584
714.45        57.32668
714.87        57.44574
715.29         57.4922
715.71        57.44674
716.13        57.48344
716.56        57.34145
716.98        57.30919
717.40        57.30748
717.82         57.3321
718.24        57.36979
718.66        57.40365
719.08        57.42927
719.50        57.44857
719.92        57.47033
720.34        57.50529
720.76        57.55432
721.19        57.60556
721.61        57.65704
722.03        57.68002
722.45        57.67162
722.87        57.64133
723.29        57.61529
723.71        57.63542
724.13        57.71164
724.55        57.82978
724.97        57.96449
725.39        58.07455
725.81        58.14425
726.23        58.17992
726.65         58.1927
727.07        58.20752
727.49        58.23301
727.91        58.24932
728.33        58.24778
728.75        58.25442
729.17        58.25378
729.59        58.16787
730.01        58.04524
730.43         58.0411
730.85        58.17009
731.27         58.3403
731.69        58.50546
732.10         58.5876
732.52        58.74427
732.94        58.57077
733.36        58.20601
733.78        58.08039
734.20        58.26621
734.62        58.16879
735.04        58.45078
735.46        58.52953
735.88        58.59519
736.30        58.64775
736.72        58.67759
737.13        58.67692
737.55         58.6104
737.97        58.46484
738.39        58.31686
738.81        58.37424
739.23        58.62101
739.65        58.83279
740.06        58.89487
740.48        58.91599
740.90        58.85125
741.32        58.62428
741.74        58.32711
742.16        58.18264
742.57        58.25203
742.99        58.45275
743.41         58.6992
743.83        58.83718
744.25        58.82386
744.67        58.70271
745.08        58.55872
745.50        58.49228
745.92        58.54778
746.34        58.68831
746.75        58.83823
747.17        58.87605
747.59        58.77847
748.01        58.56097
748.42        58.32477
748.84        58.25617
749.26        58.36024
749.68        58.52761
750.09        58.68227
750.51        58.66533
750.93        58.53374
751.35        58.62444
751.76        58.91148
752.18        59.04205
752.60        58.99773
753.01         59.0043
753.43        59.03083
753.85        58.96976
754.27        58.82954
754.68        58.65589
755.10        58.51114
755.52        58.46877
755.93         58.5369
756.35        58.68154
756.77        58.88673
757.18        59.05719
757.60        59.16993
758.02         59.3583
758.43        59.57331
758.85        59.20383
759.26        59.34308
759.68         58.7447
760.10        58.68766
760.51         58.4953
760.93        58.99101
761.34        59.08001
761.76        59.35981
762.18        59.35487
762.59        59.19343
763.01        59.19886
763.42        58.68038
763.84        58.83593
764.26        59.03131
764.67        59.56139
765.09         60.1105
765.50        60.32539
765.92        60.19822
766.33        59.91076
766.75        59.56327
767.16        59.31033
767.58          59.167
768.00        59.27286
768.41        59.55501
768.83         59.4508
769.24        59.02129
769.66        59.37732
770.07        59.45467
770.49         59.7777
770.90        59.92385
771.32        59.66869
771.73        59.15672
772.15        58.95527
772.56        59.13874
772.97        59.38232
773.39        59.55994
773.80        59.67721
774.22        59.66502
774.63        59.55521
775.05        59.39117
775.46        59.28955
775.88        59.26281
776.29        59.29576
776.70        59.35263
777.12        59.38849
777.53          59.402
777.95        59.40677
778.36        59.39568
778.77        59.34632
779.19        59.26527
779.60        59.16875
780.02        59.08991
780.43        59.11857
780.84        59.26949
781.26        59.44497
781.67        59.64232
782.09        59.91591
782.50        60.16879
782.91        60.17503
783.33        59.95912
783.74        59.85812
784.15         59.8799
784.57        59.87024
784.98        59.84268
785.39        59.85221
785.81         59.9068
786.22        60.02103
786.63        60.16648
787.04        60.26673
787.46        60.31297
787.87        60.31134
788.28        60.28906
788.70        60.24623
789.11         60.1719
789.52        60.15418
789.93        60.17797
790.35        60.03627
790.76        59.81937
791.17         59.9312
791.58        60.31902
792.00        60.50011
792.41        60.45964
792.82        60.50132
793.23        60.66845
793.65        60.71731
794.06        60.71219
794.47         61.0606
794.88        61.68691
795.29        61.66125
795.71        61.88626
796.12        61.86093
796.53        61.84313
796.94        61.62482
797.35        61.25756
797.76        60.97307
798.18         60.8176
798.59        60.68516
799.00        60.58439
799.41        60.62747
799.82         60.7526
800.23        60.78551
800.64        60.69564
801.06        60.51426
801.47        60.34177
801.88        60.27809
802.29        60.35157
802.70        60.51222
803.11        60.71527
803.52        60.88936
803.93        61.00647
804.34        61.09172
804.75        61.13559
805.17        61.13512
805.58        61.12967
805.99        61.03782
806.40        60.92443
806.81        61.07155
807.22        61.40923
807.63         61.5201
808.04        61.43039
808.45        61.51746
808.86         61.7858
809.27        62.00179
809.68        62.10733
810.09        62.11686
810.50        62.02008
810.91        61.82237
811.32        61.58345
811.73        61.40419
812.14        61.31903
812.55        61.30696
812.96        61.36305
813.37        61.46501
813.78        61.59396
814.19        61.75909
814.60        61.90743
815.01        61.95847
815.42        61.89711
815.83         61.7268
816.24        61.52968
816.65        61.46569
817.05        61.58538
817.46        61.83044
817.87        62.09955
818.28        62.19333
818.69        62.07752
819.10        61.80999
819.51        61.54448
819.92        61.55262
820.33        61.89147
820.74        62.44652
821.14        63.03018
821.55         63.3829
821.96        63.41738
822.37        63.21002
822.78        62.84029
823.19        62.45528
823.60        62.12858
824.00        61.84132
824.41        61.58281
824.82        61.39242
825.23         61.2781
825.64        61.26302
826.04        61.33838
826.45        61.43114
826.86        61.53478
827.27        61.65779
827.68        61.80343
828.08         62.0065
828.49        62.19352
828.90        62.38069
829.31        62.58252
829.72        62.72394
830.12        62.79724
830.53        63.22892
830.94        63.16202
831.35        63.07865
831.75        62.74945
832.16        62.21818
832.57        61.70631
832.97        61.57876
833.38        61.90369
833.79        62.55243
834.20        63.27392
834.60        63.68979
835.01        63.70244
835.42        63.41892
835.82        63.00039
836.23        62.68579
836.64        62.58546
837.04        62.64552
837.45        62.76578
837.86         62.8424
838.26        62.85168
838.67        62.82301
839.08        62.83438
839.48        62.98419
839.89        63.27573
840.29        63.65954
840.70        64.03349
841.11        64.23357
841.51        64.23513
841.92        64.06078
842.33        63.81609
842.73        63.67811
843.14        63.65953
843.54        63.73616
843.95        63.86566
844.35        63.99762
844.76        64.09782
845.17        64.19609
845.57         64.2762
845.98         64.2707
846.38        64.20597
846.79        64.07613
847.19        63.97076
847.60        63.96722
848.00        64.11403
848.41        64.34306
848.81        64.64603
849.22        64.93363
849.62        65.19891
850.03        65.42605
850.43        65.59126
850.84        65.55895
851.24        65.36906
851.65        64.98483
852.05        64.60181
852.46        64.48357
852.86         64.6892
853.27         65.1656
853.67        65.62597
854.07        65.80013
854.48        65.60659
854.88        65.15096
855.29        64.57635
855.69        64.31112
856.10        64.38872
856.50        64.77146
856.90        65.20373
857.31        65.30374
857.71        65.01796
858.12        64.41673
858.52         63.7007
858.92        63.14213
859.33        62.83668
859.73        62.76792
860.13        62.83471
860.54        62.86559
860.94        62.86899
861.34        62.85526
861.75        62.89186
862.15        63.15657
862.55        63.61756
862.96        64.16396
863.36         64.6449
863.76        64.78549
864.17        64.52164
864.57        63.97646
864.97         63.2632
865.38        62.56186
865.78         62.0082
866.18        61.56748
866.58        61.35261
866.99        61.51188
867.39        62.06367
867.79        62.91859
868.19        63.82009
868.60        64.32027
869.00        64.41975
869.40        64.40524
869.80        64.29992
870.21        63.97163
870.61        63.53235
871.01        63.08946
871.41        62.72141
871.81        62.44433
872.22        62.28761
872.62        62.27003
873.02        62.34718
873.42        62.59712
873.82        62.79392
874.22        62.42467
874.63        61.80396
875.03        61.57491
875.43        61.83076
875.83        63.27712
876.23        62.98956
876.63        62.54815
877.03        61.65015
877.44        59.71263
877.84        171.4809
878.24        60.97139
878.64        61.67461
879.04        63.03661
879.44        63.33105
879.84         59.6953
880.24        64.89084
880.64        65.10983
881.04        62.67676
881.44        60.87447
881.84        60.27424
882.24         60.9887
882.65        62.30297
883.05        62.65265
883.45        61.73853
883.85        60.49345
884.25        59.44383
884.65        59.00552
885.05        59.32873
885.45        60.17499
885.85        61.15636
886.25        61.74647
886.65        61.80424
887.05        61.50251
887.45         60.9751
887.85         60.4462
888.25        60.02904
888.65          59.653
889.04         59.3934
889.44        59.39027
889.84        59.64141
890.24        60.11305
890.64        60.64444
891.04        60.98269
891.44        61.07513
891.84        60.98705
892.24        60.81224
892.64        60.72658
893.04        60.78738
893.44        60.93256
893.83        61.14542
894.23        61.37392
894.63        61.60812
895.03        61.87631
895.43        62.13635
895.83        62.30458
896.23        62.36996
896.63        62.34502
897.02        62.29782
897.42        62.39671
897.82        62.63488
898.22        62.95205
898.62        63.24536
899.01        63.35594
899.41        63.22227
899.81        62.92166
900.21          62.508
900.61        62.06829
901.00        61.64475
901.40        61.29459
901.80        61.08768
902.20         60.9749
902.59        60.93226
902.99        61.25867
903.39        61.99497
903.79        61.41981
904.18        62.30523
904.58        62.39588
904.98        62.45489
905.38        62.31518
905.77        61.97672
906.17        61.49089
906.57        60.98078
906.96        60.75797
907.36        60.89121
907.76        61.33023
908.15        61.92265
908.55        62.25701
908.95        62.27592
909.34        62.02897
909.74        61.76262
910.14        61.83503
910.53        62.30655
910.93        63.03033
911.33        63.68836
911.72        63.78599
912.12        63.24343
912.52        62.25206
912.91        61.13581
913.31        60.47786
913.70        60.40337
914.10        60.74411
914.49        61.29572
914.89        61.62681
915.29        61.62462
915.68         61.4068
916.08        61.11633
916.47        60.92018
916.87        60.90796
917.26        61.00787
917.66        61.15793
918.05        61.29592
918.45        61.37674
918.84        61.42837
919.24        61.50178
919.64        61.72773
920.03        62.11718
920.42        62.60121
920.82        63.00484
921.21        63.07422
921.61        62.79585
922.00        62.32119
922.40        61.92436
922.79        61.89618
923.19        61.91308
923.58        62.80291
923.98        64.75711
924.37        64.93608
924.77        61.84452
925.16        69.96719
925.55        63.22594
925.95        63.57026
926.34        63.57641
926.74        62.98747
927.13        61.73754
927.52        60.98766
927.92        61.21749
928.31        61.78785
928.70        62.47566
929.10        62.86423
929.49        62.88931
929.89        62.69712
930.28        62.37334
930.67        61.97765
931.07        61.60191
931.46        61.11276
931.85        60.71666
932.24        61.22335
932.64        62.68178
933.03        64.22586
933.42        65.03703
933.82        67.46755
934.21        65.78896
934.60        64.47099
934.99        63.15006
935.39        62.94302
935.78        63.87161
936.17        66.29204
936.56        73.10498
936.96        65.93053
937.35        69.58772
937.74        65.70507
938.13        62.67067
938.53         60.3927
938.92        59.81411
939.31        61.38405
939.70        63.56013
940.09        64.76754
940.49        64.65224
940.88        63.75817
941.27         62.5535
941.66        61.90508
942.05        62.13857
942.44        62.87728
942.84        63.70779
943.23        64.18748
943.62        64.17125
944.01        63.81279
944.40        63.39358
944.79        63.35542
945.18        63.79351
945.57        64.54241
945.97        65.19749
946.36        65.25549
946.75        64.56751
947.14         63.3143
947.53        61.92514
947.92        61.13988
948.31        61.17234
948.70        61.79668
949.09        62.62068
949.48        63.02954
949.87        62.86856
950.26        62.34893
950.65        61.70735
951.04        61.32272
951.43        61.31791
951.82        61.54086
952.21        61.90081
952.60        62.26426
952.99        62.54113
953.38        62.76562
953.77        62.89284
954.16        62.83883
954.55        62.61284
954.94        62.25719
955.33        61.83345
955.72        61.48066
956.11        61.27012
956.50        61.16243
956.89        61.23915
957.28        61.60558
957.66        62.26691
958.05        63.10643
958.44        63.86441
958.83        64.14447
959.22        63.86085
959.61        63.06507
960.00        62.06631
960.39        61.48973
960.78         61.5397
961.16        62.10169
961.55        62.68912
961.94        62.71317
962.33        62.07311
962.72        60.93803
963.11        59.75843
963.49        59.44278
963.88        60.24434
964.27        61.78218
964.66        63.44065
965.04        64.41592
965.43        64.47638
965.82        63.91184
966.21        62.99888
966.60        62.23831
966.98        61.83991
967.37        61.64865
967.76        61.62821
968.15        61.71888
968.53        61.89875
968.92        62.22216
969.31        62.59726
969.69        62.82488
970.08         62.8305
970.47        62.61266
970.86        62.35493
971.24        62.41101
971.63        62.81602
972.02        63.44901
972.40        64.02451
972.79        64.02166
973.17        63.42564
973.56        62.43932
973.95        61.39906
974.33        60.90186
974.72        61.13162
975.11        61.84653
975.49        62.96254
975.88        64.25651
976.26        65.61725
976.65        66.98715
977.04        68.02134
977.42        68.18172
977.81        67.35761
978.19        65.60852
978.58        63.67083
978.96        62.93675
979.35        63.75996
979.74        65.63416
980.12        67.68966
980.51        68.64156
980.89         68.4133
981.28        67.27553
981.66        65.65703
982.05        64.66947
982.43        64.74508
982.82        65.57462
983.20        66.70256
983.59        67.42546
983.97        67.58498
984.35        67.37273
984.74        66.93137
985.12         66.5722
985.51        66.38591
985.89        66.34661
986.28        66.34711
986.66        66.31068
987.04         66.2806
987.43        66.21935
987.81        65.99258
988.20        66.92518
988.58        69.14458
988.96        69.67969
989.35          67.778
989.73        74.08755
990.12        70.64835
990.50        71.18892
990.88        70.83299
991.27        70.05685
991.65        68.80743
992.03        67.34526
992.42        66.16213
992.80        65.44051
993.18         65.3237
993.56        65.80173
993.95        66.67937
994.33        67.55991
994.71        68.27269
995.10         68.8299
995.48        69.19562
995.86        69.33178
996.24        69.25124
996.63        68.89581
997.01        68.42358
997.39        67.91331
997.77         67.4091
998.15        66.90916
998.54        66.53661
998.92        66.34129
999.30        66.38631
999.68        66.74258
1000.06        67.21137
1000.45        67.33375
1000.83        67.08831
1001.21        66.55882
1001.59        66.22046
1001.97        66.78301
1002.35        68.22558
1002.73        70.14179
1003.12        71.96745
1003.50        73.07524
1003.88        73.33829
1004.26        72.96046
1004.64        72.14262
1005.02        71.32352
1005.40        70.72784
1005.78        70.25215
1006.16        69.88128
1006.54        69.54307
1006.92        69.24696
1007.30        69.16687
1007.69        69.22163
1008.07        69.34317
1008.45        69.49001
1008.83        69.60497
1009.21        69.96901
1009.59        71.09275
1009.97         72.8514
1010.35        74.80248
1010.73        76.36346
1011.11        77.19082
1011.49        77.42544
1011.86        76.88638
1012.24        75.55716
1012.62        76.92889
1013.00        78.05511
1013.38         78.5323
1013.76        76.85931
1014.14        80.98965
1014.52        86.70945
1014.90        78.88661
1015.28        79.45406
1015.66        80.36527
1016.04        76.26543
1016.41        76.41479
1016.79        75.47527
1017.17        75.03835
1017.55        74.43917
1017.93        74.01965
1018.31        74.18214
1018.69        74.89843
1019.06         76.1702
1019.44        77.80666
1019.82        79.24213
1020.20        79.75697
1020.58        79.23849
1020.95        77.61044
1021.33        75.45758
1021.71        74.52081
1022.09        75.58049
1022.46        77.76601
1022.84        79.81005
1023.22        80.78774
1023.60        80.76319
1023.97        80.16624
1024.35        79.24072
1024.73        78.47552
