SpectraSmart Spectrum 2.9.0.0
--------- Device Information -----------
Spectrum Name :  反射率_0
Saving Time :  2024/04/21 00:18:04
Spectro-Module Model Name : SE2030-DUVN
Spectro-Module Serial Number : OS361AC55029948
Wavelength Start : 200
Wavelength End : 1025
Wavelength Unit : Wavelength(nm)
Spectrum Unit : Reflectance(%)
-----------Spectrum Setting ------------
Integration Time : 20ms
Average : 10
Boxcar : 0
Background removal :  enabled
linearity correction :  enabled
SC :  disabled
Intensity correction :  disabled
DWT denoise :  enabled
savitzky-golay :  disabled
FFT :  disabled
Running average :  disabled
Kalman :  disabled
High pass :  disabled
---------------BEGIN--------------------
Wavelength(nm)             Reflectance(%)
200.29               0
200.75       -40.27577
201.21       -1.931266
201.67        19.19255
202.13        27.94547
202.58        29.63717
203.04        27.36151
203.50        22.59491
203.96        18.77517
204.42        17.31855
204.88        16.38111
205.34        13.86234
205.80        5.894079
206.26        -9.42011
206.72       -29.99061
207.18       -55.28127
207.64       -82.25509
208.10       -102.6461
208.55       -115.2061
209.01       -101.9981
209.47       -54.59409
209.93       -7.983908
210.39        24.59063
210.85        44.37067
211.31        54.48549
211.77        58.97027
212.23        60.08576
212.69        56.01921
213.14        40.91306
213.60       -1.488317
214.06       -150.7088
214.52       -547.2956
214.98       -260.6032
215.44       -57.34591
215.90        14.04333
216.36        38.67841
216.81        42.49865
217.27        30.39078
217.73       -36.58866
218.19        786.9471
218.65        359.7276
219.11       -764.9669
219.57       -22.37886
220.02        25.35566
220.48        33.87091
220.94        29.51859
221.40        11.88892
221.86       -30.01151
222.32       -54.64188
222.77       -14.12455
223.23        19.34128
223.69        35.79868
224.15        41.23849
224.61        41.01028
225.06        38.26168
225.52        33.62953
225.98        27.55629
226.44        20.82534
226.90        12.35787
227.36        6.510284
227.81         11.0504
228.27        22.13094
228.73        33.74539
229.19        41.32674
229.65        42.62994
230.10        38.65428
230.56        30.92773
231.02        20.69176
231.48        13.47291
231.93        13.46147
232.39        18.66433
232.85        25.06413
233.31        29.25892
233.77        31.37046
234.22         32.9738
234.68        34.11419
235.14        34.63515
235.60        34.80751
236.05        33.85486
236.51        32.31575
236.97        36.49191
237.43        46.73507
237.88         54.1929
238.34        55.74771
238.80        72.87548
239.26        66.27943
239.71        64.44872
240.17        57.26728
240.63        49.41988
241.08        44.62039
241.54        45.35765
242.00        52.74823
242.46        60.00303
242.91        65.99974
243.37        72.32689
243.83        79.86112
244.28        88.04266
244.74        94.19669
245.20        97.15929
245.66        95.55219
246.11        88.07399
246.57        75.09705
247.03        56.84189
247.48        36.04027
247.94        17.46668
248.40       0.3847434
248.85       -25.09004
249.31       -81.72359
249.77       -108.8712
250.22       -19.86325
250.68        13.90409
251.14        24.39529
251.59        27.80094
252.05        29.04764
252.51        29.48025
252.96         30.4571
253.42        36.39057
253.88        47.63975
254.33        60.42026
254.79        71.85817
255.25        78.95522
255.70        82.26855
256.16        84.04484
256.62        85.17684
257.07        86.32827
257.53         88.0014
257.99        89.38586
258.44        89.97728
258.90        90.28076
259.35        89.65626
259.81        88.89883
260.27        87.65973
260.72        85.70359
261.18        83.77589
261.63        81.64116
262.09        79.87129
262.55        78.32788
263.00        76.83019
263.46         75.5968
263.91        74.35318
264.37         73.3576
264.83        72.47729
265.28        71.60355
265.74        70.82438
266.19        69.90868
266.65        68.92898
267.11        67.84702
267.56        66.63864
268.02        65.40556
268.47        64.11115
268.93         62.7893
269.38        61.43368
269.84         60.1245
270.30        58.86028
270.75        57.63218
271.21        56.44712
271.66        55.21724
272.12        53.98173
272.57        52.74512
273.03         51.5812
273.48         50.5078
273.94        49.56575
274.39        48.67968
274.85        47.88005
275.31        47.11688
275.76        46.35688
276.22        45.66162
276.67        44.96523
277.13        44.29968
277.58        43.60912
278.04        42.94524
278.49        42.27505
278.95        41.68779
279.40        41.12008
279.86        40.59523
280.31        40.02816
280.77        39.42484
281.22        38.73664
281.68        38.05766
282.13        37.35112
282.59        36.67238
283.04         36.0055
283.50        35.38749
283.95        34.86943
284.41        34.58019
284.86        34.50925
285.32        34.64233
285.77        34.83161
286.22        34.90112
286.68        34.83404
287.13        34.62473
287.59        34.44874
288.04        34.45583
288.50        34.65863
288.95        35.08239
289.41        35.60125
289.86        35.59413
290.32         34.9854
290.77        35.49948
291.22        34.55416
291.68        34.64355
292.13        35.01479
292.59        35.68007
293.04        36.54816
293.50        37.54339
293.95        38.63386
294.40        39.82252
294.86        41.09798
295.31        42.42656
295.77        43.79678
296.22        45.17797
296.68        46.58477
297.13        48.03752
297.58        49.55734
298.04        51.13711
298.49         52.7692
298.95        54.46495
299.40        56.19422
299.85        57.96325
300.31        59.73395
300.76        61.40883
301.21        62.99563
301.67        64.55596
302.12         66.1363
302.58        67.93575
303.03        69.94211
303.48        72.13663
303.94        74.43816
304.39        76.65508
304.84        78.73803
305.30        80.74408
305.75        82.65344
306.20        84.56559
306.66        86.51466
307.11        88.42271
307.57        90.29533
308.02        92.04633
308.47        93.69814
308.93        95.30247
309.38        96.87046
309.83        98.51293
310.29        100.2517
310.74        102.0117
311.19        103.7051
311.65        105.1767
312.10        106.3757
312.55        107.3584
313.00        108.2291
313.46        109.1613
313.91        110.1823
314.36        111.2538
314.82        112.3099
315.27        113.2308
315.72        114.0024
316.18        114.6697
316.63         115.286
317.08        115.9359
317.53        116.6316
317.99         117.325
318.44        117.9762
318.89        118.5103
319.35        118.9062
319.80        119.2097
320.25        119.4276
320.70         119.577
321.16        119.6691
321.61        119.7169
322.06        119.7845
322.51        119.9814
322.97          120.31
323.42        120.7966
323.87         121.305
324.32         121.623
324.78        121.6817
325.23        121.5746
325.68        121.4521
326.13        121.6046
326.59        122.0637
327.04        122.7972
327.49        123.5759
327.94        124.0554
328.39        124.1433
328.85         123.914
329.30        123.6218
329.75        123.5383
330.20        123.7678
330.66        124.1855
331.11        124.7723
331.56        125.3331
332.01        125.8037
332.46        126.2337
332.92        126.5949
333.37        126.9982
333.82        127.4099
334.27        127.8173
334.72        128.2164
335.17         128.618
335.63        128.9946
336.08        129.4126
336.53        129.8879
336.98        130.4955
337.43        131.2357
337.88        132.0795
338.34        132.8804
338.79        133.4682
339.24        133.7736
339.69        133.8637
340.14        133.8845
340.59        134.0768
341.05        134.5033
341.50         135.096
341.95         135.772
342.40        136.3929
342.85        136.9054
343.30        137.3608
343.75          137.74
344.20        138.0155
344.66        138.2048
345.11        138.2771
345.56        138.3336
346.01        138.5432
346.46        138.9416
346.91        139.4539
347.36        139.9077
347.81        140.1585
348.26         140.188
348.72        139.5937
349.17        139.4079
349.62        139.2823
350.07        139.5334
350.52        140.0301
350.97        140.5608
351.42        140.7628
351.87        140.5378
352.32        140.0167
352.77        139.3745
353.22        138.8756
353.67        138.5906
354.13        138.4413
354.58        138.3106
355.03        138.0767
355.48        137.6944
355.93        137.2134
356.38        136.6664
356.83        136.0895
357.28        135.4909
357.73        134.8476
358.18        134.1455
358.63        133.3783
359.08        132.5587
359.53        131.7098
359.98         130.858
360.43        130.0286
360.88        129.2243
361.33        128.4359
361.78        127.6541
362.23        126.8651
362.68        126.0664
363.13        125.2658
363.58        124.4484
364.03        123.5919
364.48        122.6882
364.93          121.73
365.38        120.7584
365.83        119.8442
366.28        119.0001
366.73        118.2129
367.18        117.4081
367.63         116.465
368.08        115.3768
368.53        114.2026
368.98        113.0456
369.43          112.05
369.88        111.2423
370.33        110.5675
370.78        109.9619
371.23        109.3312
371.68        108.6449
372.13        107.9334
372.58        107.2114
373.03        106.4887
373.48        105.7658
373.93        105.0323
374.38         104.294
374.83        103.5772
375.28        102.9011
375.72         102.249
376.17        101.6604
376.62        101.0919
377.07         100.519
377.52        99.92643
377.97         99.3173
378.42        98.71835
378.87        98.14603
379.32        97.60561
379.77        97.05824
380.22        96.42994
380.67        95.70077
381.11        94.89372
381.56        94.07172
382.01         93.3748
382.46        92.85287
382.91        92.47929
383.36         92.1625
383.81        91.75433
384.26        91.21703
384.71        90.58942
385.15        89.95013
385.60        89.49055
386.05        89.21597
386.50        89.07204
386.95        88.93463
387.40        88.62373
387.85        88.11292
388.29        87.41476
388.74        86.77803
389.19        86.31119
389.64         86.0316
390.09         85.8873
390.54        85.75033
390.98         85.4024
391.43         84.8551
391.88        84.17565
392.33        83.53558
392.78        83.12176
393.23        82.94949
393.67        83.03114
394.12        83.26602
394.57        82.96036
395.02        82.32468
395.47        81.94798
395.91        81.90593
396.36        81.64167
396.81        81.19852
397.26        80.95976
397.71        80.86693
398.15        80.68398
398.60        80.48693
399.05        80.08131
399.50         79.6433
399.95        79.79041
400.39        80.33289
400.84        80.34409
401.29        79.76165
401.74         78.9612
402.18        78.21032
402.63        78.00551
403.08         78.2589
403.53        78.16713
403.97        77.67297
404.42        77.33556
404.87        77.20969
405.32         77.0947
405.76        76.97647
406.21        77.01102
406.66         77.0731
407.11        76.79255
407.55        76.25068
408.00        75.85129
408.45        75.69205
408.90        75.57684
409.34        75.46415
409.79        75.38634
410.24        75.28489
410.68        75.13831
411.13        74.93185
411.58        74.60693
412.03        74.23872
412.47        74.04855
412.92        74.05205
413.37        74.18539
413.81         74.3485
414.26        74.45792
414.71        74.45988
415.15        74.40177
415.60        74.27166
416.05        74.11965
416.49        73.96858
416.94        73.79328
417.39        73.61239
417.83        73.44417
418.28        73.29791
418.73        73.18152
419.17        73.06657
419.62        72.91019
420.07        72.70728
420.51        72.46342
420.96        72.26815
421.41        72.18363
421.85        72.18723
422.30        72.34847
422.74         72.5369
423.19        72.56375
423.64        72.42994
424.08        72.44683
424.53        72.56371
424.98        72.56931
425.42        72.47338
425.87        72.39944
426.31         72.3621
426.76         72.3037
427.21        72.21455
427.65        72.14056
428.10        72.07034
428.54        72.00105
428.99        71.97413
429.44        72.00745
429.88        72.02415
430.33         71.9485
430.77         71.7449
431.22        71.60002
431.66        71.50815
432.11        71.52007
432.56        71.65051
433.00        71.52371
433.45        70.96421
433.89        70.88412
434.34        71.40779
434.78        70.21024
435.23        70.06213
435.67        70.84358
436.12        71.25179
436.57        71.43507
437.01         70.9327
437.46        70.61768
437.90        71.26406
438.35        71.19385
438.79        71.30405
439.24        71.19506
439.68        71.09184
440.13        70.86167
440.57        70.58549
441.02        70.60151
441.46        70.80737
441.91        70.79722
442.35        70.56222
442.80        70.60773
443.24        70.87249
443.69        71.15824
444.13        71.31853
444.58        71.18172
445.02        70.79556
445.47        70.60235
445.91        70.64269
446.36        70.62852
446.80        70.55021
447.24        70.63317
447.69        70.81583
448.13        70.87974
448.58         70.6481
449.02        70.52908
449.47        70.47684
449.91        70.34199
450.36         70.1576
450.80         69.9341
451.25        69.75426
451.69         69.7875
452.13        69.98207
452.58        69.99458
453.02        69.80278
453.47        69.68322
453.91        69.62644
454.36        69.47588
454.80        69.23202
455.24        69.00319
455.69        68.83066
456.13        68.60865
456.58        68.42186
457.02        68.37151
457.46        68.57905
457.91        68.43752
458.35        68.15649
458.79         68.0428
459.24        68.16428
459.68        68.18793
460.13         68.0929
460.57        68.24531
461.01        67.89066
461.46        67.87276
461.90        67.65926
462.34        67.37975
462.79        67.36388
463.23        67.13577
463.68        67.52511
464.12        67.33974
464.56         66.9149
465.01          66.989
465.45        67.38635
465.89        67.47001
466.34        67.23916
466.78        66.99442
467.22        66.78609
467.67        66.67564
468.11        66.27856
468.55        66.15572
468.99         66.1604
469.44        66.11282
469.88        65.99499
470.32        65.90388
470.77         65.8482
471.21        65.77782
471.65        65.69524
472.10        65.62633
472.54        65.53745
472.98        65.43045
473.42        65.31638
473.87        65.11877
474.31        64.88575
474.75        64.99951
475.20        65.35202
475.64        65.37627
476.08        65.09769
476.52        64.97782
476.97        64.99329
477.41        65.00515
477.85        65.02768
478.29        64.67392
478.74           64.59
479.18        64.81023
479.62        64.73963
480.06        64.81672
480.50         64.8233
480.95         64.7953
481.39        64.67027
481.83        64.88811
482.27        64.95353
482.72        64.80938
483.16        64.88046
483.60        65.20152
484.04        65.03262
484.48        64.82175
484.93        65.19551
485.37        64.24102
485.81         65.0593
486.25        65.02009
486.69        66.58122
487.14        66.61436
487.58        65.39487
488.02        65.05258
488.46        64.42847
488.90        64.82403
489.34        64.01331
489.79        63.76588
490.23        64.32154
490.67        64.34591
491.11        64.10089
491.55        63.93058
491.99         63.8964
492.43        63.80831
492.88        63.67436
493.32        63.61589
493.76        63.58596
494.20        63.58657
494.64        63.64066
495.08        63.38549
495.52        63.37006
495.96        63.55729
496.41        63.96639
496.85        63.92911
497.29        63.47032
497.73        63.47261
498.17        63.56519
498.61        63.54684
499.05        63.30766
499.49        63.01934
499.93        62.80459
500.37        62.93869
500.82        63.37484
501.26        63.44786
501.70        63.88799
502.14        63.48545
502.58        63.12901
503.02        62.88702
503.46        62.91224
503.90        62.95789
504.34        62.94548
504.78        62.93063
505.22        62.90566
505.66         62.8142
506.10         62.6943
506.54        62.70722
506.98        62.87763
507.42        62.57257
507.86        63.18059
508.30        62.66731
508.74        62.93694
509.18        62.74751
509.62        62.58404
510.06        62.47843
510.50        62.42633
510.94        62.33804
511.38         62.2056
511.82        62.12693
512.26        62.10114
512.70        62.08242
513.14        62.06319
513.58        62.04851
514.02        62.03335
514.46        62.01363
514.90        61.97971
515.34        61.95434
515.78        61.94407
516.22        61.91955
516.66        61.73046
517.10        61.96564
517.54        61.76189
517.98        61.79064
518.42        61.79893
518.86        61.81348
519.30        61.83071
519.74        61.81121
520.18        61.77984
520.62        61.85137
521.06        61.98161
521.50        61.94371
521.93        61.75705
522.37        61.65033
522.81        61.64279
523.25        61.60995
523.69        61.54999
524.13        61.51721
524.57        61.51136
525.01        61.51471
525.45        61.53077
525.89        61.56371
526.32         61.6064
526.76        61.66183
527.20        61.70199
527.64        61.68632
528.08        61.60997
528.52        61.48934
528.96        61.36531
529.40        61.29303
529.83        61.28456
530.27        61.35552
530.71        61.45332
531.15        61.49059
531.59         61.4506
532.03        61.36233
532.46        61.26962
532.90        61.25606
533.34        61.33006
533.78        61.45977
534.22        61.58696
534.66        61.62512
535.09        61.54822
535.53        61.40866
535.97        61.24286
536.41         61.1238
536.85        61.07399
537.28        61.07275
537.72        61.10107
538.16        61.12864
538.60        61.14328
539.04        61.15858
539.47        61.16188
539.91        61.18335
540.35        61.20821
540.79        61.22911
541.22         61.2445
541.66        61.26871
542.10        61.29698
542.54         61.3257
542.97        61.33528
543.41        61.32765
543.85         61.2952
544.29        61.24977
544.72        61.19446
545.16        61.17015
545.60        61.17308
546.04        61.17974
546.47        61.19619
546.91        61.26926
547.35        61.37727
547.79        61.44047
548.22        61.42182
548.66        61.40158
549.10        61.35084
549.53        61.23294
549.97        61.08789
550.41        61.01351
550.84         61.0181
551.28        61.08198
551.72        61.18015
552.15        61.20895
552.59        61.14205
553.03        61.26007
553.46        61.15577
553.90         61.0617
554.34        60.83342
554.77          60.938
555.21        60.63933
555.65        60.65248
556.08        60.74987
556.52        60.91846
556.96        61.07817
557.39        61.18427
557.83        61.20429
558.27        61.01708
558.70        60.71674
559.14        60.55694
559.57        60.55855
560.01        60.71727
560.45        60.91782
560.88        60.84562
561.32         60.6067
561.75        60.55712
562.19        60.73504
562.63        60.89523
563.06        60.96289
563.50        60.90945
563.93        60.74515
564.37        60.59046
564.80        60.48543
565.24        60.55097
565.68        60.74538
566.11        60.84617
566.55         60.8497
566.98         60.9325
567.42        61.07925
567.85        61.00096
568.29        60.80125
568.72        60.80519
569.16        61.06872
569.60        61.17313
570.03        61.26955
570.47         61.4981
570.90        61.87494
571.34        61.80225
571.77        61.99503
572.21        62.19049
572.64        61.93282
573.08        61.59903
573.51        61.84038
573.95        62.29387
574.38        62.16402
574.82        62.46014
575.25        62.20225
575.69        62.20132
576.12        61.93816
576.56        62.02362
576.99        62.59671
577.42        62.17422
577.86        62.75721
578.29        62.98205
578.73        63.34745
579.16        62.76931
579.60        62.03034
580.03         61.9275
580.47        62.18155
580.90        62.36623
581.33         62.6429
581.77         62.5081
582.20         63.2762
582.64        63.68715
583.07        63.18346
583.51        62.63761
583.94        62.20862
584.37        61.68147
584.81        61.46453
585.24        61.70054
585.68        62.63324
586.11        62.44685
586.54         62.2864
586.98        62.17369
587.41         61.9966
587.85        62.31834
588.28         62.5047
588.71         62.0629
589.15        62.37685
589.58        61.71907
590.01          61.627
590.45        61.61539
590.88        61.88327
591.31        61.49412
591.75         61.1616
592.18        61.00154
592.61        61.33169
593.05        61.67457
593.48        62.04958
593.91         62.6194
594.35        62.34668
594.78        61.84609
595.21        61.56676
595.65        61.48742
596.08        61.71923
596.51        61.80401
596.94        61.48762
597.38        61.28903
597.81        61.16852
598.24        61.59287
598.68        61.26757
599.11        61.48214
599.54        61.48735
599.97        61.56076
600.41        61.63272
600.84         61.8381
601.27        61.76897
601.70        61.71566
602.14        61.42622
602.57        61.23204
603.00        61.11821
603.43        61.47949
603.87         61.6452
604.30        61.68851
604.73         61.7018
605.16        61.23087
605.60         61.2184
606.03         61.3698
606.46        61.83812
606.89        61.48843
607.32        60.87334
607.76        61.49663
608.19        60.98579
608.62        61.40835
609.05        61.71242
609.48         61.2421
609.92          61.241
610.35         61.0689
610.78        61.52214
611.21        61.33345
611.64         61.3133
612.07        61.16957
612.50        61.15525
612.94        61.09707
613.37        61.00119
613.80        61.16208
614.23         61.4018
614.66        60.93227
615.09        61.01337
615.52        60.83459
615.96        60.80003
616.39        60.75925
616.82        60.72915
617.25        60.72753
617.68        60.84682
618.11        60.76323
618.54        60.68335
618.97        60.47879
619.40        60.26018
619.84        60.14097
620.27         60.2901
620.70        60.29159
621.13        60.20012
621.56        60.31234
621.99        60.60001
622.42        60.72474
622.85        60.62488
623.28        60.69529
623.71        60.52207
624.14        60.73902
624.57        60.35236
625.00        60.85279
625.43        60.38208
625.86        60.45924
626.29        60.54903
626.72        60.59693
627.15        60.72783
627.58        60.15849
628.01        60.55455
628.44        60.20299
628.87        60.34066
629.30        60.38811
629.73        60.25492
630.16        60.56865
630.59        60.16933
631.02        60.45542
631.45        60.25506
631.88        60.28596
632.31        60.28829
632.74        60.26057
633.17        60.28909
633.60        60.22484
634.03          60.104
634.46        59.99364
634.89          59.839
635.32        59.78887
635.75        59.82565
636.18        59.92902
636.61        60.05666
637.04        60.13588
637.47        60.13738
637.89        60.11787
638.32        60.09482
638.75        60.01965
639.18        59.88437
639.61        60.09723
640.04         59.9362
640.47        59.98787
640.90        60.03365
641.33        60.09007
641.76        60.14024
642.18        60.17515
642.61        60.18287
643.04        60.16758
643.47         60.1341
643.90        60.09546
644.33        60.05834
644.76        60.00814
645.18        59.95945
645.61         59.9582
646.04        59.99309
646.47        59.99582
646.90        59.96503
647.33        59.95081
647.75        59.94598
648.18        59.94633
648.61        59.96191
649.04         59.9494
649.47        59.89927
649.89        60.12883
650.32        59.98697
650.75        60.13586
651.18        60.31379
651.61        60.19091
652.03        59.85968
652.46        59.78225
652.89        59.95683
653.32        60.11943
653.74        60.27695
654.17        60.10544
654.60        59.59546
655.03         60.0943
655.46        59.94674
655.88        60.49076
656.31        61.96533
656.74        67.29029
657.16        66.22932
657.59         64.0956
658.02        61.14591
658.45        60.49928
658.87        60.46603
659.30        60.55706
659.73        59.92235
660.15        59.62406
660.58        60.22324
661.01        60.56047
661.44        60.66675
661.86        60.54962
662.29        60.25035
662.72         59.9398
663.14        59.73832
663.57         59.7682
664.00         59.9735
664.42         60.0743
664.85        60.04853
665.27        59.95626
665.70        60.00898
666.13         60.0052
666.55        60.01365
666.98        60.03189
667.41        60.04937
667.83        60.06429
668.26        60.07954
668.69         60.0323
669.11        59.94448
669.54        60.04206
669.96        60.37348
670.39        60.14287
670.82        60.70585
671.24        60.58659
671.67         60.2695
672.09        60.11865
672.52        60.18504
672.94         60.2127
673.37         60.1662
673.80        60.07807
674.22        59.98263
674.65        59.95178
675.07        60.00889
675.50        60.06507
675.92        60.10126
676.35        60.11689
676.77        60.10345
677.20         60.0733
677.62        60.06345
678.05        60.05437
678.47        60.04002
678.90        60.29667
679.32        60.29491
679.75        60.41161
680.17         60.4812
680.60        60.52522
681.02        60.54156
681.45        60.52316
681.87        60.48041
682.30        60.42148
682.72        60.37695
683.15        60.31182
683.57        60.23551
684.00        60.37164
684.42        60.33456
684.85        60.37171
685.27        60.35685
685.70        60.33257
686.12        60.29818
686.54        60.28105
686.97        60.28144
687.39        60.31342
687.82        60.36394
688.24        60.39277
688.66        60.37473
689.09         60.5238
689.51        60.45753
689.94        60.52349
690.36        60.59415
690.78        60.62534
691.21         60.6239
691.63        60.59087
692.06        60.57457
692.48         60.6809
692.90        60.86656
693.33        60.94526
693.75        60.90926
694.17        60.80885
694.60        60.66516
695.02        60.70613
695.44        60.67546
695.87        60.59097
696.29        60.43262
696.71        60.43029
697.14        60.61048
697.56        60.71424
697.98        61.17454
698.41        61.12145
698.83        61.18749
699.25        61.01987
699.68        60.82809
700.10        60.68274
700.52        60.61482
700.94        60.60692
701.37        60.62141
701.79        60.65218
702.21        60.66828
702.64        60.68468
703.06         60.7079
703.48        60.75115
703.90        60.81717
704.33        60.89305
704.75        60.95745
705.17        60.96052
705.59        60.89753
706.01        60.78389
706.44        60.67491
706.86        60.67729
707.28        60.79862
707.70        61.00935
708.12        61.24697
708.55        61.39883
708.97         61.4354
709.39        61.41204
709.81        61.35929
710.23        61.31775
710.66        61.31006
711.08        61.34045
711.50        61.37383
711.92        61.36832
712.34        61.31701
712.76        61.23513
713.19        61.15002
713.61        61.14869
714.03        61.22163
714.45        61.35925
714.87        61.51326
715.29        61.56801
715.71        61.49803
716.13        61.49296
716.56        61.29837
716.98        61.26883
717.40        61.32722
717.82        61.45028
718.24        61.59018
718.66        61.67712
719.08        61.69946
719.50        61.66248
719.92        61.58957
720.34        61.57712
720.76          61.652
721.19         61.5352
721.61        61.67554
722.03        61.71349
722.45        61.77485
722.87        61.85569
723.29         61.9394
723.71        61.98751
724.13        61.98998
724.55        61.95545
724.97        61.92308
725.39        61.96046
725.81        62.07893
726.23        62.25618
726.65        62.43219
727.07        62.51735
727.49        62.49373
727.91        62.37641
728.33        62.22781
728.75        62.18694
729.17        62.26702
729.59         62.3585
730.01        62.43386
730.43        62.51457
730.85        62.58365
731.27        62.60521
731.69        62.60165
732.10        62.57374
732.52        62.71866
732.94        62.63819
733.36        62.44113
733.78         62.3745
734.20        62.46288
734.62         62.5657
735.04        62.65601
735.46         62.7517
735.88         62.8388
736.30        62.91618
736.72        62.96404
737.13        62.96896
737.55        62.89433
737.97        62.75604
738.39        62.61179
738.81        62.57377
739.23        62.64968
739.65        62.77663
740.06        62.86014
740.48        62.90183
740.90        62.85619
741.32        62.72413
741.74        62.56548
742.16        62.50154
742.57        62.57365
742.99        62.72325
743.41        62.90431
743.83         63.0259
744.25        63.06079
744.67        63.03091
745.08        62.98917
745.50        62.98108
745.92        63.03563
746.34        63.13297
746.75        63.22397
747.17         63.2256
747.59        63.12534
748.01        62.93142
748.42        62.72423
748.84        62.64199
749.26        62.68914
749.68        62.79937
750.09        62.90569
750.51        62.83828
750.93        62.65128
751.35        62.67853
751.76        62.89653
752.18        62.93301
752.60        62.84047
753.01        62.77852
753.43        62.74792
753.85        62.66087
754.27        62.52353
754.68         62.3955
755.10        62.32378
755.52        62.28163
755.93        62.31477
756.35        62.58149
756.77        62.99744
757.18        63.24096
757.60        63.28958
758.02        63.25558
758.43        63.20993
758.85        63.01712
759.26        63.78176
759.68        63.08546
760.10        62.87909
760.51        62.62714
760.93        63.56923
761.34        63.04659
761.76        63.25966
762.18        63.17371
762.59         63.2921
763.01        63.35893
763.42        62.57965
763.84        62.56804
764.26         62.7198
764.67        62.98822
765.09        63.19184
765.50        63.48975
765.92        63.78281
766.33        63.66538
766.75         63.2229
767.16        63.01526
767.58        63.07371
768.00        63.36992
768.41        63.79165
768.83        63.67985
769.24        63.10218
769.66        63.38499
770.07        63.54402
770.49        63.59605
770.90        63.29256
771.32        63.18102
771.73        63.29232
772.15        63.35008
772.56        63.36863
772.97        63.46813
773.39        63.58547
773.80        63.63226
774.22        63.56248
774.63        63.42853
775.05        63.26697
775.46        63.18922
775.88        63.20179
776.29        63.29311
776.70        63.40955
777.12         63.4773
777.53         63.4908
777.95        63.46675
778.36        63.42609
778.77        63.39539
779.19        63.39008
779.60        63.40741
780.02        63.45053
780.43         63.5677
780.84        63.76653
781.26        63.93937
781.67        64.08985
782.09        64.35789
782.50         64.6619
782.91        64.48431
783.33        64.30202
783.74        64.16019
784.15        64.20115
784.57        64.23094
784.98        64.23077
785.39        64.21774
785.81        64.17852
786.22        64.11426
786.63        64.05425
787.04        64.04369
787.46        64.10142
787.87        64.19056
788.28        64.27792
788.70        64.30436
789.11        64.23784
789.52        64.10538
789.93        63.96777
790.35        63.91198
790.76        63.98307
791.17        64.17062
791.58        64.39636
792.00        64.55446
792.41        64.65054
792.82        64.57269
793.23        64.47589
793.65        64.83446
794.06        65.53684
794.47        65.95146
794.88        66.04713
795.29        65.75789
795.71         66.0777
796.12        65.85546
796.53        65.45051
796.94         65.2896
797.35        65.38004
797.76        65.33159
798.18        65.13136
798.59        65.04966
799.00        65.08298
799.41        65.09258
799.82        65.04995
800.23        64.98256
800.64        64.88934
801.06        64.73728
801.47        64.62047
801.88        64.62527
802.29        64.76828
802.70         65.0193
803.11        65.29835
803.52        65.46538
803.93         65.4873
804.34         65.4054
804.75        65.28341
805.17        65.26154
805.58        65.40688
805.99        65.53144
806.40        65.62031
806.81        65.96008
807.22        66.37619
807.63        66.18947
808.04        65.54032
808.45        65.29881
808.86          65.553
809.27        65.82092
809.68        66.00208
810.09        66.13512
810.50        66.17548
810.91        66.12414
811.32        66.00139
811.73        65.83839
812.14        65.65854
812.55        65.45693
812.96        65.28439
813.37        65.22521
813.78        65.29419
814.19        65.47222
814.60        65.68011
815.01        65.78771
815.42        65.76451
815.83        65.64329
816.24        65.48384
816.65        65.40273
817.05         65.4483
817.46        65.56017
817.87         65.7213
818.28        65.86767
818.69        65.97979
819.10        66.07381
819.51         66.1725
819.92        66.30851
820.33        66.47962
820.74        66.65926
821.14        66.79736
821.55        66.84612
821.96        66.78459
822.37        66.63058
822.78        66.42945
823.19        66.26221
823.60        66.16024
824.00        66.12575
824.41        66.09981
824.82        66.04192
825.23        65.94361
825.64        65.83786
826.04        65.77292
826.45        65.78161
826.86        65.88634
827.27        66.06583
827.68        66.30135
828.08        66.58157
828.49        66.81284
828.90        67.03843
829.31        67.24738
829.72        67.33511
830.12         67.2962
830.53        67.49536
830.94        67.25535
831.35        67.13665
831.75        66.96443
832.16        66.73759
832.57         66.5275
832.97        66.43967
833.38         66.4902
833.79        66.64774
834.20        66.84193
834.60        66.96115
835.01        66.97692
835.42        66.92282
835.82         66.8457
836.23        66.78455
836.64        66.77426
837.04        66.79997
837.45         66.8395
837.86        66.91821
838.26        67.03967
838.67        67.18936
839.08        67.32503
839.48        67.36198
839.89        67.28049
840.29        67.10581
840.70        66.92485
841.11        66.88122
841.51        67.02447
841.92        67.28283
842.33        67.57439
842.73        67.75662
843.14        67.74477
843.54        67.61377
843.95         67.4374
844.35        67.35986
844.76        67.41386
845.17        67.56146
845.57        67.75898
845.98        67.90121
846.38        67.98642
846.79        68.02126
847.19        68.06512
847.60        68.13457
848.00        68.26545
848.41        68.39597
848.81        68.54092
849.22        68.65659
849.62        68.76404
850.03        68.84545
850.43        68.89206
850.84        68.78268
851.24        68.55795
851.65        68.17635
852.05        67.82252
852.46        67.72663
852.86        67.93619
853.27        68.40698
853.67        68.84453
854.07         68.9755
854.48        68.72242
854.88        68.19582
855.29        67.56844
855.69        67.32964
856.10        67.52766
856.50        68.11802
856.90        68.80659
857.31        69.14445
857.71        69.05698
858.12        68.61597
858.52         68.0472
858.92         67.6657
859.33        67.56876
859.73        67.71394
860.13        67.95312
860.54        68.04899
860.94        67.99261
861.34        67.81049
861.75        67.60947
862.15        67.63453
862.55        67.88619
862.96         68.2625
863.36        68.59049
863.76        68.54699
864.17        68.06704
864.57        67.29812
864.97        66.43266
865.38        65.77699
865.78        65.48891
866.18        65.48404
866.58          65.744
866.99        66.18071
867.39        66.73953
867.79        67.39426
868.19         68.0002
868.60        68.27692
869.00        68.24845
869.40        68.11373
869.80        67.89128
870.21        67.46626
870.61        66.95704
871.01        66.50662
871.41        66.11112
871.81        65.64614
872.22        65.13085
872.62        64.61732
873.02        64.28355
873.42         64.5968
873.82        65.40221
874.22         66.0711
874.63         66.5863
875.03        66.99521
875.43        67.22119
875.83        68.02766
876.23        67.12286
876.63        66.22898
877.03        65.20528
877.44        63.45243
877.84        164.6361
878.24        64.72001
878.64        65.21013
879.04        66.23464
879.44        66.36973
879.84        63.18105
880.24        68.31261
880.64        69.06065
881.04        67.45415
881.44        66.07121
881.84        65.26788
882.24         65.2558
882.65        65.68262
883.05        65.55218
883.45        64.67928
883.85        63.81581
884.25        63.29325
884.65        63.22972
885.05        63.67273
885.45        64.48428
885.85        65.37453
886.25         65.9523
886.65        66.11411
887.05        65.97339
887.45        65.61385
887.85        65.19153
888.25        64.79655
888.65        64.38644
889.04        64.07073
889.44        64.03817
889.84        64.29667
890.24        64.78522
890.64        65.31512
891.04        65.59331
891.44        65.55833
891.84         65.2982
892.24        64.91275
892.64        64.59113
893.04        64.41193
893.44        64.31937
893.83        64.34214
894.23        64.48932
894.63         64.7617
895.03        65.18335
895.43        65.64394
895.83        65.94463
896.23        66.03957
896.63        65.94852
897.02        65.82814
897.42        65.99356
897.82        66.44595
898.22        67.07068
898.62         67.6125
899.01        67.66911
899.41        67.13714
899.81        66.18864
900.21        65.06824
900.61        64.17375
901.00        63.64478
901.40        63.46097
901.80        63.56253
902.20        63.69726
902.59        63.77996
902.99        64.14198
903.39        64.87527
903.79        64.47912
904.18        65.51392
904.58        65.83369
904.98        66.07921
905.38        66.02569
905.77        65.65703
906.17        65.06892
906.57        64.39108
906.96        63.93466
907.36        63.78965
907.76        63.91151
908.15        64.23292
908.55        64.47823
908.95        64.61721
909.34        64.66769
909.74        64.74718
910.14        64.99981
910.53        65.43564
910.93        65.96658
911.33        66.39429
911.72        66.42149
912.12        66.01171
912.52        65.28062
912.91        64.45638
913.31        63.97795
913.70        63.92907
914.10        64.19289
914.49        64.61284
914.89        64.82782
915.29        64.76479
915.68        64.53107
916.08        64.26875
916.47        64.14612
916.87        64.24751
917.26        64.49297
917.66        64.82964
918.05        65.20702
918.45        65.56116
918.84         65.8998
919.24        66.19434
919.64        66.45522
920.03         66.6769
920.42        66.83542
920.82        66.85594
921.21        66.64653
921.61        66.24108
922.00        65.75142
922.40        65.39993
922.79        65.39672
923.19        65.42708
923.58        66.26304
923.98        68.06863
924.37        68.26129
924.77        65.48091
925.16         72.8179
925.55        66.68613
925.95        66.97935
926.34        66.99352
926.74         66.5182
927.13        65.44904
927.52        64.75031
927.92        64.84648
928.31        65.16634
928.70        65.66894
929.10        66.20874
929.49        66.74111
929.89        67.32448
930.28        67.76119
930.67        67.60931
931.07        66.83765
931.46        65.48615
931.85        64.08599
932.24        63.98292
932.64        65.38235
933.03        67.26375
933.42        68.63741
933.82        71.21786
934.21        69.81615
934.60        68.53857
934.99        67.09605
935.39        66.55029
935.78        67.00542
936.17        68.77921
936.56        74.79972
936.96        68.07574
937.35        71.85962
937.74        68.97785
938.13        67.02444
938.53        65.35372
938.92        64.58893
939.31         65.2865
939.70        66.43942
940.09        67.08997
940.49        66.99255
940.88        66.50206
941.27        65.91489
941.66        65.75822
942.05        66.19396
942.44        66.95842
942.84        67.69244
943.23        68.00751
943.62        67.80023
944.01        67.20153
944.40        66.51928
944.79        66.26577
945.18        66.57394
945.57        67.28712
945.97        68.02897
946.36         68.3201
946.75        68.00424
947.14        67.24902
947.53        66.40108
947.92        66.05291
948.31        66.36335
948.70        67.12255
949.09        68.00259
949.48        68.51038
949.87        68.51794
950.26        68.18788
950.65        67.70834
951.04        67.38145
951.43        67.30482
951.82        67.36227
952.21         67.4776
952.60        67.53911
952.99        67.49616
953.38        67.40832
953.77        67.26994
954.16        67.04096
954.55         66.7358
954.94        66.38077
955.33        66.03335
955.72        65.81914
956.11        65.77895
956.50        65.85148
956.89        66.05404
957.28        66.40042
957.66        66.88379
958.05        67.42937
958.44        67.84045
958.83        67.80994
959.22        67.28567
959.61        66.30511
960.00        65.20191
960.39        64.64127
960.78        64.82182
961.16        65.59781
961.55        66.42146
961.94        66.62318
962.33        66.08012
962.72        64.96577
963.11        63.72855
963.49        63.28972
963.88        63.92286
964.27        65.27618
964.66        66.75244
965.04        67.56235
965.43        67.48344
965.82         66.7996
966.21        65.84286
966.60        65.20186
966.98        65.08509
967.37        65.29516
967.76         65.6535
968.15        65.87171
968.53         65.8774
968.92        65.78819
969.31        65.66437
969.69         65.5612
970.08        65.48888
970.47        65.39526
970.86        65.38048
971.24        65.64344
971.63         66.1611
972.02        66.85046
972.40        67.48349
972.79         67.6312
973.17        67.28729
973.56        66.60348
973.95        65.82102
974.33        65.38043
974.72        65.42406
975.11        65.77777
975.49        66.46207
975.88        67.42222
976.26        68.61016
976.65        69.93021
977.04        71.01237
977.42        71.27225
977.81        70.57864
978.19        69.02203
978.58        67.28927
978.96        66.67631
979.35        67.49851
979.74        69.24994
980.12        71.15479
980.51        72.06705
980.89         71.9265
981.28        70.99273
981.66         69.5769
982.05        68.51411
982.43        68.17044
982.82        68.31692
983.20        68.77814
983.59        69.24711
983.97         69.6325
984.35        70.01847
984.74          70.258
985.12        70.14727
985.51        69.65372
985.89        68.94456
986.28        68.19941
986.66        67.74211
987.04        67.69756
987.43        67.86935
987.81        68.04023
988.20        69.26821
988.58        71.54774
988.96        72.22186
989.35         70.5285
989.73        76.08416
990.12         72.3839
990.50        72.13564
990.88        71.06111
991.27        70.12365
991.65        69.42332
992.03        69.08349
992.42        69.22792
992.80        69.40573
993.18        69.53329
993.56        69.77099
993.95        70.08578
994.33        70.37851
994.71        70.63828
995.10        70.80186
995.48        70.97473
995.86        71.36243
996.24        71.95924
996.63        72.58985
997.01        73.15005
997.39        73.27354
997.77        72.88928
998.15        72.15337
998.54        71.24179
998.92        70.30173
999.30        69.47759
999.68        68.78559
1000.06        68.36157
1000.45        68.40496
1000.83        69.04234
1001.21        70.14078
1001.59        71.51649
1001.97        72.89131
1002.35        74.08624
1002.73        75.05314
1003.12        75.70994
1003.50        76.04063
1003.88        76.06322
1004.26        75.80936
1004.64        75.32153
1005.02        74.72771
1005.40        74.12179
1005.78        73.50724
1006.16        73.01869
1006.54        72.80967
1006.92        72.90611
1007.30        73.33012
1007.69        73.78637
1008.07        73.91712
1008.45         73.6356
1008.83        73.01884
1009.21        72.47646
1009.59        72.84368
1009.97        74.20229
1010.35        76.01715
1010.73        77.72926
1011.11        79.03406
1011.49        80.02957
1011.86        80.60477
1012.24        80.54348
1012.62        82.02994
1013.00        82.55724
1013.38        82.00132
1013.76        79.32271
1014.14        82.24341
1014.52        87.34752
1014.90        79.89458
1015.28         80.6292
1015.66        81.54141
1016.04        77.49777
1016.41        77.39027
1016.79        76.32693
1017.17        76.04964
1017.55        75.95847
1017.93        76.22478
1018.31        77.13629
1018.69        78.54215
1019.06        80.30197
1019.44        82.22839
1019.82        83.67526
1020.20        83.78837
1020.58        82.42598
1020.95        79.49522
1021.33         75.7106
1021.71        73.63959
1022.09        74.65614
1022.46        77.58572
1022.84        80.76915
1023.22        83.03116
1023.60        84.39117
1023.97        85.34336
1024.35        85.87366
1024.73        85.82869
