SpectraSmart Spectrum 2.9.0.0
--------- Device Information -----------
Spectrum Name :  反射率_0
Saving Time :  2024/04/21 00:25:54
Spectro-Module Model Name : SE2030-DUVN
Spectro-Module Serial Number : OS361AC55029948
Wavelength Start : 200
Wavelength End : 1025
Wavelength Unit : Wavelength(nm)
Spectrum Unit : Reflectance(%)
-----------Spectrum Setting ------------
Integration Time : 20ms
Average : 10
Boxcar : 0
Background removal :  enabled
linearity correction :  enabled
SC :  disabled
Intensity correction :  disabled
DWT denoise :  enabled
savitzky-golay :  disabled
FFT :  disabled
Running average :  disabled
Kalman :  disabled
High pass :  disabled
---------------BEGIN--------------------
Wavelength(nm)             Reflectance(%)
200.29               0
200.75        -97.0727
201.21       -46.79014
201.67       -15.20882
202.13      -0.8529048
202.58        3.511527
203.04        3.830401
203.50         2.57043
203.96        3.354126
204.42        7.176388
204.88        11.30246
205.34        13.99816
205.80        13.29872
206.26        8.762595
206.72        2.337848
207.18       -6.258763
207.64       -17.12793
208.10       -27.28842
208.55       -36.64621
209.01       -33.39939
209.47       -8.726001
209.93        17.50748
210.39        36.53857
210.85        47.33869
211.31        49.98772
211.77        45.92658
212.23        34.39962
212.69        10.50551
213.14       -30.68202
213.60       -97.25304
214.06       -269.1465
214.52       -606.5874
214.98       -237.2969
215.44       -48.98484
215.90        9.957799
216.36        27.23321
216.81        24.49847
217.27         1.36466
217.73       -108.3129
218.19        1201.995
218.65        505.7354
219.11       -1136.211
219.57       -57.47722
220.02        11.75121
220.48        25.45725
220.94        22.19743
221.40        3.157295
221.86       -44.76445
222.32        -76.8478
222.77       -34.15753
223.23        2.904296
223.69        21.89683
224.15        29.18391
224.61        30.70676
225.06        30.11211
225.52        27.77214
225.98        23.37124
226.44        17.40356
226.90        9.007937
227.36         2.75001
227.81        6.945931
228.27        17.99843
228.73        29.73312
229.19        37.52428
229.65         39.1508
230.10        35.66169
230.56        28.67415
231.02        19.44613
231.48        13.09901
231.93        13.39033
232.39        18.41959
232.85        24.18941
233.31        27.24714
233.77        27.69315
234.22        27.03444
234.68        25.59701
235.14        23.93497
235.60        22.64301
236.05         20.7078
236.51         18.1345
236.97         21.2363
237.43         30.6088
237.88         35.5924
238.34        31.47326
238.80        54.26392
239.26          40.567
239.71        37.18345
240.17        26.78915
240.63        15.93476
241.08        8.968934
241.54        10.25497
242.00        20.25854
242.46        26.08611
242.91        24.22155
243.37        15.59445
243.83        2.715526
244.28       -3.203285
244.74        3.837962
245.20        16.69458
245.66        27.36215
246.11        28.42017
246.57        19.08373
247.03        2.065043
247.48       -20.69725
247.94        -46.7866
248.40       -81.38808
248.85       -156.4944
249.31       -376.4117
249.77       -550.5037
250.22       -214.3476
250.68       -73.85705
251.14       -26.65635
251.59       -8.613127
252.05     -0.05229902
252.51        5.351654
252.96        7.772616
253.42         6.88553
253.88        3.417416
254.33      -0.1556463
254.79       0.7475073
255.25        7.350003
255.70        15.98225
256.16        23.55321
256.62        29.59968
257.07        34.08957
257.53        37.50759
257.99        40.16602
258.44        41.52583
258.90         41.5668
259.35        40.31549
259.81        38.54012
260.27        36.84394
260.72        35.92361
261.18        35.87937
261.63        36.17275
262.09        36.36936
262.55        35.81957
263.00        34.56037
263.46        33.02661
263.91        31.60333
264.37        31.07298
264.83        31.36707
265.28        32.10505
265.74        32.85182
266.19        32.93658
266.65        32.31999
267.11        31.21051
267.56        29.90557
268.02        28.92009
268.47        28.34258
268.93        28.04339
269.38         27.7925
269.84        27.29304
270.30        26.47148
270.75        25.45282
271.21        24.44869
271.66        23.71307
272.12        23.31648
272.57         23.1371
273.03        23.02331
273.48        22.73733
273.94         22.2514
274.39        21.64639
274.85         21.0446
275.31        20.56934
275.76        20.25005
276.22        20.04454
276.67        19.92846
277.13        19.92753
277.58        19.98275
278.04        20.08805
278.49        20.12113
278.95        19.96311
279.40        19.57653
279.86        19.04169
280.31         18.4342
280.77        17.93098
281.22        17.55449
281.68        17.31029
282.13        17.12326
282.59        16.93873
283.04        16.72254
283.50        16.50514
283.95        16.34732
284.41        16.35009
284.86        16.51048
285.32        16.79056
285.77        17.05308
286.22        17.10838
286.68        16.95293
287.13        16.62355
287.59        16.32317
288.04        16.25865
288.50        16.43581
288.95        16.91293
289.41        17.55782
289.86        17.66237
290.32        17.09524
290.77        18.01285
291.22        17.01151
291.68        17.10215
292.13        17.30148
292.59        17.65661
293.04        18.11288
293.50        18.66176
293.95        19.31007
294.40        20.04027
294.86        20.85224
295.31         21.7318
295.77        22.66405
296.22        23.62701
296.68        24.60826
297.13        25.59109
297.58        26.58566
298.04        27.60599
298.49        28.66687
298.95         29.8075
299.40        31.02526
299.85        32.31984
300.31        33.67182
300.76        35.03689
301.21        36.40718
301.67        37.80638
302.12        39.24554
302.58        40.82193
303.03        42.52819
303.48        44.38259
303.94        46.32035
304.39        48.20016
304.84        50.00057
305.30        51.76516
305.75         53.5598
306.20        55.57429
306.66         57.8158
307.11        60.16311
307.57        62.48226
308.02         64.5259
308.47        66.26503
308.93        67.82163
309.38        69.26534
309.83        70.72823
310.29        72.35699
310.74        73.99376
311.19        75.63962
311.65         77.2415
312.10        78.75783
312.55        80.21386
313.00        81.57882
313.46        82.80032
313.91        83.86178
314.36         84.7875
314.82        85.64259
315.27        86.53267
315.72        87.49136
316.18        88.48852
316.63        89.48324
317.08        90.40709
317.53        91.22736
317.99        91.95722
318.44        92.58945
318.89        93.10126
319.35        93.49713
319.80        93.79127
320.25          94.028
320.70        94.28696
321.16        94.58678
321.61        94.93619
322.06        95.30508
322.51        95.64323
322.97        95.92728
323.42        96.20844
323.87        96.49936
324.32        96.83741
324.78        97.20831
325.23        97.61939
325.68        98.03308
326.13        98.42319
326.59        98.75211
327.04        99.07743
327.49        99.35876
327.94        99.56384
328.39        99.69732
328.85        99.74614
329.30        99.83038
329.75        100.0259
330.20        100.3585
330.66        100.7702
331.11        101.2654
331.56        101.7126
332.01        102.0804
332.46        102.4028
332.92        102.6575
333.37        102.9475
333.82        103.2529
334.27        103.5575
334.72        103.9032
335.17        104.3654
335.63        104.9197
336.08        105.5981
336.53        106.2891
336.98        106.8489
337.43         107.237
337.88        107.4924
338.34        107.6577
338.79        107.8679
339.24        108.1458
339.69        108.4651
340.14        108.8213
340.59        109.2111
341.05        109.6261
341.50        110.0763
341.95        110.5406
342.40        110.9801
342.85        111.3834
343.30        111.7605
343.75        112.1028
344.20        112.4077
344.66        112.6896
345.11        112.9264
345.56        113.1685
346.01        113.4941
346.46        113.9095
346.91         114.374
347.36        114.7889
347.81         115.049
348.26        115.1432
348.72        114.9507
349.17        114.8704
349.62        114.8223
350.07        114.9403
350.52        115.1553
350.97        115.3957
351.42        115.5376
351.87        115.5324
352.32         115.422
352.77        115.2175
353.22        114.9307
353.67        114.5829
354.13         114.193
354.58        113.7731
355.03        113.4023
355.48        113.0975
355.93        112.8338
356.38        112.5978
356.83        112.3615
357.28        112.0947
357.73        111.7907
358.18        111.3913
358.63        110.8118
359.08        110.0553
359.53        109.1693
359.98        108.2388
360.43        107.3902
360.88         106.658
361.33        106.0069
361.78        105.4221
362.23        104.8731
362.68        104.3407
363.13        103.8402
363.58        103.3145
364.03        102.6701
364.48        101.8938
364.93        101.0024
365.38        100.0966
365.83        99.35009
366.28        98.79394
366.73         98.3671
367.18        97.95602
367.63        97.37729
368.08        96.59108
368.53        95.67379
368.98        94.69476
369.43         93.7475
369.88        92.86727
370.33        92.02274
370.78        91.23952
371.23        90.57803
371.68        90.04931
372.13         89.6408
372.58         89.2906
373.03        88.88197
373.48        88.37558
373.93        87.79707
374.38        87.16625
374.83        86.53416
375.28        85.93438
375.72        85.34127
376.17        84.81102
376.62        84.35542
377.07        83.95933
377.52        83.60345
377.97        83.24833
378.42        82.83659
378.87        82.36397
379.32        81.85988
379.77        81.33477
380.22        80.79411
380.67        80.23065
381.11        79.62944
381.56        79.01908
382.01        78.47452
382.46        78.02244
382.91          77.666
383.36        77.31368
383.81        76.81502
384.26        76.15104
384.71        75.36961
385.15        74.61272
385.60        74.16345
386.05        74.03969
386.50        74.15086
386.95        74.30301
387.40        74.19444
387.85        73.77155
388.29         73.1078
388.74        72.46077
389.19        71.99648
389.64         71.7488
390.09        71.62946
390.54         71.5702
390.98        71.45308
391.43        71.28362
391.88        71.09741
392.33         70.8917
392.78        70.67548
393.23        70.46059
393.67        70.14345
394.12        69.85497
394.57        69.76144
395.02        69.79753
395.47        69.62228
395.91        69.25477
396.36        68.98667
396.81        68.84955
397.26        68.69701
397.71        68.49064
398.15        68.22751
398.60         67.9826
399.05        67.64547
399.50        67.32925
399.95        67.29887
400.39        67.49758
400.84        67.63065
401.29        67.61025
401.74        67.27793
402.18        66.77043
402.63        66.65631
403.08        66.87575
403.53        66.76822
403.97         66.3104
404.42        65.93699
404.87        65.71909
405.32        65.59888
405.76        65.57878
406.21        65.65943
406.66        65.76158
407.11        65.79879
407.55        65.73499
408.00          65.505
408.45        65.17326
408.90        64.83405
409.34        64.57204
409.79        64.52385
410.24        64.63922
410.68        64.70705
411.13        64.70345
411.58         64.7497
412.03         64.8349
412.47         64.8907
412.92        64.88071
413.37        64.82866
413.81        64.75105
414.26        64.72933
414.71        64.75813
415.15        64.83519
415.60        64.89223
416.05        64.86927
416.49        64.75611
416.94        64.57122
417.39        64.37695
417.83        64.25624
418.28        64.23261
418.73        64.28083
419.17        64.35313
419.62        64.38132
420.07        64.34829
420.51        64.27132
420.96         64.2129
421.41        64.22959
421.85        64.30516
422.30         64.4213
422.74        64.52357
423.19        64.70837
423.64        64.92181
424.08        65.03405
424.53        64.99118
424.98         65.0048
425.42        65.10783
425.87        65.06628
426.31        64.95518
426.76        65.16654
427.21        65.61435
427.65        65.74397
428.10        65.52296
428.54         65.4333
428.99        65.52538
429.44        65.52139
429.88        65.41708
430.33        65.39953
430.77        65.40916
431.22        65.51179
431.66        65.67302
432.11        65.76485
432.56        65.82289
433.00        65.92596
433.45        65.80629
433.89        65.58496
434.34        65.59893
434.78        64.34791
435.23        64.85645
435.67        66.19267
436.12        66.35848
436.57        66.52368
437.01         66.0222
437.46        65.85249
437.90        66.78368
438.35        66.39838
438.79        66.81843
439.24        66.86107
439.68        67.04617
440.13         66.8858
440.57        66.50217
441.02        66.52154
441.46        66.88193
441.91        67.08397
442.35        67.04445
442.80        67.25109
443.24        67.60119
443.69        67.73248
444.13        67.62091
444.58        67.44202
445.02        67.27688
445.47        67.39582
445.91        67.72043
446.36          67.884
446.80        67.84985
447.24        67.77511
447.69        67.72449
448.13        67.90482
448.58        68.07544
449.02         68.0547
449.47        67.81681
449.91        67.69592
450.36        67.72858
450.80        67.64839
451.25        67.49886
451.69        67.51571
452.13        67.65184
452.58        67.56393
453.02          67.286
453.47        67.17307
453.91        67.23138
454.36        67.27911
454.80        67.26541
455.24        67.23515
455.69        67.20655
456.13        67.05195
456.58        66.83536
457.02         66.9343
457.46        66.92833
457.91        66.79982
458.35         66.6087
458.79        66.55756
459.24        66.68613
459.68        66.86378
460.13        67.08143
460.57        67.04589
461.01        66.55598
461.46        66.79543
461.90        66.50328
462.34        65.76793
462.79        66.15415
463.23        66.17949
463.68        66.34698
464.12        66.24733
464.56         65.9623
465.01        66.11762
465.45        66.49084
465.89        66.38329
466.34        65.90353
466.78        65.62965
467.22        65.63327
467.67        65.72252
468.11        65.68578
468.55        65.58303
468.99        65.39471
469.44        65.31806
469.88        65.35817
470.32        65.35841
470.77        65.30307
471.21        65.24718
471.65        65.19203
472.10        65.13389
472.54        65.05904
472.98        64.98567
473.42        64.92393
473.87        64.83834
474.31        64.74349
474.75        64.86249
475.20        65.12932
475.64        65.23022
476.08        65.15266
476.52        65.09682
476.97        65.03904
477.41         64.9734
477.85        64.93202
478.29        64.53239
478.74        64.50732
479.18         64.5411
479.62        64.72327
480.06        64.81278
480.50        64.75419
480.95        64.85126
481.39        65.08434
481.83        64.68385
482.27        65.24625
482.72        64.86783
483.16        64.85358
483.60        65.11076
484.04        65.03195
484.48        64.79826
484.93        64.91479
485.37        64.33619
485.81        64.94805
486.25        64.22702
486.69        65.49044
487.14        65.53423
487.58        65.22004
488.02        64.55125
488.46        64.41277
488.90        64.72061
489.34        64.48618
489.79        63.89482
490.23        64.36859
490.67        64.51426
491.11         64.7523
491.55        64.64795
491.99         64.2932
492.43        64.13896
492.88        64.20547
493.32        64.26097
493.76        64.22699
494.20        64.23161
494.64         64.2904
495.08        63.99905
495.52        63.92297
495.96        64.05956
496.41        64.40577
496.85        64.36088
497.29        63.93954
497.73        63.73374
498.17        63.49954
498.61        63.78743
499.05        64.31479
499.49        64.19109
499.93        63.56298
500.37        63.51611
500.82        64.00287
501.26        64.25496
501.70         64.1936
502.14         63.7887
502.58        63.63604
503.02        63.45893
503.46        63.38548
503.90        63.34258
504.34        63.29214
504.78        63.27721
505.22        63.31075
505.66        63.29552
506.10        63.21008
506.54        63.31394
506.98        63.65409
507.42        63.09037
507.86        63.50818
508.30        63.48307
508.74        63.45906
509.18         63.4533
509.62        63.44193
510.06        63.45092
510.50        63.44497
510.94         63.3708
511.38        63.24687
511.82        63.17004
512.26        63.14997
512.70        63.13296
513.14         63.1202
513.58        63.13408
514.02        63.16885
514.46         63.2165
514.90        63.24115
515.34        63.21933
515.78        63.14956
516.22        63.02244
516.66        62.71832
517.10        62.86801
517.54        62.64348
517.98         62.6889
518.42        62.73617
518.86        62.77603
519.30        62.79511
519.74         62.7641
520.18        62.72517
520.62         62.8213
521.06        63.01167
521.50        63.05283
521.93        62.94253
522.37        62.88161
522.81        62.88095
523.25        62.82331
523.69        62.72532
524.13        62.67057
524.57        62.66809
525.01          62.695
525.45        62.74253
525.89        62.79455
526.32        62.84039
526.76        62.89076
527.20        62.93533
527.64        62.96022
528.08        62.96278
528.52        62.94605
528.96        62.92548
529.40        62.91887
529.83        62.92891
530.27        62.98191
530.71        63.04252
531.15        63.05251
531.59        63.00249
532.03        62.91134
532.46        62.81322
532.90        62.77595
533.34        62.80698
533.78        62.88918
534.22        62.96771
534.66        62.95871
535.09        62.84033
535.53        62.66178
535.97        62.47866
536.41        62.39485
536.85        62.43257
537.28        62.55893
537.72        62.71037
538.16         62.7851
538.60        62.75629
539.04        62.65947
539.47        62.53097
539.91         62.4776
540.35        62.50249
540.79        62.57664
541.22        62.66196
541.66        62.71468
542.10        62.71403
542.54        62.67495
542.97        62.61116
543.41        62.57366
543.85        62.57099
544.29        62.60389
544.72        62.63506
545.16         62.6639
545.60        62.67319
546.04        62.58953
546.47        62.48441
546.91        62.61661
547.35        62.90345
547.79        63.01966
548.22        62.90969
548.66        62.66569
549.10         62.3979
549.53        62.36463
549.97        62.54554
550.41        62.58347
550.84         62.4568
551.28        62.41525
551.72        62.47668
552.15        62.50745
552.59        62.51072
553.03        62.64852
553.46        62.64548
553.90        62.64784
554.34        62.56514
554.77        62.42153
555.21         62.2971
555.65        62.21789
556.08        62.29692
556.52        62.50708
556.96        62.76598
557.39        62.75707
557.83        62.53829
558.27        62.47186
558.70        62.58602
559.14        62.63569
559.57        62.60887
560.01         62.7466
560.45        62.95204
560.88        62.89479
561.32        62.66669
561.75        62.48527
562.19        62.43314
562.63        62.53252
563.06        62.69718
563.50        62.60118
563.93        62.29358
564.37        62.22256
564.80        62.37797
565.24        62.54214
565.68        62.64834
566.11        62.70737
566.55        62.72243
566.98        62.65675
567.42        62.57693
567.85        62.55849
568.29         62.6315
568.72        62.67432
569.16        62.72032
569.60        62.68637
570.03        62.88171
570.47        62.90487
570.90        62.77934
571.34        63.07371
571.77        63.19745
572.21        62.89239
572.64        63.12558
573.08        62.89906
573.51        63.00357
573.95        63.44901
574.38        63.32645
574.82        63.74084
575.25        63.62491
575.69        63.53123
576.12        62.93127
576.56        63.30285
576.99         63.4622
577.42        63.34196
577.86        63.53401
578.29        63.88609
578.73        63.99421
579.16         63.5546
579.60        63.22697
580.03        63.45961
580.47         63.4573
580.90        63.54268
581.33        63.67723
581.77        63.83683
582.20        64.09737
582.64        63.96682
583.07        63.81061
583.51         63.1556
583.94        63.22961
584.37        63.04815
584.81        63.09744
585.24         63.1996
585.68        63.78164
586.11        63.46531
586.54        63.49208
586.98        63.53738
587.41        63.21616
587.85        63.50159
588.28        63.51988
588.71        63.67915
589.15        63.36527
589.58        63.14198
590.01        62.95675
590.45         62.7896
590.88         63.0997
591.31        62.87019
591.75        62.94352
592.18        62.91081
592.61        62.97575
593.05         63.2577
593.48        63.48728
593.91        63.49327
594.35         63.2188
594.78        63.35835
595.21        63.10647
595.65         63.1744
596.08        63.25094
596.51        63.39581
596.94         63.0965
597.38        63.06419
597.81         63.2289
598.24        63.19493
598.68        63.22581
599.11        63.22444
599.54        63.47144
599.97         63.0335
600.41        63.07234
600.84        63.30742
601.27        63.34794
601.70        63.28261
602.14        63.32826
602.57         63.1646
603.00         63.0175
603.43        62.99686
603.87        63.63806
604.30        63.60546
604.73        63.30375
605.16        63.01987
605.60        63.11754
606.03        63.21487
606.46        63.32983
606.89        63.22492
607.32        62.84253
607.76        63.25702
608.19        63.36787
608.62        63.03386
609.05        63.76785
609.48        63.30513
609.92         63.3624
610.35        63.15441
610.78        63.23885
611.21        62.67299
611.64        63.00774
612.07        63.06319
612.50        63.24747
612.94        63.29708
613.37         63.1825
613.80        63.45355
614.23        63.34243
614.66        63.05304
615.09        63.26191
615.52        63.12264
615.96        62.86892
616.39        63.11229
616.82         62.9126
617.25        62.86761
617.68        62.91972
618.11        62.94857
618.54        62.94149
618.97        62.87361
619.40         62.7484
619.84        62.85936
620.27        62.96398
620.70        62.91855
621.13        62.69046
621.56        62.55051
621.99        62.56683
622.42        62.64991
622.85        62.73527
623.28        62.79675
623.71        63.11826
624.14        62.72123
624.57        62.95555
625.00        63.14185
625.43        62.73767
625.86        62.80794
626.29        63.11869
626.72        62.67601
627.15        62.88036
627.58        62.79008
628.01        62.87911
628.44        62.59844
628.87        62.73325
629.30        62.78954
629.73        62.78301
630.16        62.73342
630.59        62.52035
631.02        62.73229
631.45        62.47275
631.88        62.48342
632.31        62.50251
632.74        62.51058
633.17        62.58004
633.60        62.56311
634.03        62.48923
634.46        62.42689
634.89        62.30881
635.32        62.27447
635.75        62.30437
636.18        62.38097
636.61        62.47767
637.04        62.55383
637.47        62.59608
637.89        62.62452
638.32        62.62957
638.75        62.61863
639.18        62.59668
639.61        62.57364
640.04         62.5424
640.47        62.55416
640.90        62.60478
641.33         62.6861
641.76        62.76901
642.18        62.81081
642.61        62.78726
643.04         62.7221
643.47        62.64081
643.90        62.58975
644.33        62.58329
644.76        62.59415
645.18         62.6177
645.61        62.66842
646.04        62.72565
646.47        62.73257
646.90        62.69204
647.33        62.66037
647.75        62.63619
648.18        62.60789
648.61        62.58759
649.04        62.55726
649.47        62.49419
649.89        62.66925
650.32        62.42704
650.75        62.53781
651.18        62.73089
651.61        62.64832
652.03        62.34043
652.46        62.19104
652.89        62.26288
653.32        62.40602
653.74        62.56086
654.17        62.73551
654.60        62.32304
655.03        62.63732
655.46          62.536
655.88        63.06899
656.31        63.63583
656.74        66.89272
657.16        65.68806
657.59         64.0889
658.02        62.61348
658.45        62.94098
658.87        62.64412
659.30        62.38903
659.73        62.44139
660.15        62.37682
660.58        62.72846
661.01         62.9506
661.44        63.04969
661.86        62.99899
662.29        62.81459
662.72        62.57665
663.14        62.38437
663.57        62.39531
664.00        62.57071
664.42        62.65393
664.85        62.63225
665.27        62.54424
665.70        62.61542
666.13        62.65207
666.55          62.722
666.98         62.8189
667.41        62.90262
667.83        62.92035
668.26        62.86851
668.69        62.70192
669.11        62.47792
669.54        62.49142
669.96        62.81076
670.39        62.57853
670.82        63.19562
671.24          63.137
671.67         62.8774
672.09        62.74264
672.52        62.79268
672.94        62.79261
673.37        62.73292
673.80        62.70552
674.22        62.71831
674.65        62.72839
675.07          62.748
675.50        62.75186
675.92        62.74856
676.35        62.75192
676.77        62.76356
677.20         62.7915
677.62        62.84392
678.05        62.86043
678.47        62.82234
678.90        62.99547
679.32        62.92011
679.75         62.9883
680.17         63.0559
680.60        63.17543
681.02        63.29406
681.45        63.23495
681.87        63.04662
682.30        62.94162
682.72        62.96685
683.15        63.02454
683.57        63.06744
684.00        63.15821
684.42        62.96878
684.85        62.94869
685.27        62.99105
685.70        62.99632
686.12        62.95049
686.54        62.92875
686.97        62.92738
687.39        62.95364
687.82        62.99461
688.24        63.00064
688.66        62.94492
689.09        63.09414
689.51        62.98958
689.94        63.06871
690.36        63.17889
690.78        63.27745
691.21        63.34385
691.63        63.32718
692.06        63.27179
692.48        63.31224
692.90        63.43005
693.33        63.47091
693.75        63.43781
694.17        63.36943
694.60        63.28606
695.02        63.40343
695.44        63.44043
695.87        63.47597
696.29        63.44889
696.71        63.41048
697.14        63.36959
697.56        63.46777
697.98        63.68361
698.41          63.528
698.83         63.6297
699.25        63.55094
699.68        63.48679
700.10        63.41222
700.52        63.33878
700.94        63.26751
701.37        63.20011
701.79        63.20086
702.21        63.25421
702.64        63.34967
703.06        63.45403
703.48         63.5203
703.90        63.54103
704.33        63.53121
704.75        63.50347
705.17        63.45918
705.59        63.40537
706.01        63.33506
706.44        63.29481
706.86          63.357
707.28         63.5097
707.70         63.7937
708.12        64.11152
708.55        64.14711
708.97        63.93867
709.39        63.89622
709.81        64.02576
710.23        64.01267
710.66        63.86245
711.08        63.79454
711.50        63.80723
711.92        63.81216
712.34        63.80774
712.76        63.81632
713.19        63.84105
713.61        63.92966
714.03        64.05536
714.45        64.21326
714.87        64.35889
715.29        64.38546
715.71        64.27346
716.13        64.21798
716.56        63.96064
716.98         63.8855
717.40        63.91876
717.82        64.03902
718.24        64.19523
718.66        64.30594
719.08        64.34708
719.50        64.33835
719.92        64.31069
720.34        64.31045
720.76        64.35085
721.19        64.40874
721.61        64.47491
722.03        64.50717
722.45        64.49985
722.87        64.46985
723.29        64.45211
723.71        64.50089
724.13        64.62553
724.55        64.80099
724.97        64.99091
725.39        65.13419
725.81        65.20815
726.23        65.23377
726.65        65.22061
727.07        65.15546
727.49        65.10782
727.91        65.02137
728.33        64.93131
728.75        64.90082
729.17        64.92517
729.59         64.9245
730.01        64.91076
730.43        64.96188
730.85        65.07156
731.27        65.18291
731.69        65.27058
732.10        65.25304
732.52        65.33247
732.94        65.12331
733.36        64.76379
733.78        64.60768
734.20        64.71328
734.62        64.64758
735.04        64.84837
735.46        64.95174
735.88        65.08197
736.30        65.23827
736.72        65.35711
737.13        65.39294
737.55        65.30646
737.97        64.96862
738.39        64.54848
738.81        64.72315
739.23        65.36656
739.65        65.45078
740.06        64.97866
740.48         64.8988
740.90        65.19341
741.32        65.34343
741.74        65.31927
742.16        65.35567
742.57        65.46512
742.99        65.55403
743.41        65.61888
743.83        65.63908
744.25        65.60954
744.67        65.54271
745.08        65.48459
745.50        65.45915
745.92        65.49294
746.34        65.58443
746.75        65.68314
747.17        65.70042
747.59        65.62352
748.01        65.44482
748.42        65.25856
748.84        65.25523
749.26        65.42889
749.68        65.63853
750.09        65.79376
750.51         65.7651
750.93        65.59351
751.35        65.53886
751.76        65.62273
752.18        65.64536
752.60        65.61224
753.01        65.68399
753.43        65.79391
753.85        65.80047
754.27        65.68887
754.68         65.5036
755.10        65.33035
755.52        65.27946
755.93        65.37227
756.35        65.57597
756.77        65.82707
757.18        65.95874
757.60        65.92007
758.02        65.87919
758.43        65.93169
758.85        65.53039
759.26         65.7886
759.68        65.94621
760.10        65.51624
760.51         65.3214
760.93        65.99426
761.34        65.61012
761.76        66.24146
762.18        66.29102
762.59        66.26001
763.01        66.28179
763.42        65.61146
763.84        65.64149
764.26        65.80492
764.67        66.14707
765.09        66.46057
765.50        66.75751
765.92        66.96509
766.33        66.82349
766.75        66.42866
767.16        66.26734
767.58        66.34491
768.00        66.62185
768.41        66.95115
768.83        66.69477
769.24        65.96475
769.66        65.98221
770.07         65.9287
770.49        66.15333
770.90        66.31226
771.32        66.29174
771.73        66.12282
772.15        66.09634
772.56        66.24284
772.97        66.33041
773.39        66.31847
773.80        66.35529
774.22        66.41239
774.63         66.4623
775.05        66.50953
775.46        66.62003
775.88        66.77304
776.29        66.97665
776.70        67.14677
777.12        67.15403
777.53        66.99879
777.95        66.72521
778.36        66.42815
778.77        66.24942
779.19        66.23196
779.60        66.34454
780.02        66.54374
780.43        66.76678
780.84        66.97554
781.26        67.18243
781.67        67.39595
782.09        67.49388
782.50        67.48911
782.91        67.56054
783.33        67.64703
783.74        67.57273
784.15        67.30008
784.57        67.00114
784.98        66.77507
785.39        66.63625
785.81        66.65189
786.22        66.95961
786.63        67.43744
787.04        67.73516
787.46        67.80641
787.87        67.77605
788.28        67.71191
788.70        67.67011
789.11         67.6604
789.52        67.66774
789.93        67.69118
790.35        67.72437
790.76        67.77761
791.17        67.86642
791.58        67.96006
792.00        67.98979
792.41          67.979
792.82        67.91071
793.23        67.85017
793.65        67.96668
794.06        68.29073
794.47        68.63331
794.88        68.85683
795.29        69.25939
795.71        69.12912
796.12        69.00446
796.53        68.75804
796.94        68.69628
797.35        68.81015
797.76        68.79187
798.18        68.63585
798.59        68.55511
799.00        68.54956
799.41        68.49426
799.82        68.39035
800.23        68.31141
800.64        68.26756
801.06          68.217
801.47        68.21105
801.88        68.26131
802.29        68.36604
802.70        68.51102
803.11        68.67225
803.52        68.80728
803.93        68.90459
804.34         68.9745
804.75        69.01021
805.17        69.03268
805.58         69.0838
805.99        69.02824
806.40        68.91589
806.81        69.11751
807.22        69.50214
807.63        69.40437
808.04        68.92074
808.45        68.79579
808.86        69.08398
809.27        69.36241
809.68         69.5294
810.09        69.60242
810.50        69.54562
810.91        69.36427
811.32        69.11931
811.73        68.91236
812.14        68.78371
812.55        68.71318
812.96         68.7086
813.37        68.77458
813.78        68.89786
814.19        69.07618
814.60        69.25843
815.01        69.36136
815.42        69.36913
815.83        69.30151
816.24         69.1969
816.65        69.13556
817.05        69.15508
817.46        69.20528
817.87        69.30395
818.28        69.43494
818.69        69.58707
819.10        69.76364
819.51        69.94244
819.92        70.07709
820.33        70.14841
820.74        70.15862
821.14        70.11732
821.55        70.06737
821.96        70.00981
822.37        69.93666
822.78        69.85149
823.19        69.75927
823.60        69.66618
824.00         69.6002
824.41        69.52136
824.82        69.42939
825.23        69.32593
825.64        69.21825
826.04        69.15784
826.45          69.184
826.86        69.31789
827.27        69.55188
827.68        69.82047
828.08        70.03123
828.49        70.07992
828.90        70.02834
829.31         69.9806
829.72        70.02299
830.12        70.18794
830.53        70.75501
830.94        70.95496
831.35        71.01631
831.75         70.7131
832.16        70.11333
832.57         69.4634
832.97        69.16709
833.38        69.31761
833.79          69.784
834.20        70.33971
834.60        70.64037
835.01        70.59901
835.42        70.32581
835.82        69.96618
836.23        69.71737
836.64        69.67475
837.04        69.78117
837.45         69.9527
837.86        70.11987
838.26        70.26103
838.67        70.39337
839.08        70.53655
839.48        70.70036
839.89        70.87377
840.29        71.03351
840.70        71.17345
841.11         71.2959
841.51        71.41093
841.92        71.48704
842.33        71.51116
842.73        71.45686
843.14        71.28662
843.54        71.05785
843.95         70.8289
844.35        70.71549
844.76        70.73882
845.17        70.87447
845.57        71.09068
845.98        71.29247
846.38        71.47266
846.79         71.6211
847.19        71.75957
847.60         71.8484
848.00        71.91541
848.41        71.91587
848.81         71.9086
849.22        71.92395
849.62        72.00771
850.03        72.11616
850.43        72.22228
850.84        72.17111
851.24         71.9903
851.65        71.65306
852.05        71.32059
852.46        71.17337
852.86        71.26283
853.27        71.56457
853.67        71.85037
854.07        71.94817
854.48        71.78926
854.88        71.45168
855.29        71.03891
855.69        70.91908
856.10         71.0893
856.50        71.54126
856.90        72.01822
857.31        72.13866
857.71        71.86817
858.12        71.27131
858.52        70.58289
858.92        70.12885
859.33        70.00256
859.73        70.14957
860.13        70.43919
860.54        70.65227
860.94        70.77442
861.34        70.83794
861.75        70.83287
862.15        70.82076
862.55        70.77802
862.96        70.64523
863.36        70.48582
863.76        70.36282
864.17        70.28814
864.57        70.30593
864.97        70.29204
865.38        70.01376
865.78         69.4799
866.18        68.73307
866.58        68.06863
866.99         67.9893
867.39        68.62026
867.79        69.74227
868.19        70.90585
868.60        71.42249
869.00        71.22796
869.40        70.64223
869.80        69.88483
870.21        69.22878
870.61        68.91791
871.01        68.93166
871.41        69.08544
871.81        69.02472
872.22        68.69249
872.62        68.21414
873.02        67.79376
873.42        67.92574
873.82        68.51055
874.22        68.94798
874.63        69.23487
875.03        69.45145
875.43        69.54751
875.83        70.25469
876.23        69.41598
876.63         68.5839
877.03        67.60759
877.44        65.90791
877.84        160.3889
878.24        67.09742
878.64        67.72288
879.04        68.90723
879.44        69.19025
879.84        66.14142
880.24         70.4856
880.64        70.63192
881.04        68.52817
881.44        66.95197
881.84        66.40108
882.24        66.96094
882.65        68.07984
883.05        68.53585
883.45        68.06982
883.85        67.43468
884.25        66.92912
884.65        66.67944
885.05        66.77478
885.45        67.10258
885.85        67.49162
886.25        67.72493
886.65        67.74632
887.05        67.64595
887.45        67.46801
887.85        67.27924
888.25        67.12723
888.65        66.98204
889.04        66.93441
889.44        67.14185
889.84        67.59615
890.24        68.22187
890.64        68.83281
891.04        69.15801
891.44        69.14811
891.84        68.89084
892.24        68.50308
892.64        68.19875
893.04        68.05973
893.44        68.02299
893.83        68.09157
894.23        68.23689
894.63        68.44522
895.03        68.74403
895.43        69.03979
895.83         69.1656
896.23        69.09294
896.63        68.85045
897.02        68.58037
897.42        68.56878
897.82        68.82889
898.22        69.28198
898.62        69.72776
899.01        69.84907
899.41        69.55502
899.81        68.96685
900.21        68.29653
900.61        67.88795
901.00        67.83006
901.40        68.08853
901.80        68.50539
902.20        68.71867
902.59        68.63112
902.99        68.55448
903.39        68.72832
903.79        68.06232
904.18        68.92432
904.58        69.35085
904.98        69.75951
905.38        69.69006
905.77        69.08826
906.17        68.13414
906.57        67.14895
906.96         66.7468
907.36        67.06667
907.76        67.93902
908.15        69.06317
908.55         69.7728
908.95        69.92515
909.34        69.66266
909.74        69.25572
910.14         69.1062
910.53        69.31953
910.93        69.72358
911.33        70.12713
911.72        70.24506
912.12        70.01234
912.52        69.55193
912.91        68.96968
913.31        68.49679
913.70        68.18398
914.10        67.97025
914.49        67.85332
914.89        67.74463
915.29        67.65564
915.68        67.61887
916.08        67.66778
916.47         67.7905
916.87         68.0112
917.26        68.30316
917.66        68.64854
918.05        69.05109
918.45        69.46434
918.84        69.86396
919.24        70.20535
919.64        70.49013
920.03        70.70317
920.42         70.8202
920.82        70.77797
921.21        70.49438
921.61        70.01067
922.00        69.45738
922.40        69.01824
922.79        68.85418
923.19        68.69139
923.58        69.23638
923.98        70.76151
924.37        71.07545
924.77        68.99022
925.16        76.11133
925.55        71.36269
925.95          71.909
926.34        71.81065
926.74        70.97123
927.13         69.4897
927.52        68.57861
927.92        68.74244
928.31        69.35867
928.70        70.18779
929.10        70.80688
929.49        71.12497
929.89        71.29388
930.28         71.2961
930.67        70.99097
931.07        70.41979
931.46        69.51411
931.85         68.6253
932.24        68.74639
932.64        69.98901
933.03        71.55216
933.42        72.58422
933.82        74.60532
934.21         73.0761
934.60        71.58315
934.99        69.99158
935.39        69.46217
935.78        70.11695
936.17        72.17121
936.56        77.93073
936.96        72.26894
937.35        75.45483
937.74        72.55957
938.13        70.36051
938.53        68.70768
938.92        68.31306
939.31        69.53336
939.70        71.14281
940.09        71.89655
940.49        71.52399
940.88        70.46169
941.27         69.1945
941.66         68.6288
942.05        69.07025
942.44        70.14378
942.84        71.32135
943.23         71.9643
943.62        71.90113
944.01        71.33239
944.40        70.63293
944.79        70.42187
945.18        70.85765
945.57        71.72771
945.97        72.58273
946.36        72.84909
946.75         72.3464
947.14        71.26951
947.53        70.04837
947.92        69.41418
948.31        69.57414
948.70        70.30113
949.09        71.17088
949.48        71.53092
949.87        71.23044
950.26        70.49065
950.65        69.64623
951.04        69.23197
951.43        69.40437
951.82        69.98208
952.21        70.72038
952.60        71.21581
952.99        71.31449
953.38        71.12631
953.77        70.80725
954.16        70.57011
954.55        70.47833
954.94        70.48936
955.33        70.46693
955.72        70.19115
956.11        69.63992
956.50        68.90652
956.89        68.29671
957.28        68.27019
957.66        68.92147
958.05        70.01005
958.44        71.13982
958.83        71.71349
959.22        71.58796
959.61        70.90119
960.00        69.95106
960.39        69.34052
960.78        69.28336
961.16        69.62305
961.55        70.02428
961.94        70.10728
962.33        69.78721
962.72        69.20348
963.11        68.54951
963.49        68.21352
963.88        68.33131
964.27        68.76157
964.66        69.30982
965.04        69.74648
965.43        69.94794
965.82        70.00671
966.21        69.98883
966.60        70.00749
966.98        70.09678
967.37        70.20599
967.76        70.26133
968.15        70.14729
968.53        69.87814
968.92         69.4978
969.31        69.13992
969.69        68.99786
970.08        69.08909
970.47        69.34219
970.86        69.70556
971.24        70.08949
971.63        70.40774
972.02        70.68263
972.40        70.82062
972.79         70.6002
973.17        70.06596
973.56        69.28393
973.95        68.50085
974.33        68.16456
974.72        68.39232
975.11        69.03991
975.49        69.97535
975.88        70.88195
976.26        71.68881
976.65        72.38345
977.04        72.87597
977.42        73.01118
977.81        72.74258
978.19        72.05247
978.58        71.35119
978.96        71.34142
979.35        72.12567
979.74          73.411
980.12         74.6941
980.51        75.16239
980.89        74.81843
981.28        73.81307
981.66        72.43272
982.05        71.45051
982.43        71.20911
982.82        71.53316
983.20        72.20766
983.59        72.84374
983.97           73.34
984.35        73.76587
984.74        74.04505
985.12        74.12457
985.51        73.96701
985.89        73.64796
986.28        73.21474
986.66        72.79562
987.04        72.48204
987.43        72.17667
987.81        71.77499
988.20        72.38467
988.58        74.15014
988.96        74.63814
989.35        73.15714
989.73        78.46335
990.12        75.60555
990.50        76.01188
990.88        75.78686
991.27        75.63013
991.65        75.54163
992.03        75.58231
992.42        75.78166
992.80        75.75691
993.18        75.42969
993.56         74.9523
993.95          74.375
994.33         73.7272
994.71         73.0936
995.10        72.49667
995.48        72.09328
995.86        72.12195
996.24        72.60076
996.63        73.32833
997.01         74.2606
997.39         75.1254
997.77         75.7811
998.15        76.26002
998.54        76.46512
998.92        76.15183
999.30        75.35121
999.68        74.14042
1000.06        72.80077
1000.45        71.91187
1000.83        71.82854
1001.21        72.38134
1001.59        73.41695
1001.97        74.64105
1002.35        75.83514
1002.73        76.97067
1003.12        77.84668
1003.50        78.26768
1003.88        78.21183
1004.26        77.70368
1004.64         76.8736
1005.02        76.06611
1005.40        75.45612
1005.78        75.01732
1006.16        74.71191
1006.54        74.39179
1006.92        74.04877
1007.30        73.84351
1007.69        73.75937
1008.07        73.83555
1008.45        74.05666
1008.83        74.35963
1009.21        74.92853
1009.59         76.0731
1009.97        77.63017
1010.35        79.24185
1010.73         80.5121
1011.11        81.27152
1011.49        81.65485
1011.86        81.51614
1012.24        80.71779
1012.62         81.7659
1013.00        82.30789
1013.38        82.12321
1013.76        80.10613
1014.14          83.432
1014.52        88.51373
1014.90        82.23748
1015.28        83.31754
1015.66         84.4005
1016.04        81.13549
1016.41        80.96004
1016.79        79.80232
1017.17        79.25523
1017.55        78.82732
1017.93         78.6567
1018.31        78.94008
1018.69        79.43404
1019.06        80.10179
1019.44        80.95234
1019.82        81.51859
1020.20        81.10044
1020.58        79.54274
1020.95         76.6305
1021.33        73.23633
1021.71        72.07492
1022.09        74.25355
1022.46        78.34182
1022.84        82.12941
1023.22        84.00648
1023.60         84.1075
1023.97        83.04549
1024.35        81.43755
1024.73        80.53774
