SpectraSmart Spectrum 2.9.0.0
--------- Device Information -----------
Spectrum Name :  反射率_0
Saving Time :  2024/04/21 00:47:19
Spectro-Module Model Name : SE2030-DUVN
Spectro-Module Serial Number : OS361AC55029948
Wavelength Start : 200
Wavelength End : 1025
Wavelength Unit : Wavelength(nm)
Spectrum Unit : Reflectance(%)
-----------Spectrum Setting ------------
Integration Time : 20ms
Average : 10
Boxcar : 0
Background removal :  enabled
linearity correction :  enabled
SC :  disabled
Intensity correction :  disabled
DWT denoise :  enabled
savitzky-golay :  disabled
FFT :  disabled
Running average :  disabled
Kalman :  disabled
High pass :  disabled
---------------BEGIN--------------------
Wavelength(nm)             Reflectance(%)
200.29               0
200.75       -30.45063
201.21       -7.040522
201.67        6.257673
202.13        13.57422
202.58         18.1552
203.04        22.43303
203.50        27.29629
203.96        32.37748
204.42        36.22843
204.88        37.88792
205.34        37.16607
205.80        33.72645
206.26        27.23859
206.72        18.38115
207.18        5.869142
207.64       -11.70795
208.10        -30.9516
208.55       -49.74929
209.01       -52.29171
209.47       -25.59565
209.93        5.790431
210.39        29.25526
210.85        43.16233
211.31        47.75718
211.77        45.09402
212.23        35.25137
212.69        13.05821
213.14       -29.20079
213.60       -106.0742
214.06        -322.856
214.52       -786.0882
214.98       -324.0301
215.44       -69.61578
215.90         11.6874
216.36        37.70735
216.81         40.2101
217.27        23.78526
217.73        -63.0489
218.19        993.6953
218.65        438.4792
219.11       -942.7613
219.57       -33.49589
220.02        24.34311
220.48        34.14919
220.94        27.53217
221.40        2.927736
221.86       -57.43634
222.32       -102.7963
222.77       -55.16505
223.23       -10.17212
223.69        13.51289
224.15        22.40573
224.61          23.826
225.06        22.37202
225.52        19.05054
225.98        14.59514
226.44        9.822829
226.90        3.386042
227.36      -0.7675514
227.81        4.300598
228.27        14.78336
228.73        25.40812
229.19        32.09052
229.65        32.63096
230.10        27.89571
230.56        19.43569
231.02        8.402025
231.48        0.191952
231.93      -0.6933883
232.39         4.02618
232.85        10.32539
233.31        14.61638
233.77        16.97237
234.22        19.04015
234.68        20.71909
235.14        21.56137
235.60        21.76089
236.05        20.43505
236.51        18.29545
236.97        23.02887
237.43        35.16903
237.88        43.92059
238.34        45.38081
238.80        66.04105
239.26        56.91166
239.71        53.37498
240.17        42.78251
240.63        31.82745
241.08        25.83038
241.54        28.56329
242.00        39.88828
242.46        47.85335
242.91        49.51664
243.37         46.6327
243.83        41.43091
244.28         41.4957
244.74        49.76498
245.20        60.12063
245.66        68.25663
246.11         71.0164
246.57        68.27747
247.03        61.88337
247.48        51.62427
247.94        35.97005
248.40         8.92074
248.85       -58.21568
249.31       -271.6365
249.77       -466.4474
250.22       -148.3662
250.68       -7.980709
251.14        39.41663
251.59        55.10007
252.05        58.98862
252.51        56.98034
252.96        49.59581
253.42        41.20623
253.88         37.4277
254.33        38.10643
254.79        44.03351
255.25        53.15038
255.70        61.60052
256.16         68.0911
256.62        72.63724
257.07        75.40405
257.53        77.20806
257.99        78.13792
258.44        77.31637
258.90        74.74924
259.35         70.5382
259.81        65.97292
260.27        62.05975
260.72        59.98205
261.18        59.76378
261.63        60.24021
262.09        60.70654
262.55        60.04191
263.00        58.23049
263.46        55.98398
263.91        53.69118
264.37        52.31165
264.83        51.80875
265.28        51.74232
265.74        51.80431
266.19        51.38364
266.65        50.46195
267.11        49.20695
267.56         47.7678
268.02        46.45972
268.47        45.31697
268.93        44.25836
269.38         43.2268
269.84        42.21593
270.30        41.19798
270.75         40.2193
271.21        39.24377
271.66        38.12745
272.12        36.90609
272.57        35.60567
273.03        34.41727
273.48        33.57141
273.94        33.11385
274.39        32.92241
274.85         32.8199
275.31        32.46891
275.76        31.80157
276.22        30.96716
276.67        30.12923
277.13        29.60641
277.58        29.39572
278.04        29.39746
278.49        29.41017
278.95        29.24352
279.40        28.81477
279.86        28.25095
280.31        27.60169
280.77        27.02483
281.22        26.52949
281.68        26.12593
282.13        25.76326
282.59         25.4539
283.04        25.16228
283.50        24.91451
283.95        24.71961
284.41        24.61588
284.86        24.59314
285.32        24.66012
285.77        24.73454
286.22        24.71831
286.68        24.62568
287.13        24.45287
287.59         24.3626
288.04        24.49272
288.50        24.83105
288.95        25.42034
289.41        26.13917
289.86        26.33538
290.32        25.90162
290.77        26.77012
291.22        25.90878
291.68        26.01605
292.13         26.2303
292.59        26.61852
293.04        27.17454
293.50        27.95724
293.95        28.98298
294.40        30.21545
294.86        31.61764
295.31        33.11016
295.77         34.6501
296.22        36.21673
296.68        37.79416
297.13         39.3611
297.58        40.93477
298.04          42.525
298.49        44.15731
298.95        45.89562
299.40         47.7358
299.85        49.67467
300.31        51.67896
300.76        53.66488
301.21        55.62121
301.67        57.58234
302.12        59.56837
302.58        61.72774
303.03         64.0416
303.48        66.51314
303.94         69.0418
304.39        71.41273
304.84        73.59017
305.30        75.64128
305.75        77.64095
306.20        79.82709
306.66        82.23233
307.11        84.71226
307.57        87.14427
308.02        89.25505
308.47        91.03221
308.93         92.6088
309.38        94.06269
309.83        95.60229
310.29        97.30495
310.74        99.05296
311.19        100.8096
311.65        102.4988
312.10        104.0571
312.55        105.5059
313.00        106.8118
313.46        107.9229
313.91        108.8229
314.36          109.55
314.82        110.1656
315.27        110.7559
315.72        111.3744
316.18        112.0139
316.63        112.6957
317.08        113.4452
317.53        114.2463
317.99        115.0751
318.44        115.8678
318.89        116.5047
319.35        116.9516
319.80        117.2464
320.25        117.4261
320.70        117.5685
321.16        117.7004
321.61        117.8257
322.06         117.965
322.51        118.1555
322.97        118.3881
323.42         118.709
323.87        119.0567
324.32        119.3407
324.78        119.5175
325.23        119.6438
325.68         119.769
326.13        120.0154
326.59        120.3772
327.04         120.875
327.49        121.3843
327.94        121.7383
328.39        121.8973
328.85        121.8804
329.30        121.8652
329.75        121.9981
330.20        122.3304
330.66        122.7641
331.11        123.3018
331.56        123.7864
332.01        124.1734
332.46        124.5081
332.92        124.7448
333.37        124.9701
333.82         125.158
334.27        125.3113
334.72        125.5076
335.17        125.8815
335.63        126.4236
336.08        127.1601
336.53        127.9698
336.98        128.6981
337.43        129.2837
337.88         129.753
338.34        130.0954
338.79        130.3784
339.24        130.6003
339.69        130.7556
340.14        130.8858
340.59        131.0611
341.05        131.3059
341.50        131.6303
341.95        132.0117
342.40        132.4046
342.85        132.7902
343.30        133.1723
343.75        133.5538
344.20        133.9454
344.66        134.3497
345.11        134.7291
345.56        135.0575
346.01        135.3038
346.46        135.4715
346.91          135.54
347.36        135.5217
347.81        135.5495
348.26        135.6555
348.72        135.4048
349.17        135.5379
349.62        135.4601
350.07        135.3983
350.52        135.3382
350.97        135.2612
351.42         135.121
351.87        134.9025
352.32        134.6191
352.77        134.3075
353.22        134.0237
353.67        133.7719
354.13        133.5457
354.58        133.2596
355.03        132.8377
355.48        132.2673
355.93        131.5798
356.38        130.8497
356.83        130.1847
357.28        129.6019
357.73        129.0649
358.18        128.5031
358.63        127.8087
359.08        126.9662
359.53        126.0231
359.98        125.0482
360.43        124.1373
360.88         123.309
361.33        122.5264
361.78         121.749
362.23        120.9176
362.68        120.0161
363.13        119.0697
363.58         118.088
364.03        117.0805
364.48        116.0575
364.93         115.021
365.38        113.9925
365.83        113.0112
366.28        112.0861
366.73        111.2012
367.18        110.3495
367.63        109.5171
368.08        108.6945
368.53        107.8923
368.98         107.065
369.43        106.1294
369.88        105.0721
370.33        103.9114
370.78        102.7427
371.23         101.754
371.68        101.0033
372.13        100.4387
372.58        99.96725
373.03        99.42245
373.48        98.74461
373.93        97.98177
374.38        97.15539
374.83        96.31467
375.28        95.50105
375.72        94.68671
376.17        93.94358
376.62        93.29495
377.07        92.72346
377.52        92.19959
377.97        91.68556
378.42        91.13018
378.87        90.53125
379.32         89.9236
379.77        89.29523
380.22        88.61144
380.67        87.86497
381.11        87.06129
381.56        86.27322
382.01        85.65511
382.46        85.24992
382.91        85.02329
383.36        84.84557
383.81        84.50994
384.26          83.969
384.71        83.27786
385.15        82.55291
385.60        82.04552
386.05        81.77483
386.50        81.66315
386.95        81.56684
387.40        81.27101
387.85        80.74499
388.29        80.03396
388.74        79.36732
389.19         78.8469
389.64         78.4883
390.09        78.22086
390.54        77.98611
390.98        77.68163
391.43        77.32996
391.88        76.97188
392.33        76.61613
392.78         76.2527
393.23        75.88995
393.67        75.51009
394.12        75.25098
394.57        75.01228
395.02        74.98324
395.47        75.00304
395.91        75.03757
396.36        74.89401
396.81        74.55777
397.26        74.11289
397.71        73.64331
398.15        73.23719
398.60        73.00369
399.05        72.81319
399.50        72.66125
399.95        72.61491
400.39        72.62032
400.84        72.48071
401.29        72.18127
401.74        71.76604
402.18        71.31114
402.63        70.96032
403.08        70.72435
403.53        70.45122
403.97        70.15269
404.42        69.98271
404.87        69.90926
405.32        69.85983
405.76        69.81437
406.21        69.70087
406.66        69.55091
407.11        69.64753
407.55        69.90374
408.00        69.75934
408.45        69.25925
408.90        68.87228
409.34        68.68298
409.79        68.60915
410.24        68.57696
410.68        68.44253
411.13        68.19246
411.58        67.93264
412.03        67.72733
412.47        67.65185
412.92        67.70033
413.37        67.85111
413.81        68.02235
414.26        68.14724
414.71        68.17998
415.15        68.15842
415.60         68.0509
416.05        67.87107
416.49        67.64225
416.94        67.36127
417.39        67.08748
417.83         66.9024
418.28        66.82169
418.73        66.81913
419.17        66.84476
419.62        66.82074
420.07        66.72894
420.51        66.59377
420.96        66.45559
421.41        66.35205
421.85        66.27646
422.30        66.18495
422.74        66.08704
423.19        66.26904
423.64        66.64108
424.08        66.81411
424.53        66.71649
424.98        66.74731
425.42        66.93107
425.87        66.91114
426.31        66.74429
426.76        66.84216
427.21        67.13374
427.65        67.11114
428.10        66.77666
428.54        66.63461
428.99        66.73262
429.44        66.73055
429.88        66.64159
430.33        66.74286
430.77        66.91084
431.22        67.09173
431.66        67.18165
432.11         67.0138
432.56        66.71664
433.00        66.41084
433.45        66.02005
433.89        66.21327
434.34          67.057
434.78        65.81314
435.23        66.16739
435.67        66.80348
436.12        66.68023
436.57          66.839
437.01        66.75377
437.46        66.58576
437.90         67.0332
438.35        66.98308
438.79        67.19183
439.24        67.17195
439.68        67.09856
440.13         66.9692
440.57         66.8323
441.02        66.82497
441.46        66.93913
441.91        67.06473
442.35         67.0747
442.80        67.36699
443.24        67.84905
443.69          67.773
444.13        67.07506
444.58        67.68627
445.02        67.02671
445.47        67.11941
445.91        67.59241
446.36        67.70659
446.80         67.5544
447.24        67.37589
447.69        67.26424
448.13        67.25127
448.58        67.17267
449.02        67.16522
449.47        67.15617
449.91        67.13622
450.36         67.1104
450.80        66.98124
451.25        66.80581
451.69        66.77935
452.13        66.85809
452.58         66.6976
453.02        66.34162
453.47        66.16245
453.91        66.17336
454.36        66.20132
454.80        66.17552
455.24        66.09318
455.69        65.96467
456.13        65.68571
456.58        65.39577
457.02        65.41521
457.46        65.67204
457.91        65.67243
458.35        65.50704
458.79        65.39265
459.24        65.38795
459.68        65.24435
460.13         64.9922
460.57        64.82014
461.01        64.80219
461.46        64.46147
461.90         64.2617
462.34        64.47235
462.79        64.12696
463.23          63.845
463.68        64.30617
464.12        64.07442
464.56        63.58884
465.01        63.89577
465.45        64.66562
465.89        64.60136
466.34        63.85165
466.78        63.40308
467.22        63.34227
467.67         63.6371
468.11        63.42302
468.55        63.34859
468.99        63.16709
469.44        63.03709
469.88        62.94838
470.32        62.74394
470.77         62.4712
471.21        62.29039
471.65        62.22723
472.10        62.23693
472.54         62.2511
472.98        62.22231
473.42        62.14638
473.87        61.96216
474.31        61.72091
474.75        61.83054
475.20        62.16858
475.64        62.09515
476.08        61.70759
476.52        61.57149
476.97        61.65422
477.41        61.92723
477.85        62.31875
478.29        61.73963
478.74        61.30466
479.18        61.62341
479.62        61.55653
480.06        61.64348
480.50        61.41082
480.95        61.69511
481.39        61.93709
481.83        61.61518
482.27        62.05552
482.72        61.99854
483.16         61.7958
483.60        62.11058
484.04        62.14992
484.48        61.80252
484.93         61.5041
485.37        61.77292
485.81         62.0117
486.25        61.73944
486.69        63.22979
487.14        63.57097
487.58        62.38448
488.02        61.82787
488.46        61.40568
488.90        61.32874
489.34        61.09534
489.79        60.51089
490.23        61.12304
490.67        61.24282
491.11        61.31734
491.55        61.22741
491.99        61.05854
492.43        61.01854
492.88        61.11724
493.32        61.26587
493.76        61.34182
494.20        61.33031
494.64        61.23673
495.08        60.69685
495.52        60.39064
495.96        60.34926
496.41        60.64368
496.85        60.73017
497.29        60.53154
497.73        60.50241
498.17         60.3696
498.61        60.47949
499.05         60.6693
499.49        60.66349
499.93        60.50127
500.37        60.41186
500.82        60.42338
501.26        60.58748
501.70        60.80037
502.14         60.4864
502.58        60.24253
503.02        59.75225
503.46        59.95907
503.90        59.94436
504.34        59.90845
504.78        59.93456
505.22        60.03085
505.66        60.09694
506.10        60.12042
506.54        60.18933
506.98        60.31127
507.42        59.73977
507.86        60.57133
508.30         59.4724
508.74         60.1628
509.18         60.0593
509.62        60.06493
510.06        60.05217
510.50        59.99083
510.94        59.81842
511.38        59.56175
511.82        59.41925
512.26        59.41464
512.70        59.45584
513.14        59.49206
513.58        59.51897
514.02        59.53039
514.46        59.30351
514.90        59.27768
515.34        59.18627
515.78        59.17295
516.22        59.16404
516.66        59.00434
517.10         59.2908
517.54        59.09045
517.98        59.13802
518.42        59.14232
518.86        59.09634
519.30        58.99902
519.74        58.82651
520.18        58.66098
520.62        58.69995
521.06        58.91501
521.50        59.05997
521.93        59.08523
522.37        59.09719
522.81        59.08563
523.25        58.96821
523.69         58.7889
524.13        58.67208
524.57        58.64222
525.01        58.65969
525.45        58.72074
525.89        58.81916
526.32        58.93848
526.76        59.08545
527.20        59.21771
527.64        59.26786
528.08        59.22449
528.52        59.10772
528.96        58.96737
529.40        58.87834
529.83        58.85678
530.27        58.90704
530.71        58.98017
531.15        58.99364
531.59        58.93152
532.03         58.8308
532.46        58.71495
532.90        58.63218
533.34        58.59328
533.78         58.5816
534.22        58.59227
534.66         58.6198
535.09        58.64844
535.53        58.69843
535.97        58.74117
536.41        58.74721
536.85        58.71159
537.28        58.64066
537.72         58.5598
538.16        58.51419
538.60        58.51324
539.04        58.54522
539.47         58.5723
539.91        58.58413
540.35        58.56017
540.79        58.51676
541.22        58.46746
541.66        58.44707
542.10        58.45803
542.54        58.48267
542.97        58.51225
543.41        58.56506
543.85        58.63296
544.29        58.72425
544.72        58.79315
545.16        58.82136
545.60        58.79387
546.04        58.64794
546.47        58.47031
546.91        58.54269
547.35        58.80095
547.79          58.917
548.22        58.83332
548.66         58.6655
549.10         58.4896
549.53        58.45776
549.97        58.57065
550.41        58.60578
550.84        58.55037
551.28        58.57231
551.72        58.66206
552.15        58.68489
552.59        58.62597
553.03        58.63904
553.46        58.60312
553.90          58.507
554.34        58.27864
554.77        58.53935
555.21        58.24754
555.65        58.31204
556.08        58.41179
556.52        58.56014
556.96        58.69201
557.39        58.78191
557.83        58.81052
558.27        58.66469
558.70        58.42945
559.14        58.32201
559.57        58.36407
560.01        58.55706
560.45        58.75276
560.88        58.65851
561.32        58.39439
561.75        58.04031
562.19        58.11201
562.63        58.29671
563.06        58.60382
563.50         58.6825
563.93        58.51673
564.37        58.42502
564.80        58.41957
565.24        58.44842
565.68        58.49459
566.11         58.4994
566.55        58.47983
566.98        58.53136
567.42        58.65292
567.85        58.63087
568.29         58.5423
568.72        58.62425
569.16        58.90379
569.60        58.98863
570.03        59.14621
570.47        59.26099
570.90        59.35674
571.34        59.47985
571.77        59.60637
572.21        59.44193
572.64        59.29666
573.08        59.12891
573.51        59.41401
573.95        59.91592
574.38        59.70316
574.82        60.32915
575.25        60.07563
575.69        59.87532
576.12        59.53965
576.56        59.54929
576.99        59.53838
577.42        60.01333
577.86         60.2906
578.29        60.43684
578.73        60.91917
579.16        60.58204
579.60        59.90288
580.03        59.95949
580.47        60.09253
580.90        59.91285
581.33        60.08861
581.77        60.19231
582.20        61.08742
582.64        61.24348
583.07        60.80856
583.51        60.38918
583.94        59.91417
584.37        59.64045
584.81        59.41224
585.24        59.44611
585.68        59.90413
586.11        60.16704
586.54        60.36806
586.98        59.91198
587.41        59.61875
587.85        60.03349
588.28        59.85913
588.71         60.0742
589.15         59.5674
589.58        59.55511
590.01         59.3307
590.45        59.21075
590.88        59.50896
591.31        59.11158
591.75        58.90513
592.18        58.89066
592.61        59.29948
593.05        59.54802
593.48        59.89785
593.91        59.95761
594.35        59.93326
594.78        59.60576
595.21        59.40982
595.65        59.37568
596.08        59.56615
596.51        59.53061
596.94        59.22639
597.38        59.11669
597.81        59.26126
598.24        59.10682
598.68        59.28174
599.11        59.01788
599.54        59.73753
599.97        59.38755
600.41        59.57909
600.84         59.6221
601.27        59.73079
601.70         59.4262
602.14        59.31549
602.57        58.93986
603.00        59.29695
603.43        59.31338
603.87         59.5234
604.30        59.50691
604.73        59.79566
605.16        59.25331
605.60         59.4297
606.03        59.36609
606.46        59.42131
606.89        59.51641
607.32        59.07316
607.76        59.34707
608.19        59.37422
608.62        59.24392
609.05        59.84262
609.48        59.27385
609.92        59.32362
610.35        58.93456
610.78        59.66175
611.21        59.33549
611.64        59.38394
612.07        59.21646
612.50        59.19493
612.94        59.12623
613.37         59.0201
613.80        59.12347
614.23        59.15162
614.66        58.99393
615.09        59.04718
615.52        59.00998
615.96        59.01026
616.39        58.99475
616.82        58.97325
617.25        58.78788
617.68        58.90966
618.11        58.66274
618.54        58.44682
618.97        58.46091
619.40        58.67891
619.84        58.81807
620.27        58.46349
620.70        58.39941
621.13        58.52008
621.56        58.45355
621.99        58.47355
622.42        58.52439
622.85        58.61738
623.28        58.72628
623.71         58.8834
624.14        58.59861
624.57        58.54236
625.00        58.85276
625.43        58.43661
625.86        58.54875
626.29        58.79904
626.72         58.5863
627.15        58.58132
627.58        58.47988
628.01        58.58953
628.44        58.13722
628.87        57.91713
629.30         58.1789
629.73        58.15497
630.16        58.33173
630.59        58.23214
631.02        58.38637
631.45        58.07513
631.88        58.05259
632.31        58.14966
632.74        57.96603
633.17        58.07423
633.60        57.99877
634.03        57.92019
634.46        57.86802
634.89        57.78692
635.32        57.80799
635.75        57.90165
636.18        58.05512
636.61        58.20877
637.04         58.2697
637.47        58.21843
637.89        58.08957
638.32        57.92473
638.75        57.81813
639.18        57.79677
639.61        57.83446
640.04        57.90219
640.47        57.95233
640.90        57.96756
641.33         57.9637
641.76        57.94818
642.18        57.93713
642.61        57.92238
643.04        57.90326
643.47        57.87957
643.90        57.85868
644.33        57.84308
644.76        57.82231
645.18        57.80105
645.61        57.80731
646.04        57.82957
646.47        57.80557
646.90        57.75185
647.33        57.75132
647.75        57.80026
648.18        57.87667
648.61        57.98131
649.04        58.04159
649.47        58.03238
649.89        58.31953
650.32        58.24625
650.75         58.2697
651.18        58.17562
651.61        58.01065
652.03        57.84946
652.46        57.66237
652.89        57.53724
653.32        57.96598
653.74          58.204
654.17        58.32915
654.60         57.8798
655.03        57.33508
655.46         57.8103
655.88        58.57072
656.31        59.84213
656.74        65.13647
657.16        64.30998
657.59        62.60855
658.02        59.73163
658.45        59.03861
658.87        58.15345
659.30        58.25589
659.73        58.07217
660.15        57.94118
660.58        58.04794
661.01        58.22227
661.44        58.44882
661.86        58.38961
662.29        58.07331
662.72        57.79749
663.14        57.66295
663.57        57.70419
664.00        57.86985
664.42        57.94668
664.85        57.91708
665.27        57.80465
665.70        57.82888
666.13        57.83968
666.55        57.90381
666.98        57.99903
667.41        58.09195
667.83        58.14109
668.26        58.14347
668.69        58.06238
669.11        57.92044
669.54        57.94957
669.96        58.20641
670.39        57.88184
670.82        58.33837
671.24        58.31079
671.67        58.22154
672.09        58.26619
672.52        58.43564
672.94        58.39713
673.37        58.18196
673.80        58.11054
674.22        58.19103
674.65        58.17678
675.07        58.08262
675.50        58.02829
675.92        58.03322
676.35        58.05424
676.77        58.08815
677.20        58.15906
677.62        58.26899
678.05        58.33474
678.47        58.33157
678.90        58.56328
679.32        58.50322
679.75        58.55422
680.17        58.55022
680.60        58.57296
681.02        58.63787
681.45        58.42345
681.87        58.49357
682.30        58.40853
682.72        58.36232
683.15        58.32325
683.57        58.28896
684.00         58.4306
684.42        58.35331
684.85        58.39702
685.27        58.43356
685.70        58.46864
686.12        58.47816
686.54        58.46677
686.97        58.42942
687.39        58.38931
687.82        58.36794
688.24        58.37324
688.66        58.39113
689.09        58.65001
689.51         58.6736
689.94        58.79238
690.36        58.84535
690.78        58.80322
691.21        58.70761
691.63        58.62189
692.06        58.61007
692.48        58.75592
692.90        58.98684
693.33        59.07394
693.75        58.99951
694.17        58.83191
694.60        58.63002
695.02        58.66418
695.44        58.69318
695.87        58.74813
696.29        58.75954
696.71        58.82505
697.14        58.97183
697.56        59.22626
697.98        59.46313
698.41        59.76678
698.83        59.51354
699.25        59.30927
699.68        59.04738
700.10        58.82595
700.52        58.68296
700.94        58.61445
701.37        58.59655
701.79        58.60695
702.21        58.61487
702.64        58.63569
703.06        58.67122
703.48        58.72794
703.90        58.80503
704.33        58.88854
704.75        58.95542
705.17         58.9551
705.59        58.88415
706.01        58.75988
706.44        58.64185
706.86        58.64196
707.28        58.76907
707.70        58.99357
708.12        59.25261
708.55        59.42329
708.97        59.47843
709.39        59.49597
709.81        59.48769
710.23         59.4397
710.66         59.3693
711.08        59.30826
711.50        59.24984
711.92        59.18752
712.34        59.12714
712.76        59.07679
713.19        59.05128
713.61          59.113
714.03        59.24094
714.45        59.42584
714.87        59.62234
715.29        59.72212
715.71        59.69999
716.13        59.73748
716.56        59.57413
716.98        59.53439
717.40        59.54335
717.82        59.58887
718.24        59.65528
718.66        59.72044
719.08        59.77685
719.50        59.83076
719.92        59.88149
720.34        59.92368
720.76        59.95612
721.19        59.96848
721.61        59.97848
722.03        59.99022
722.45        60.00682
722.87        60.02855
723.29        60.05367
723.71        60.07784
724.13        60.10128
724.55        60.12572
724.97        60.15721
725.39        60.20558
725.81         60.2701
726.23        60.34259
726.65        60.41224
727.07        60.46828
727.49        60.50873
727.91          60.526
728.33        60.52309
728.75        60.54197
729.17          60.573
729.59        60.53422
730.01        60.46426
730.43        60.49873
730.85        60.64543
731.27        60.82129
731.69        60.98733
732.10        61.05936
732.52        61.20169
732.94        61.03692
733.36        60.68832
733.78        60.50952
734.20        60.56528
734.62         60.5532
735.04        60.41174
735.46        60.78168
735.88        60.67059
736.30        60.67715
736.72        60.82976
737.13         60.8555
737.55        60.82113
737.97         60.6404
738.39        60.42089
738.81        60.55812
739.23        60.96425
739.65        61.00261
740.06        60.66514
740.48        60.56655
740.90        60.68796
741.32        60.70067
741.74        60.61467
742.16        60.62466
742.57        60.75132
742.99        60.92097
743.41        61.08213
743.83        61.13636
744.25        61.06441
744.67        60.89553
745.08        60.73109
745.50        60.69549
745.92        60.83459
746.34        61.11036
746.75        61.40833
747.17        61.53917
747.59        61.46085
748.01        61.19881
748.42        60.89138
748.84        60.78485
749.26        60.89617
749.68         61.1136
750.09        61.32123
750.51        61.24671
750.93        60.96505
751.35        60.96108
751.76        61.21619
752.18        61.28092
752.60        61.14342
753.01        61.09415
753.43        61.10432
753.85        61.04066
754.27        60.90501
754.68        60.74253
755.10        60.61656
755.52        60.59763
755.93        60.70394
756.35        60.91783
756.77         61.1773
757.18        61.37881
757.60        61.48423
758.02        61.49727
758.43        61.49256
758.85        61.46791
759.26        61.76681
759.68        61.89932
760.10        61.68161
760.51        61.30896
760.93         61.6471
761.34         60.8872
761.76        61.67937
762.18        61.70974
762.59          61.619
763.01        61.63647
763.42        61.04342
763.84        61.16656
764.26        61.35645
764.67        61.80018
765.09        62.20974
765.50        62.25807
765.92        62.00276
766.33        61.82127
766.75        61.76054
767.16        61.64201
767.58        61.45998
768.00        61.59878
768.41         62.0078
768.83        62.01511
769.24        61.63101
769.66        61.95064
770.07        61.96409
770.49        61.99716
770.90        61.77568
771.32         61.5902
771.73         61.5038
772.15        61.46668
772.56        61.51223
772.97        61.66585
773.39        61.84756
773.80        61.97028
774.22        61.97279
774.63        61.90234
775.05         61.7862
775.46        61.71879
775.88        61.70521
776.29        61.74085
776.70        61.77644
777.12        61.74964
777.53        61.66441
777.95         61.5372
778.36        61.41792
778.77        61.37776
779.19          61.442
779.60        61.59663
780.02        61.78968
780.43        62.01171
780.84        62.25162
781.26        62.32826
781.67          62.318
782.09        62.69196
782.50         63.2506
782.91        63.11642
783.33        62.39576
783.74        62.13623
784.15        62.39829
784.57         62.6236
784.98        62.73752
785.39         62.8322
785.81        62.87769
786.22        62.85523
786.63         62.8014
787.04        62.77413
787.46        62.79992
787.87        62.84185
788.28        62.89635
788.70        62.93505
789.11        62.93155
789.52        62.94091
789.93        62.96786
790.35        62.93201
790.76        62.88015
791.17        62.98046
791.58        63.19269
792.00        63.26637
792.41        63.20397
792.82        63.17437
793.23        63.24669
793.65         63.2639
794.06        63.30631
794.47        63.79708
794.88        64.57565
795.29        64.55372
795.71        64.66309
796.12         64.3576
796.53        64.01447
796.94        63.74666
797.35        63.60047
797.76        63.43911
798.18        63.25311
798.59         63.1466
799.00        63.11293
799.41        63.10552
799.82        63.11104
800.23        63.13135
800.64        63.15689
801.06        63.15572
801.47        63.16786
801.88        63.19521
802.29        63.23949
802.70        63.29333
803.11        63.34813
803.52        63.38872
803.93        63.41291
804.34        63.43057
804.75         63.4523
805.17        63.48069
805.58        63.54512
805.99        63.63475
806.40        63.75092
806.81        63.87658
807.22        64.00552
807.63         64.1667
808.04        64.34781
808.45        64.48176
808.86        64.54893
809.27        64.57642
809.68        64.56303
810.09        64.49602
810.50        64.38535
810.91        64.24847
811.32        64.10339
811.73        63.97667
812.14        63.88027
812.55        63.80717
812.96        63.77929
813.37        63.82647
813.78        63.94424
814.19        64.12187
814.60        64.28616
815.01        64.32649
815.42        64.22279
815.83         63.9969
816.24        63.74565
816.65        63.65409
817.05        63.78303
817.46        64.05774
817.87         64.3848
818.28        64.57939
818.69        64.60107
819.10        64.50198
819.51        64.38359
819.92         64.4248
820.33        64.66402
820.74        65.01894
821.14        65.37806
821.55         65.5993
821.96         65.6299
822.37        65.52289
822.78        65.31371
823.19        65.06592
823.60         64.8211
824.00        64.57895
824.41        64.35772
824.82        64.24963
825.23        64.27068
825.64        64.41726
826.04        64.62994
826.45        64.76419
826.86        64.79821
827.27        64.76045
827.68        64.71491
828.08        64.80202
828.49        64.98252
828.90        65.25346
829.31         65.5606
829.72        65.72489
830.12        65.71247
830.53        65.93629
830.94         65.6863
831.35        65.54417
831.75         65.3321
832.16        65.05139
832.57        64.79272
832.97        64.70278
833.38        64.80486
833.79        65.04613
834.20        65.34625
834.60        65.57964
835.01        65.70355
835.42        65.75272
835.82        65.73561
836.23        65.62675
836.64        65.45855
837.04        65.24918
837.45        65.04354
837.86        64.97561
838.26        65.07941
838.67        65.30505
839.08        65.58909
839.48        65.80671
839.89        65.91055
840.29        65.93572
840.70        65.91133
841.11        65.88654
841.51        65.89764
841.92        65.89291
842.33        65.89297
842.73        65.93394
843.14        65.97635
843.54        66.04736
843.95        66.11604
844.35        66.14974
844.76        66.13278
845.17        66.08015
845.57        66.02866
845.98        66.00378
846.38        66.04681
846.79        66.13118
847.19        66.26044
847.60        66.36468
848.00        66.45628
848.41        66.50035
848.81        66.57385
849.22         66.7371
849.62        67.02457
850.03         67.3713
850.43        67.67368
850.84        67.66898
851.24        67.36701
851.65        66.77762
852.05        66.15789
852.46        65.87749
852.86        66.03915
853.27        66.55349
853.67        67.10702
854.07        67.39968
854.48        67.33366
854.88        67.02607
855.29        66.60162
855.69        66.45023
856.10        66.59398
856.50        67.01035
856.90        67.46088
857.31        67.60231
857.71        67.39778
858.12        66.89472
858.52        66.31552
858.92        65.96549
859.33        65.92481
859.73        66.15476
860.13        66.46079
860.54        66.52135
860.94        66.31695
861.34        65.90855
861.75        65.46307
862.15        65.32913
862.55        65.54553
862.96        65.97861
863.36        66.45284
863.76        66.64023
864.17        66.44942
864.57        66.01182
864.97        65.44397
865.38        64.92807
865.78        64.58616
866.18         64.3606
866.58        64.29182
866.99        64.41816
867.39        64.75574
867.79        65.27757
868.19        65.83981
868.60        66.14199
869.00        66.20652
869.40        66.26125
869.80        66.31509
870.21        66.20013
870.61        65.99191
871.01        65.80683
871.41        65.62624
871.81        65.33743
872.22        64.95479
872.62        64.50773
873.02        64.14158
873.42        64.27863
873.82        64.77438
874.22        65.04259
874.63        65.11019
875.03        65.10466
875.43        65.00885
875.83        65.65532
876.23        64.60629
876.63        63.73656
877.03        62.88696
877.44        61.40037
877.84        167.4821
878.24         63.5257
878.64        64.24637
879.04          65.401
879.44        65.48868
879.84        61.93309
880.24        66.82356
880.64        67.05314
881.04        64.79894
881.44         63.1424
881.84        62.60713
882.24        63.32145
882.65        64.59399
883.05        64.92599
883.45        64.03366
883.85        62.79946
884.25        61.76243
884.65        61.38807
885.05        61.82727
885.45        62.82507
885.85        63.96339
886.25        64.67066
886.65        64.79844
887.05        64.53664
887.45        64.04202
887.85        63.57362
888.25        63.26053
888.65        63.02831
889.04        62.93727
889.44        63.10265
889.84        63.50356
890.24        64.08691
890.64        64.71525
891.04        65.17721
891.44        65.41717
891.84        65.49072
892.24         65.3961
892.64        65.15188
893.04        64.80492
893.44        64.36558
893.83        63.99046
894.23         63.8838
894.63         64.0882
895.03        64.55773
895.43        65.11575
895.83        65.44782
896.23         65.4755
896.63        65.28774
897.02        65.02977
897.42        64.98471
897.82         65.1817
898.22        65.52248
898.62        65.88365
899.01        66.08366
899.41        66.04404
899.81        65.84239
900.21        65.54314
900.61        65.24316
901.00        64.97722
901.40        64.79304
901.80        64.69408
902.20        64.55233
902.59        64.33849
902.99        64.34682
903.39        64.73467
903.79        64.08755
904.18        65.02134
904.58        65.38618
904.98         65.7477
905.38         65.7309
905.77        65.28693
906.17         64.5274
906.57         63.7016
906.96        63.32358
907.36        63.50753
907.76        64.13562
908.15        64.92295
908.55        65.23724
908.95        64.97186
909.34        64.26506
909.74        63.50406
910.14        63.26027
910.53        63.66466
910.93        64.51772
911.33        65.42129
911.72        65.75538
912.12        65.38972
912.52        64.52784
912.91        63.54338
913.31        63.10024
913.70        63.32693
914.10        64.02007
914.49        64.84972
914.89        65.17882
915.29        64.87411
915.68        64.14615
916.08        63.33863
916.47        62.93175
916.87        63.08537
917.26        63.61691
917.66        64.32635
918.05        64.92227
918.45           65.27
918.84        65.46484
919.24         65.5402
919.64        65.60506
920.03        65.69682
920.42        65.74718
920.82        65.71116
921.21        65.55183
921.61        65.30235
922.00        65.07143
922.40        64.98491
922.79        65.08653
923.19        65.02617
923.58        65.62796
923.98        67.19923
924.37        67.29294
924.77        64.55031
925.16        72.31301
925.55        66.38067
925.95         66.8282
926.34         66.7904
926.74        66.11809
927.13        64.78892
927.52        63.93767
927.92        64.05856
928.31         64.5191
928.70        65.20093
929.10        65.85356
929.49        66.40805
929.89        66.95223
930.28        67.33955
930.67        67.21423
931.07        66.55671
931.46        65.36214
931.85        64.08859
932.24        63.96356
932.64        65.18134
933.03        66.79488
933.42        67.86089
933.82        70.24329
934.21         68.6268
934.60        67.21478
934.99        65.75311
935.39        65.40729
935.78        66.24431
936.17        68.50797
936.56        74.92324
936.96        68.42609
937.35        72.08356
937.74         68.9119
938.13        66.48376
938.53        64.34206
938.92        63.23827
939.31        63.73338
939.70        64.82207
940.09        65.51891
940.49        65.55146
940.88        65.32429
941.27        65.02297
941.66        64.93965
942.05        65.19217
942.44        65.57793
942.84        65.96855
943.23        66.33439
943.62        66.61549
944.01        66.80889
944.40        66.97433
944.79        67.19046
945.18        67.45458
945.57        67.75205
945.97        67.87048
946.36        67.58529
946.75        66.84593
947.14        65.76309
947.53        64.70469
947.92        64.29797
948.31        64.69637
948.70        65.69247
949.09        66.89359
949.48        67.69121
949.87        67.91156
950.26        67.71451
950.65        67.28918
951.04        66.95824
951.43        66.83208
951.82        66.79842
952.21        66.78323
952.60        66.68401
952.99        66.47812
953.38        66.24688
953.77        66.04243
954.16        65.90391
954.55        65.84303
954.94        65.84171
955.33        65.88022
955.72         65.9314
956.11        65.98111
956.50        66.03029
956.89         66.0889
957.28        66.17317
957.66        66.31898
958.05        66.45078
958.44        66.55566
958.83        66.60159
959.22        66.57212
959.61        66.45282
960.00        66.28024
960.39        66.12425
960.78        66.01777
961.16        66.01067
961.55        65.95464
961.94        65.71423
962.33        65.27267
962.72        64.66424
963.11         64.1057
963.49        64.04008
963.88        64.56583
964.27        65.49987
964.66        66.47955
965.04         67.0377
965.43        67.01573
965.82        66.56776
966.21        65.89392
966.60        65.36683
966.98        65.12829
967.37        65.08596
967.76        65.11596
968.15         65.0052
968.53        64.73118
968.92        64.38062
969.31        64.10724
969.69        64.12148
970.08        64.44411
970.47        64.98155
970.86        65.62738
971.24         66.2144
971.63        66.63165
972.02        66.90459
972.40          67.023
972.79        66.89429
973.17        66.58341
973.56        66.12421
973.95        65.63729
974.33        65.34642
974.72         65.3157
975.11        65.47373
975.49         65.8595
975.88        66.43006
976.26        67.20577
976.65          68.125
977.04        68.94609
977.42        69.28745
977.81        69.03796
978.19        68.19232
978.58        67.34719
978.96        67.53143
979.35        68.87814
979.74        70.94336
980.12        72.83881
980.51        73.29001
980.89        72.24284
981.28        69.90538
981.66        66.96472
982.05        65.17962
982.43        65.28016
982.82        66.87395
983.20        69.00665
983.59        70.16022
983.97        69.99508
984.35        68.90441
984.74         67.4908
985.12        66.88889
985.51        67.36991
985.89           68.56
986.28        69.83759
986.66        70.43279
987.04         70.2282
987.43        69.41354
987.81        68.17676
988.20         68.3437
988.58        70.31461
988.96        71.06646
989.35        69.70179
989.73        75.89978
990.12        72.80226
990.50        73.26125
990.88        72.94596
991.27        72.64161
991.65        72.35352
992.03        72.17989
992.42        72.07355
992.80        71.44372
993.18        70.24603
993.56        68.75799
993.95        67.40594
994.33        66.79342
994.71        67.08785
995.10        68.06236
995.48        69.43232
995.86        70.71061
996.24        71.66072
996.63        72.28133
997.01        72.64462
997.39        72.68814
997.77        72.43401
998.15        71.89811
998.54        71.21098
998.92        70.48676
999.30        69.84617
999.68        69.34704
1000.06        69.08795
1000.45        69.16035
1000.83        69.67134
1001.21        70.52827
1001.59        71.62589
1001.97         72.8049
1002.35        73.92476
1002.73        74.90931
1003.12        75.65649
1003.50        76.12973
1003.88        76.33156
1004.26         76.2891
1004.64        76.03168
1005.02        75.64165
1005.40        75.17815
1005.78        74.65052
1006.16        74.14011
1006.54        73.73318
1006.92        73.47232
1007.30        73.41788
1007.69        73.43572
1008.07        73.39367
1008.45        73.23956
1008.83        72.99387
1009.21        72.90766
1009.59        73.47191
1009.97        74.66541
1010.35        76.10073
1010.73        77.38676
1011.11        78.38646
1011.49         79.2385
1011.86        79.78489
1012.24        79.80543
1012.62        81.54642
1013.00        82.36435
1013.38        82.13447
1013.76        79.91268
1014.14        83.22874
1014.52        88.47469
1014.90        82.47511
1015.28        83.82659
1015.66        84.88539
1016.04         81.3475
1016.41        80.60915
1016.79        78.88361
1017.17        78.05566
1017.55        77.71626
1017.93        77.98654
1018.31        78.98704
1018.69         80.2923
1019.06         81.7201
1019.44         83.1921
1019.82        84.34666
1020.20         84.7262
1020.58        84.28153
1020.95         82.9217
1021.33        81.00723
1021.71        79.78806
1022.09         80.0134
1022.46        81.21285
1022.84        82.60693
1023.22        83.61013
1023.60        84.22457
1023.97        84.70407
1024.35         85.0863
1024.73        85.36813
