SpectraSmart Spectrum 2.9.0.0
--------- Device Information -----------
Spectrum Name :  反射率_0
Saving Time :  2024/04/21 00:56:56
Spectro-Module Model Name : SE2030-DUVN
Spectro-Module Serial Number : OS361AC55029948
Wavelength Start : 200
Wavelength End : 1025
Wavelength Unit : Wavelength(nm)
Spectrum Unit : Reflectance(%)
-----------Spectrum Setting ------------
Integration Time : 20ms
Average : 10
Boxcar : 0
Background removal :  enabled
linearity correction :  enabled
SC :  disabled
Intensity correction :  disabled
DWT denoise :  enabled
savitzky-golay :  disabled
FFT :  disabled
Running average :  disabled
Kalman :  disabled
High pass :  disabled
---------------BEGIN--------------------
Wavelength(nm)             Reflectance(%)
200.29               0
200.75       -47.60249
201.21        21.09001
201.67        55.69537
202.13        61.19345
202.58        47.57778
203.04        19.60549
203.50       -15.96326
203.96        -36.1882
204.42       -29.60312
204.88       -5.623578
205.34        22.84608
205.80        39.04533
206.26        38.29777
206.72        24.69248
207.18       -1.673966
207.64        -35.6502
208.10       -67.71809
208.55       -97.80541
209.01       -103.7092
209.47       -66.90693
209.93       -22.39035
210.39        12.10547
210.85        33.58033
211.31        42.37336
211.77         42.0588
212.23        33.60091
212.69        13.02255
213.14       -22.89089
213.60       -80.23083
214.06       -231.9059
214.52       -534.8381
214.98       -206.5349
215.44       -37.30165
215.90        16.58483
216.36        32.48182
216.81        29.58818
217.27        7.192969
217.73       -99.04558
218.19        1163.079
218.65        484.1114
219.11       -1021.366
219.57       -35.74052
220.02        26.27645
220.48        36.86952
220.94        30.16853
221.40        4.541498
221.86       -58.13023
222.32       -103.2043
222.77       -51.52366
223.23       -4.037577
223.69        20.84955
224.15        30.47959
224.61        32.45184
225.06        31.35471
225.52        27.91888
225.98        22.34656
226.44        15.28408
226.90         5.45791
227.36       -2.524949
227.81       0.3068701
228.27        10.66802
228.73        22.35317
229.19        30.08204
229.65        30.97022
230.10        25.97253
230.56         16.7568
231.02        5.063512
231.48       -2.202858
231.93      -0.3912202
232.39        7.541111
232.85        16.17695
233.31        21.12994
233.77        22.67753
234.22         22.7452
234.68        21.90435
235.14        21.05585
235.60        20.95526
236.05        20.51437
236.51        19.77997
236.97        24.87257
237.43        35.91996
237.88        42.84175
238.34        42.07502
238.80        63.49295
239.26        55.38518
239.71        55.62344
240.17        50.77691
240.63         45.1501
241.08        41.14665
241.54        40.98624
242.00        45.21141
242.46        45.97866
242.91        41.07153
243.37        30.66652
243.83        18.20342
244.28        15.74504
244.74        28.36647
245.20        48.34657
245.66        65.36387
246.11        69.70651
246.57        60.92311
247.03        41.81831
247.48        16.45351
247.94       -8.309513
248.40       -33.45923
248.85       -77.58465
249.31        -189.213
249.77       -250.6806
250.22       -73.34737
250.68       -5.382572
251.14        16.97569
251.59        26.69354
252.05         33.5701
252.51        40.68308
252.96        47.97039
253.42          52.981
253.88        53.01658
254.33         49.6911
254.79         48.3807
255.25        51.32505
255.70        55.99001
256.16        60.40331
256.62        63.40832
257.07        64.45974
257.53        64.53367
257.99         64.0079
258.44        62.91423
258.90        61.97888
259.35        60.73218
259.81        59.48236
260.27        58.15181
260.72        56.78244
261.18        55.73499
261.63        54.75173
262.09        53.80233
262.55        52.41003
263.00         50.5602
263.46         48.6147
263.91        46.82595
264.37        45.94341
264.83        45.86611
265.28        46.23291
265.74        46.65851
266.19        46.45103
266.65        45.58499
267.11        44.23294
267.56         42.6707
268.02        41.41059
268.47        40.52299
268.93        39.88343
269.38        39.25534
269.84        38.34313
270.30        37.08312
270.75        35.62328
271.21        34.18965
271.66         33.0436
272.12        32.27685
272.57        31.76101
273.03        31.39294
273.48        30.98385
273.94        30.50038
274.39        29.97905
274.85        29.45594
275.31        28.91581
275.76         28.3632
276.22        27.81429
276.67         27.3186
277.13        27.03159
277.58        26.91208
278.04        26.92632
278.49        26.89948
278.95        26.66156
279.40        26.15107
279.86        25.47795
280.31        24.73423
280.77        24.13557
281.22        23.70359
281.68        23.44004
282.13        23.23648
282.59        23.00867
283.04        22.71414
283.50        22.40352
283.95        22.17027
284.41        22.17668
284.86        22.41818
285.32        22.83464
285.77        23.23787
286.22        23.37738
286.68        23.23868
287.13        22.87709
287.59        22.52565
288.04        22.43026
288.50        22.61879
288.95         23.1205
289.41        23.80305
289.86        23.98442
290.32        23.54592
290.77         24.4884
291.22        23.68363
291.68        23.90982
292.13        24.26671
292.59        24.80401
293.04        25.48806
293.50        26.34133
293.95        27.37084
294.40        28.55135
294.86        29.85842
295.31        31.23494
295.77        32.65492
296.22        34.10308
296.68        35.58131
297.13        37.09389
297.58        38.65956
298.04        40.27686
298.49        41.95504
298.95        43.72994
299.40         45.5812
299.85        47.50495
300.31         49.4562
300.76        51.33635
301.21        53.14178
301.67        54.92527
302.12        56.72474
302.58        58.71276
303.03        60.87791
303.48        63.20105
303.94        65.60623
304.39        67.91957
304.84        70.09278
305.30        72.17464
305.75        74.14675
306.20        76.10062
306.66        78.06371
307.11        79.96439
307.57        81.80698
308.02         83.5146
308.47        85.10993
308.93         86.6541
309.38        88.14991
309.83        89.67096
310.29         91.2654
310.74        92.84044
311.19        94.35782
311.65        95.72843
312.10        96.90739
312.55        97.92473
313.00        98.80595
313.46        99.60054
313.91        100.3149
314.36        100.9534
314.82        101.5382
315.27        102.0882
315.72        102.6268
316.18        103.1685
316.63        103.7067
317.08        104.2253
317.53        104.7151
317.99         105.166
318.44        105.5967
318.89        106.0242
319.35        106.4417
319.80        106.8469
320.25        107.1885
320.70        107.3938
321.16        107.4463
321.61          107.39
322.06        107.2995
322.51        107.3029
322.97        107.4191
323.42        107.6537
323.87        107.9242
324.32        108.1081
324.78        108.1516
325.23         108.128
325.68        108.0835
326.13        108.1241
326.59        108.2515
327.04        108.4865
327.49        108.7432
327.94        108.9175
328.39        108.9851
328.85        108.9539
329.30        108.9561
329.75        109.0737
330.20        109.3368
330.66        109.6692
331.11        110.0837
331.56        110.4619
332.01        110.7677
332.46        111.0215
332.92        111.1831
333.37        111.3351
333.82        111.4501
334.27         111.535
334.72        111.6246
335.17        111.7788
335.63         111.987
336.08        112.2992
336.53        112.6826
336.98        113.1232
337.43        113.5986
337.88        114.0972
338.34        114.5469
338.79        114.8945
339.24        115.0997
339.69        115.1868
340.14        115.2101
340.59        115.2636
341.05        115.3839
341.50        115.5627
341.95        115.7954
342.40        116.0722
342.85        116.3836
343.30        116.7334
343.75        117.0933
344.20        117.4186
344.66        117.7008
345.11        117.9186
345.56        118.0914
346.01        118.2575
346.46        118.4273
346.91        118.5721
347.36         118.653
347.81        118.6706
348.26        118.6337
348.72        118.3514
349.17        118.2485
349.62        118.1047
350.07        118.0545
350.52        118.0569
350.97        118.0626
351.42        117.9859
351.87        117.7928
352.32        117.5062
352.77        117.1493
353.22        116.7524
353.67        116.3334
354.13        115.9131
354.58        115.4517
355.03        114.9459
355.48        114.4025
355.93        113.8196
356.38        113.2717
356.83        112.8655
357.28        112.5931
357.73        112.4073
358.18        112.1439
358.63         111.546
359.08        110.5785
359.53        109.3436
359.98        108.0413
360.43        106.9726
360.88        106.2136
361.33        105.6782
361.78        105.2458
362.23        104.7214
362.68        104.0428
363.13        103.2681
363.58         102.451
364.03        101.6695
364.48         100.946
364.93        100.2496
365.38        99.53922
365.83        98.76283
366.28        97.91409
366.73        97.01212
367.18        96.12858
367.63        95.37373
368.08        94.76094
368.53        94.25069
368.98        93.72831
369.43         93.0051
369.88        92.03751
370.33        90.88227
370.78        89.65427
371.23        88.57371
371.68        87.72645
372.13        87.05929
372.58         86.5172
373.03        85.99133
373.48        85.43226
373.93        84.87597
374.38        84.30305
374.83        83.68692
375.28        83.03837
375.72        82.34228
376.17        81.68015
376.62         81.1127
377.07        80.63563
377.52        80.21423
377.97        79.79248
378.42        79.29044
378.87        78.70269
379.32        78.07394
379.77        77.43818
380.22        76.82636
380.67        76.23841
381.11        75.65872
381.56         75.0932
382.01        74.57735
382.46        74.12877
382.91        73.75398
383.36        73.40626
383.81        73.00607
384.26        72.53643
384.71        72.01243
385.15        71.49194
385.60        71.12981
386.05        70.92034
386.50        70.81562
386.95        70.70826
387.40        70.43676
387.85        69.98473
388.29        69.38549
388.74        68.82866
389.19        68.39275
389.64        68.09379
390.09        67.87803
390.54        67.71426
390.98        67.54226
391.43        67.37764
391.88        67.23032
392.33        67.07291
392.78        66.86732
393.23        66.61271
393.67        66.26799
394.12        65.96079
394.57        65.75041
395.02        65.62531
395.47        65.49537
395.91        65.32034
396.36        65.06616
396.81        64.74534
397.26        64.39196
397.71        64.03386
398.15        63.70915
398.60        63.49846
399.05        63.23639
399.50        62.99525
399.95        63.04157
400.39        63.26413
400.84        63.26703
401.29        62.99827
401.74        62.41799
402.18        61.74194
402.63        61.64631
403.08        62.01989
403.53        61.96453
403.97        61.43118
404.42        60.99673
404.87        60.74986
405.32        60.60784
405.76        60.58274
406.21        60.64465
406.66        60.72546
407.11         60.8308
407.55        60.88389
408.00        60.65305
408.45        60.22094
408.90        59.82831
409.34        59.60323
409.79        59.70498
410.24        60.00813
410.68           60.11
411.13        59.96579
411.58        59.79907
412.03        59.66493
412.47        59.57353
412.92        59.52922
413.37        59.53468
413.81        59.55473
414.26        59.58598
414.71        59.60311
415.15        59.62683
415.60         59.6226
416.05        59.58185
416.49        59.50827
416.94        59.39759
417.39        59.28156
417.83        59.20131
418.28        59.16977
418.73        59.17668
419.17         59.1951
419.62        59.19007
420.07        59.14833
420.51        59.07321
420.96        59.01234
421.41        58.98374
421.85        58.96857
422.30        59.02436
422.74         59.0905
423.19        59.10971
423.64        59.08815
424.08        59.20164
424.53         59.3826
424.98        59.49359
425.42        59.53148
425.87        59.52012
426.31          59.516
426.76        59.64022
427.21        59.87083
427.65        60.05124
428.10        60.09124
428.54        60.04261
428.99        59.93654
429.44         59.7373
429.88        59.49681
430.33        59.37621
430.77        59.36076
431.22        59.52791
431.66        59.79624
432.11        60.01527
432.56        60.14627
433.00        60.09579
433.45        59.76834
433.89        59.63593
434.34        59.81255
434.78        59.27857
435.23        59.19453
435.67        59.88332
436.12         60.4319
436.57        60.67347
437.01        60.37065
437.46        60.13755
437.90        60.62124
438.35         60.7826
438.79        60.69311
439.24        60.64729
439.68        60.63845
440.13        60.59049
440.57        60.51092
441.02        60.58735
441.46        60.77373
441.91        60.73062
442.35        60.50127
442.80        60.82054
443.24        61.48286
443.69        61.51035
444.13        60.95382
444.58        60.65015
445.02        60.68743
445.47        60.93961
445.91        61.26388
446.36        61.38968
446.80        61.26905
447.24        61.03424
447.69        60.80563
448.13        60.86344
448.58         61.0155
449.02        61.07549
449.47        60.97403
449.91        60.93332
450.36         60.9626
450.80        60.84019
451.25         60.6394
451.69        60.62108
452.13         60.7558
452.58        60.72476
453.02        60.51337
453.47        60.37205
453.91        60.29864
454.36        60.15416
454.80        59.97314
455.24        59.91557
455.69        60.01289
456.13        60.12267
456.58        60.19426
457.02        60.36654
457.46        60.25407
457.91        60.00445
458.35        59.71722
458.79        59.54168
459.24        59.54917
459.68        59.64536
460.13        59.78219
460.57        59.74921
461.01          59.531
461.46        59.48622
461.90        59.04193
462.34        59.04415
462.79        58.87017
463.23        58.94953
463.68        59.67645
464.12        59.53051
464.56        58.84967
465.01        58.79084
465.45        59.20669
465.89        59.14416
466.34        58.67524
466.78        58.43589
467.22         58.4925
467.67        58.51214
468.11        58.55659
468.55        58.50489
468.99        58.38292
469.44        58.29378
469.88        58.24093
470.32        58.11641
470.77        57.95121
471.21        57.86071
471.65        57.85722
472.10        57.91186
472.54        57.97033
472.98        57.96732
473.42         57.8923
473.87        57.77781
474.31        57.64251
474.75        57.61643
475.20        57.68636
475.64        57.74179
476.08        57.77192
476.52        57.77514
476.97        57.71164
477.41        57.75928
477.85         57.9197
478.29        57.45965
478.74        57.27991
479.18        57.38865
479.62         57.5904
480.06        57.67379
480.50         57.7629
480.95        57.77994
481.39         57.7108
481.83        58.01466
482.27        58.38055
482.72        57.75853
483.16        58.12618
483.60        58.33333
484.04        58.24724
484.48        57.91553
484.93        57.82447
485.37        57.51643
485.81        58.45753
486.25        57.71675
486.69        58.87656
487.14        59.47017
487.58        58.72765
488.02        58.00839
488.46         57.7412
488.90        57.86201
489.34         58.1666
489.79        57.64294
490.23        57.81533
490.67        57.76478
491.11         57.9535
491.55         57.9763
491.99        57.85376
492.43        57.81048
492.88        57.83968
493.32        57.85561
493.76        57.83018
494.20        57.86235
494.64        57.97614
495.08        57.82296
495.52        57.95649
495.96        57.99061
496.41        58.04641
496.85        57.91379
497.29        57.63238
497.73         57.7556
498.17        57.92366
498.61        57.96432
499.05        57.78566
499.49        57.71097
499.93        57.78277
500.37        57.91603
500.82        58.03395
501.26        58.05405
501.70        57.97403
502.14         57.6189
502.58        57.52459
503.02         57.4003
503.46        57.36149
503.90        57.42905
504.34        57.55043
504.78         57.6622
505.22        57.75829
505.66        57.78401
506.10        57.72106
506.54        57.80246
506.98        58.08256
507.42        57.51368
507.86        57.86187
508.30        57.79622
508.74        57.71812
509.18        57.66933
509.62        57.62255
510.06        57.59225
510.50        57.54475
510.94        57.43691
511.38        57.28365
511.82        57.16792
512.26        57.09989
512.70        57.03419
513.14        56.97952
513.58        56.96919
514.02        57.00082
514.46        57.05994
514.90          57.108
515.34         57.1266
515.78        57.11259
516.22         57.0341
516.66        56.76646
517.10        56.98312
517.54        56.72828
517.98        56.75237
518.42        56.77444
518.86        56.82964
519.30        56.90893
519.74        56.97208
520.18        57.02641
520.62        57.14902
521.06        57.29136
521.50        57.24875
521.93        57.04312
522.37        56.89611
522.81        56.83167
523.25        56.73343
523.69        56.61155
524.13        56.53182
524.57        56.49985
525.01         56.5041
525.45        56.53215
525.89        56.56015
526.32        56.57674
526.76        56.58812
527.20        56.60143
527.64         56.6321
528.08        56.67912
528.52        56.73588
528.96        56.77935
529.40        56.76955
529.83        56.69994
530.27        56.61123
530.71        56.51994
531.15        56.45042
531.59        56.41244
532.03        56.40259
532.46        56.40163
532.90        56.39049
533.34        56.35831
533.78        56.31525
534.22        56.26489
534.66        56.21109
535.09        56.15104
535.53        56.10429
535.97          56.067
536.41        56.04958
536.85        56.05429
537.28        56.07701
537.72        56.11824
538.16        56.17881
538.60        56.25114
539.04        56.32995
539.47        56.38501
539.91        56.41969
540.35         56.4176
540.79        56.38731
541.22        56.33976
541.66        56.30664
542.10        56.29276
542.54           56.29
542.97        56.29207
543.41        56.31597
543.85        56.35592
544.29        56.42248
544.72        56.48453
545.16        56.53147
545.60        56.54694
546.04        56.49967
546.47        56.44747
546.91        56.53519
547.35        56.72872
547.79         56.9132
548.22        57.00235
548.66        56.88009
549.10        56.62772
549.53         56.5621
549.97        56.67984
550.41        56.67489
550.84        56.54969
551.28        56.46657
551.72        56.44489
552.15        56.51572
552.59        56.67823
553.03        56.57238
553.46        56.72549
553.90        56.62012
554.34        56.62899
554.77        56.62388
555.21        56.49263
555.65        56.54953
556.08        56.70823
556.52        56.90131
556.96        57.04735
557.39        57.10302
557.83        57.05771
558.27        56.87171
558.70        56.63542
559.14        56.52147
559.57        56.54635
560.01        56.74859
560.45        57.00492
560.88        56.97358
561.32        56.74981
561.75        56.68009
562.19         56.8103
562.63        56.94029
563.06        57.00443
563.50        56.93313
563.93        56.74866
564.37        56.64151
564.80        56.62708
565.24        56.70483
565.68        56.83913
566.11        56.91887
566.55        56.94103
566.98        57.01228
567.42        57.13018
567.85        57.05351
568.29        56.88675
568.72         56.9556
569.16        57.26363
569.60        57.31444
570.03        57.37084
570.47        57.36475
570.90        57.36874
571.34        57.43457
571.77        57.81721
572.21        57.58881
572.64        57.78606
573.08        57.62017
573.51        57.40123
573.95        57.64867
574.38        57.95593
574.82        58.35789
575.25        58.07401
575.69        58.09284
576.12        57.58613
576.56        57.83297
576.99        57.97345
577.42        57.73151
577.86        58.02875
578.29        58.53882
578.73        59.01643
579.16        58.49237
579.60        58.09474
580.03        58.09693
580.47        58.12579
580.90        58.20379
581.33        58.45214
581.77        58.04332
582.20        58.50964
582.64        58.83548
583.07        58.62012
583.51        58.09137
583.94        57.93042
584.37        57.44055
584.81         57.1772
585.24        57.27555
585.68        58.02463
586.11         57.8484
586.54        57.74262
586.98        57.68757
587.41        57.54354
587.85        58.07613
588.28        57.70794
588.71        58.00821
589.15        57.74433
589.58         57.4511
590.01        57.35949
590.45        57.04688
590.88        57.31378
591.31        56.98237
591.75        56.92386
592.18        56.89497
592.61        57.10349
593.05        57.35746
593.48        57.51819
593.91        57.67188
594.35        57.82174
594.78           57.43
595.21        57.70248
595.65        57.49302
596.08        57.23919
596.51         57.4173
596.94        57.43407
597.38        57.51078
597.81           57.52
598.24        57.34077
598.68        56.97474
599.11        57.53339
599.54        57.69494
599.97        57.39351
600.41        57.81689
600.84        57.71953
601.27        57.85899
601.70        57.82775
602.14        57.41111
602.57        57.37363
603.00        57.62238
603.43        57.62372
603.87        57.90191
604.30        57.82903
604.73        58.01121
605.16        57.64229
605.60        57.65919
606.03        57.66795
606.46        57.93185
606.89        57.69818
607.32        57.49388
607.76        58.18322
608.19         58.0574
608.62        57.76205
609.05        58.45495
609.48        57.95029
609.92        58.21445
610.35        57.68336
610.78        58.09706
611.21         58.0496
611.64        57.86661
612.07        57.74889
612.50        57.71631
612.94        57.69385
613.37           57.68
613.80        57.90028
614.23         57.9977
614.66        57.95208
615.09        57.73581
615.52        57.66743
615.96        57.72701
616.39        57.74682
616.82        57.75068
617.25        57.41214
617.68        57.52329
618.11        57.54205
618.54        57.76375
618.97        57.72082
619.40        57.50302
619.84        57.07685
620.27        57.20471
620.70        57.16328
621.13        57.15146
621.56        57.25682
621.99        57.45576
622.42        57.56398
622.85        57.51995
623.28        57.65685
623.71        57.56806
624.14        57.73988
624.57        57.37717
625.00        57.86169
625.43        57.25722
625.86        57.33465
626.29        57.61243
626.72        57.18036
627.15        57.35101
627.58        57.26978
628.01        57.39947
628.44         57.0988
628.87        57.05319
629.30        57.31037
629.73        57.18912
630.16        56.98016
630.59        56.93003
631.02        57.15543
631.45        56.96244
631.88        56.99215
632.31        57.02066
632.74        56.77629
633.17        56.83281
633.60        56.70196
634.03        56.57027
634.46        56.47791
634.89        56.36834
635.32        56.36387
635.75          56.434
636.18        56.56389
636.61         56.7051
637.04        56.78226
637.47        56.77511
637.89        56.71142
638.32        56.60012
638.75        56.48389
639.18        56.38169
639.61        56.28341
640.04        56.20856
640.47        56.18787
640.90        56.22318
641.33        56.30954
641.76        56.40742
642.18        56.45431
642.61        56.42124
643.04        56.33055
643.47        56.22217
643.90          56.169
644.33         56.1897
644.76        56.24893
645.18        56.31564
645.61        56.36565
646.04        56.37117
646.47        56.28296
646.90        56.14434
647.33        56.08405
647.75        56.11332
648.18        56.19798
648.61        56.31469
649.04        56.35927
649.47         56.3027
649.89        56.50764
650.32        56.37321
650.75        56.42046
651.18        56.46084
651.61        56.45218
652.03        56.41908
652.46        56.41253
652.89        56.44147
653.32        56.56934
653.74        56.76193
654.17        56.70493
654.60        56.16574
655.03         56.5348
655.46        56.10546
655.88        57.00119
656.31        57.90167
656.74        62.02784
657.16        61.16987
657.59        59.94532
658.02        57.62705
658.45        57.12485
658.87        56.92169
659.30        56.87485
659.73        56.75326
660.15        56.21325
660.58        56.49859
661.01        56.88649
661.44        57.48428
661.86        57.42078
662.29        56.77936
662.72        56.47086
663.14         56.5787
663.57         56.6381
664.00        56.61325
664.42        56.63826
664.85        56.71008
665.27        56.70929
665.70        56.80902
666.13        56.83642
666.55         56.8432
666.98        56.82495
667.41        56.78837
667.83        56.75113
668.26        56.73032
668.69        56.67756
669.11         56.5857
669.54        56.64365
669.96        56.89832
670.39        56.53775
670.82        56.91983
671.24        56.94475
671.67         56.9921
672.09        57.01571
672.52        57.03422
672.94        56.99667
673.37        56.91286
673.80        56.84295
674.22        56.80164
674.65        56.73391
675.07        56.66223
675.50        56.61858
675.92        56.62348
676.35        56.64659
676.77         56.6779
677.20        56.84982
677.62        56.95688
678.05        57.06321
678.47        57.07733
678.90        57.31452
679.32        57.23095
679.75         57.2627
680.17        57.25049
680.60        57.26004
681.02        57.27149
681.45         57.1509
681.87        56.96472
682.30        56.94347
682.72        57.09784
683.15        57.23141
683.57        57.27772
684.00        57.37674
684.42        57.16094
684.85        57.12219
685.27        57.15167
685.70         57.1508
686.12        57.08494
686.54        57.03583
686.97        57.01217
687.39        56.85675
687.82        56.84678
688.24        56.90783
688.66        57.05879
689.09        57.31155
689.51         57.2339
689.94        57.36713
690.36        57.55992
690.78        57.66389
691.21        57.66449
691.63        57.58982
692.06        57.49052
692.48        57.46058
692.90        57.50347
693.33        57.51177
693.75        57.49175
694.17        57.49243
694.60        57.49252
695.02        57.57848
695.44        57.49792
695.87        57.43482
696.29        57.37534
696.71        57.32824
697.14        57.32915
697.56        57.60228
697.98        58.05365
698.41        58.04375
698.83        58.12148
699.25        57.96077
699.68        57.79087
700.10          57.653
700.52        57.58229
700.94        57.56005
701.37        57.55275
701.79        57.56263
702.21        57.56165
702.64        57.56308
703.06        57.56837
703.48        57.58138
703.90        57.60529
704.33         57.6337
704.75        57.65518
705.17        57.63503
705.59        57.56935
706.01        57.46687
706.44        57.37824
706.86          57.384
707.28        57.48328
707.70        57.70253
708.12        57.96667
708.55        58.02481
708.97         57.9051
709.39        57.93993
709.81        58.11737
710.23        58.15174
710.66        58.03789
711.08        57.95926
711.50        57.93063
711.92        57.90948
712.34        57.90255
712.76        57.92171
713.19        57.95391
713.61        58.01622
714.03        58.08111
714.45        58.15726
714.87        58.22979
715.29        58.23806
715.71        58.17202
716.13        58.19698
716.56         58.0534
716.98        58.04687
717.40        58.09475
717.82         58.1837
718.24        58.28805
718.66        58.36902
719.08        58.41435
719.50        58.43473
719.92        58.42971
720.34        58.39719
720.76        58.34343
721.19        58.26189
721.61        58.19316
722.03        58.17765
722.45          58.225
722.87         58.3252
723.29        58.44805
723.71        58.53937
724.13        58.58535
724.55         58.6017
724.97        58.60954
725.39        58.64712
725.81        58.72158
726.23        58.80883
726.65        58.90018
727.07        58.99018
727.49         59.0734
727.91        59.14435
728.33        59.17657
728.75        59.16402
729.17        59.08997
729.59        58.88245
730.01        58.63504
730.43        58.57909
730.85        58.74473
731.27        59.02139
731.69        59.30671
732.10         59.4211
732.52        59.49698
732.94        59.19104
733.36        58.70552
733.78        58.47229
734.20        58.56958
734.62         58.7902
735.04        59.03739
735.46        59.22777
735.88        59.31565
736.30        59.33603
736.72        59.30756
737.13        59.26986
737.55        59.20527
737.97        59.12262
738.39        59.05293
738.81        59.02878
739.23        59.06745
739.65        59.22144
740.06        59.38303
740.48        59.44335
740.90        59.35505
741.32        59.16836
741.74        58.96964
742.16        58.89888
742.57        59.00505
742.99        59.22903
743.41        59.47824
743.83        59.58945
744.25        59.52327
744.67        59.32147
745.08        59.10227
745.50        59.02232
745.92         59.1389
746.34         59.4054
746.75         59.6949
747.17        59.80239
747.59        59.68418
748.01        59.37134
748.42        59.03065
748.84         58.9532
749.26        59.16182
749.68        59.52331
750.09        59.86854
750.51        59.86021
750.93        59.54631
751.35        59.39052
751.76        59.44405
752.18        59.41613
752.60        59.32365
753.01        59.39361
753.43        59.53704
753.85         59.5322
754.27        59.35586
754.68        59.08692
755.10        58.83206
755.52        58.73193
755.93        58.82023
756.35        59.04002
756.77        59.30894
757.18        59.53315
757.60         59.6711
758.02        59.70267
758.43        59.63977
758.85        59.77084
759.26        59.55716
759.68        59.74696
760.10        59.47071
760.51        59.22451
760.93         59.4965
761.34        59.56871
761.76        59.62791
762.18        59.59153
762.59        59.45832
763.01        59.56002
763.42        59.14193
763.84         59.3138
764.26        59.42076
764.67        59.77643
765.09        60.14862
765.50        60.26446
765.92        60.15991
766.33        60.10565
766.75        60.10052
767.16        59.96512
767.58        59.68642
768.00        59.63957
768.41        59.84219
768.83        59.73705
769.24        59.34394
769.66         59.7846
770.07        59.94705
770.49        59.97757
770.90         59.6576
771.32        59.71542
771.73        60.11411
772.15        60.27491
772.56        60.19146
772.97        60.15733
773.39         60.1718
773.80        60.15717
774.22        60.09081
774.63        60.02813
775.05        59.95489
775.46        59.89015
775.88        59.82308
776.29        59.77307
776.70        59.73712
777.12        59.72594
777.53        59.75612
777.95        59.81189
778.36        59.88246
778.77        59.94793
779.19        60.00087
779.60        60.04829
780.02        60.08875
780.43        60.15718
780.84        60.26023
781.26        60.31877
781.67        60.35611
782.09         60.4901
782.50        60.64177
782.91        60.53693
783.33        60.22974
783.74        60.11877
784.15        60.20593
784.57        60.37347
784.98        60.56783
785.39        60.47728
785.81        60.38857
786.22         60.4007
786.63        60.56797
787.04        60.61148
787.46        60.53742
787.87        60.47642
788.28        60.47768
788.70        60.52418
789.11        60.59622
789.52        60.76161
789.93        60.95822
790.35        60.93074
790.76        60.74157
791.17        60.75501
791.58        60.94483
792.00        60.97165
792.41        60.85542
792.82        60.74297
793.23        60.73228
793.65        60.91275
794.06        61.25095
794.47        61.62007
794.88        61.96567
795.29        61.83961
795.71        62.16301
796.12        62.06686
796.53        61.85861
796.94        61.77689
797.35        61.80777
797.76        61.62729
798.18         61.2819
798.59         61.1233
799.00        61.17556
799.41        61.27494
799.82        61.35799
800.23        61.38981
800.64        61.34526
801.06        61.21349
801.47        61.08382
801.88        61.03522
802.29        61.09223
802.70         61.2277
803.11        61.39451
803.52        61.51083
803.93        61.55309
804.34        61.54711
804.75        61.52936
805.17         61.5575
805.58        61.67141
805.99        61.80564
806.40        61.93655
806.81        62.08847
807.22        62.21201
807.63        62.18182
808.04        62.04292
808.45        61.99475
808.86        62.05853
809.27        62.12181
809.68        62.16329
810.09        62.18845
810.50        62.18779
810.91        62.17621
811.32         62.1302
811.73        62.00791
812.14        61.81197
812.55         61.5506
812.96         61.3212
813.37        61.28788
813.78        61.47797
814.19         61.8401
814.60        62.22067
815.01        62.38151
815.42        62.26945
815.83        61.94475
816.24        61.54623
816.65        61.34171
817.05        61.42408
817.46        61.68549
817.87        62.02238
818.28        62.23769
818.69        62.28095
819.10        62.22006
819.51        62.12189
819.92        62.09949
820.33        62.18734
820.74        62.32607
821.14        62.48436
821.55          62.645
821.96        62.78215
822.37        62.91701
822.78        63.00465
823.19        62.96357
823.60        62.78235
824.00        62.48664
824.41        62.15845
824.82          62.001
825.23        62.06158
825.64        62.30211
826.04         62.5959
826.45        62.69586
826.86        62.56004
827.27        62.25484
827.68        61.93001
828.08        61.86998
828.49        62.07907
828.90        62.51397
829.31        63.03208
829.72        63.30333
830.12        63.25323
830.53        63.37103
830.94        62.95695
831.35          62.749
831.75         62.5858
832.16        62.42826
832.57        62.32817
832.97        62.37158
833.38        62.55685
833.79        62.85451
834.20        63.17796
834.60        63.39046
835.01        63.45387
835.42        63.39829
835.82        63.27505
836.23        63.13883
836.64        63.03699
837.04        62.97001
837.45        62.91241
837.86        62.87775
838.26        62.87622
838.67        62.89735
839.08        62.95781
839.48        63.06387
839.89        63.20039
840.29        63.35587
840.70        63.49927
841.11        63.57765
841.51        63.59383
841.92        63.53382
842.33        63.43754
842.73         63.3725
843.14        63.32062
843.54        63.29608
843.95        63.29677
844.35        63.33781
844.76        63.40763
845.17        63.50814
845.57        63.62364
845.98        63.69069
846.38        63.72554
846.79        63.72401
847.19        63.73335
847.60        63.75861
848.00        63.83768
848.41        63.92384
848.81        64.06538
849.22        64.27677
849.62          64.577
850.03        64.91145
850.43        65.21449
850.84        65.28458
851.24        65.13541
851.65        64.75269
852.05        64.31396
852.46        64.05622
852.86        64.05564
853.27        64.28126
853.67        64.51539
854.07        64.57826
854.48        64.40109
854.88        64.06657
855.29        63.67165
855.69         63.5477
856.10        63.69524
856.50        64.10559
856.90        64.54993
857.31        64.69293
857.71        64.50399
858.12        64.03739
858.52        63.49654
858.92        63.16947
859.33        63.13174
859.73        63.32896
860.13        63.63643
860.54        63.84527
860.94        63.94476
861.34        63.97153
861.75        63.91889
862.15        63.84745
862.55        63.74545
862.96        63.56437
863.36        63.38727
863.76         63.3103
864.17        63.34686
864.57        63.51325
864.97        63.66286
865.38        63.52541
865.78        63.08644
866.18        62.41073
866.58        61.75994
866.99        61.57959
867.39        62.00855
867.79        62.87191
868.19        63.83643
868.60        64.35472
869.00        64.39685
869.40        64.28564
869.80        64.10607
870.21        63.81551
870.61        63.54194
871.01        63.35565
871.41         63.2027
871.81        62.91977
872.22        62.50708
872.62        62.02376
873.02        61.59842
873.42        61.63283
873.82        61.97482
874.22        61.99963
874.63        61.82466
875.03        61.74473
875.43        61.77566
875.83        62.78281
876.23        61.98224
876.63        61.20828
877.03        60.23645
877.44        58.38604
877.84        173.2412
878.24        60.44749
878.64        61.62318
879.04        63.46425
879.44        64.13175
879.84        60.69241
880.24        65.60003
880.64        65.44476
881.04        62.58296
881.44        60.54148
881.84        60.01795
882.24        61.05608
882.65        62.76736
883.05        63.33642
883.45        62.40673
883.85        60.97908
884.25        59.66858
884.65        59.03976
885.05        59.29807
885.45        60.15993
885.85        61.20618
886.25        61.87293
886.65        62.00346
887.05        61.78268
887.45        61.36289
887.85        60.98782
888.25        60.76777
888.65        60.62049
889.04        60.55821
889.44        60.62605
889.84        60.80596
890.24        61.08884
890.64        61.41718
891.04        61.69207
891.44         61.8873
891.84        62.02811
892.24        62.09085
892.64        62.04881
893.04         61.9139
893.44        61.69495
893.83        61.51485
894.23        61.52829
894.63         61.7746
895.03        62.22173
895.43          62.714
895.83        62.98533
896.23        62.96983
896.63        62.72739
897.02        62.43193
897.42        62.40242
897.82        62.66366
898.22        63.12148
898.62         63.5453
899.01         63.5745
899.41        63.11569
899.81        62.30911
900.21        61.42014
900.61        60.87713
901.00        60.78732
901.40        61.09375
901.80        61.58857
902.20        61.79676
902.59        61.59126
902.99        61.38093
903.39         61.4652
903.79         60.5071
904.18        61.45188
904.58        61.87565
904.98        62.34327
905.38        62.35694
905.77        61.85121
906.17        60.99227
906.57        60.10688
906.96        59.82824
907.36        60.28905
907.76         61.3079
908.15        62.51616
908.55        63.15083
908.95        63.04904
909.34        62.37772
909.74        61.53006
910.14         61.0971
910.53        61.23774
910.93        61.75671
911.33        62.32503
911.72        62.42894
912.12        61.96766
912.52        61.13974
912.91        60.25447
913.31        59.85852
913.70        60.05585
914.10        60.67362
914.49        61.45386
914.89        61.88939
915.29        61.85819
915.68        61.49691
916.08        61.05193
916.47        60.85867
916.87        61.04057
917.26        61.47806
917.66        61.99984
918.05        62.35919
918.45        62.46597
918.84        62.40965
919.24        62.31832
919.64        62.45475
920.03        62.86061
920.42        63.39898
920.82        63.86883
921.21        63.97829
921.61         63.6931
922.00        63.20274
922.40         62.7089
922.79        62.38503
923.19         61.9164
923.58        62.16966
923.98        63.58422
924.37        63.55805
924.77        60.58656
925.16        69.45419
925.55        63.26094
925.95        63.91165
926.34        63.79074
926.74        62.78683
927.13        61.03103
927.52        60.08031
927.92        60.54799
928.31        61.60906
928.70         62.9053
929.10        63.85671
929.49        64.33505
929.89        64.54406
930.28        64.48603
930.67         64.0626
931.07        63.35039
931.46        62.25838
931.85        61.17622
932.24        61.24871
932.64        62.61539
933.03        64.30586
933.42        65.35717
933.82        67.85088
934.21        66.06413
934.60        64.51936
934.99        62.88873
935.39        62.35131
935.78          62.998
936.17        65.18068
936.56         72.0784
936.96        64.83293
937.35        69.12852
937.74        66.03802
938.13        63.91675
938.53        62.09004
938.92         61.2488
939.31         62.0019
939.70        63.20333
940.09        63.73571
940.49         63.3313
940.88        62.40293
941.27         61.3942
941.66        61.10697
942.05        61.77866
942.44        63.03439
942.84        64.31863
943.23        64.97824
943.62        64.84365
944.01        64.11324
944.40        63.19551
944.79         62.7865
945.18        63.06881
945.57        63.80787
945.97        64.55312
946.36        64.71638
946.75        64.10802
947.14        62.94954
947.53        61.62039
947.92        60.76184
948.31        60.59012
948.70        60.92001
949.09        61.46944
949.48         61.8023
949.87        61.80038
950.26        61.60889
950.65        61.40174
951.04        61.44986
951.43        61.81778
951.82        62.37448
952.21        62.96435
952.60        63.34892
952.99        63.43756
953.38        63.30632
953.77        63.04512
954.16        62.77009
954.55        62.53703
954.94        62.34553
955.33        62.18412
955.72        62.04036
956.11        61.92439
956.50        61.83767
956.89        61.88743
957.28        62.22335
957.66        62.86792
958.05        63.67986
958.44        64.40432
958.83        64.65939
959.22        64.36406
959.61        63.58025
960.00        62.60429
960.39        62.03238
960.78        62.05801
961.16        62.56113
961.55        63.09262
961.94         63.1149
962.33         62.5307
962.72        61.50478
963.11        60.40577
963.49        59.98859
963.88        60.48541
964.27        61.58639
964.66        62.84331
965.04        63.67606
965.43        63.89222
965.82        63.72507
966.21         63.3107
966.60        62.89535
966.98        62.60013
967.37        62.32038
967.76        62.14306
968.15         62.2222
968.53        62.57969
968.92        63.18482
969.31        63.80177
969.69        64.00529
970.08        63.67293
970.47        62.90474
970.86        62.02596
971.24        61.62323
971.63         61.8308
972.02        62.47316
972.40        63.21302
972.79        63.45592
973.17        63.13511
973.56        62.43839
973.95        61.68155
974.33        61.41427
974.72        61.79167
975.11        62.59618
975.49        63.64643
975.88        64.57971
976.26        65.32071
976.65        65.89609
977.04        66.26731
977.42        66.34092
977.81        66.08703
978.19        65.45705
978.58        64.86079
978.96        64.95905
979.35        65.82722
979.74        67.18813
980.12        68.50565
980.51        68.90464
980.89        68.38885
981.28        67.09917
981.66        65.39939
982.05        64.29798
982.43        64.19457
982.82        64.86713
983.20        65.89408
983.59        66.58128
983.97        66.76279
984.35        66.59369
984.74        66.19949
985.12         65.8726
985.51        65.69997
985.89        65.68196
986.28        65.67468
986.66         65.5546
987.04        65.35861
987.43        65.02386
987.81        64.54786
988.20        65.56163
988.58        68.21276
988.96        69.35742
989.35        68.02861
989.73        74.34966
990.12        70.46934
990.50        70.10675
990.88        68.78944
991.27        67.73909
991.65        67.12394
992.03        67.03798
992.42        67.42379
992.80        67.48194
993.18        67.05196
993.56        66.38108
993.95        65.78222
994.33        65.69935
994.71        66.24031
995.10        67.20702
995.48        68.26019
995.86        68.85909
996.24          68.869
996.63        68.40362
997.01        67.86765
997.39        67.70418
997.77        68.00142
998.15        68.55924
998.54        69.20697
998.92        69.58125
999.30        69.60908
999.68        69.43971
1000.06        69.04132
1000.45        68.32994
1000.83         67.5084
1001.21        66.65761
1001.59         66.1573
1001.97        66.53428
1002.35        67.74152
1002.73        69.43675
1003.12        71.23004
1003.50        72.72967
1003.88        73.82817
1004.26        74.67552
1004.64        75.15456
1005.02        75.02681
1005.40        74.24609
1005.78        72.82626
1006.16        71.22437
1006.54        70.21952
1006.92        70.04226
1007.30        70.60864
1007.69        71.39109
1008.07        71.64042
1008.45        71.16081
1008.83        70.13517
1009.21        69.12625
1009.59        69.28547
1009.97        70.77209
1010.35        72.87688
1010.73         74.8268
1011.11        76.10938
1011.49        76.80058
1011.86        76.79917
1012.24        75.94367
1012.62        77.26682
1013.00        77.83597
1013.38        77.39829
1013.76         74.5582
1014.14        78.58611
1014.52        85.02228
1014.90        76.64316
1015.28        78.01375
1015.66        79.73084
1016.04        76.23975
1016.41        77.02715
1016.79        76.60313
1017.17        76.44576
1017.55        75.92429
1017.93        75.32413
1018.31        75.17711
1018.69        75.76859
1019.06        77.16298
1019.44         79.0866
1019.82        80.79633
1020.20         81.3185
1020.58        80.46669
1020.95         78.1833
1021.33        75.13145
1021.71        73.50993
1022.09        74.45052
1022.46        76.95787
1022.84        79.46238
1023.22        80.79082
1023.60        80.97942
1023.97        80.49023
1024.35        79.67897
1024.73        79.21474
