SpectraSmart Spectrum 2.9.0.0
--------- Device Information -----------
Spectrum Name :  反射率_0
Saving Time :  2024/04/21 00:49:31
Spectro-Module Model Name : SE2030-DUVN
Spectro-Module Serial Number : OS361AC55029948
Wavelength Start : 200
Wavelength End : 1025
Wavelength Unit : Wavelength(nm)
Spectrum Unit : Reflectance(%)
-----------Spectrum Setting ------------
Integration Time : 20ms
Average : 10
Boxcar : 0
Background removal :  enabled
linearity correction :  enabled
SC :  disabled
Intensity correction :  disabled
DWT denoise :  enabled
savitzky-golay :  disabled
FFT :  disabled
Running average :  disabled
Kalman :  disabled
High pass :  disabled
---------------BEGIN--------------------
Wavelength(nm)             Reflectance(%)
200.29               0
200.75       -93.76635
201.21        -29.7399
201.67        7.843953
202.13         23.5612
202.58        26.67599
203.04        23.45258
203.50        16.10969
203.96        9.648707
204.42         7.02352
204.88        5.680641
205.34        4.853781
205.80         3.29676
206.26       0.6678439
206.72       0.1433249
207.18      -0.2543121
207.64       -6.425929
208.10       -18.45103
208.55       -35.05521
209.01       -39.65839
209.47       -15.78197
209.93        14.15186
210.39        37.06589
210.85        50.77766
211.31        55.26271
211.77        52.48364
212.23        42.33472
212.69        20.81473
213.14       -15.01466
213.60       -68.99223
214.06       -197.5386
214.52       -420.9456
214.98       -133.7903
215.44       -3.465527
215.90        34.46653
216.36        45.80903
216.81        46.58044
217.27        38.73272
217.73        -2.96468
218.19        515.8472
218.65        255.6323
219.11       -537.6836
219.57       -9.623188
220.02        24.87792
220.48        30.57215
220.94        26.44525
221.40        11.45788
221.86       -22.94601
222.32        -40.1938
222.77       -3.770102
223.23        24.92279
223.69         38.4244
224.15        42.06504
224.61        40.45143
225.06         36.0918
225.52        30.13899
225.98        24.17805
226.44        19.22583
226.90        14.04409
227.36        11.36914
227.81        15.62888
228.27        23.66076
228.73        31.81636
229.19        36.93407
229.65        37.20069
230.10         33.3119
230.56        26.61331
231.02        18.13572
231.48        12.25945
231.93        12.33567
232.39        16.74897
232.85        22.10887
233.31        25.47563
233.77        26.93487
234.22        27.89517
234.68        28.09064
235.14        26.90069
235.60        24.59163
236.05        20.48073
236.51         15.5812
236.97        18.50068
237.43        30.30722
237.88        39.28904
238.34         41.1108
238.80        64.01319
239.26          55.634
239.71        53.75844
240.17        44.94588
240.63        34.73498
241.08        27.16214
241.54        25.14809
242.00        30.40069
242.46        33.95783
242.91        33.60814
243.37        31.58796
243.83        30.07198
244.28        33.88853
244.74        43.65205
245.20        54.01108
245.66        61.16483
246.11        62.55833
246.57         58.3977
247.03        50.15625
247.48        38.33995
247.94        23.30187
248.40       0.9732323
248.85       -50.81383
249.31       -204.9324
249.77       -315.5204
250.22       -75.77032
250.68        20.75148
251.14        50.83716
251.59        58.58239
252.05        57.14242
252.51         49.4358
252.96        34.83467
253.42         19.3484
253.88        11.17798
254.33        9.910938
254.79        16.58334
255.25        28.35877
255.70        39.96978
256.16        49.66541
256.62        55.89119
257.07        57.88964
257.53        57.48703
257.99        55.82536
258.44        53.88333
258.90        53.16556
259.35         53.0537
259.81         53.3103
260.27        53.28992
260.72        52.44645
261.18        51.22289
261.63        49.74318
262.09        48.35704
262.55        46.97982
263.00         45.5601
263.46        44.25595
263.91        43.03411
264.37           42.25
264.83         41.8106
265.28        41.54691
265.74        41.36782
266.19        40.97704
266.65        40.37287
267.11        39.58688
267.56        38.63288
268.02        37.62265
268.47        36.55945
268.93        35.46484
269.38        34.35249
269.84        33.30452
270.30        32.33861
270.75         31.4585
271.21        30.68745
271.66        29.98447
272.12        29.35857
272.57        28.79078
273.03        28.28019
273.48        27.79336
273.94        27.33346
274.39        26.86943
274.85        26.41463
275.31        25.93202
275.76        25.41874
276.22        24.92494
276.67        24.46377
277.13        24.11832
277.58        23.86431
278.04        23.69299
278.49        23.54316
278.95        23.39807
279.40        23.20243
279.86        22.98533
280.31        22.70589
280.77        22.38037
281.22        21.99347
281.68        21.61295
282.13         21.2215
282.59        20.86329
283.04        20.53341
283.50        20.23976
283.95        20.04351
284.41        20.05595
284.86          20.263
285.32        20.62807
285.77        20.98452
286.22        21.10166
286.68        20.96873
287.13        20.63188
287.59        20.30738
288.04        20.22172
288.50        20.39463
288.95        20.86627
289.41        21.51709
289.86        21.67451
290.32        21.21567
290.77        22.18935
291.22        21.34781
291.68         21.5196
292.13        21.77007
292.59        22.15916
293.04        22.66389
293.50         23.3268
293.95        24.15954
294.40        25.12179
294.86          26.189
295.31        27.30559
295.77        28.44436
296.22         29.6011
296.68         30.7543
297.13        31.86986
297.58        32.96736
298.04          34.063
298.49         35.2271
298.95        36.59112
299.40         38.1537
299.85        39.87385
300.31        41.64046
300.76        43.26068
301.21        44.70119
301.67        46.04086
302.12        47.35326
302.58        48.84827
303.03        50.53895
303.48        52.39856
303.94        54.35155
304.39         56.2338
304.84        58.00884
305.30        59.73878
305.75        61.42796
306.20        63.18124
306.66         65.0099
307.11        66.81794
307.57        68.58756
308.02        70.23519
308.47        71.75729
308.93        73.21854
309.38        74.56628
309.83        75.75327
310.29        76.87499
310.74         77.8577
311.19        78.80415
311.65        79.82493
312.10        80.92575
312.55        82.07947
313.00        83.20959
313.46        84.19199
313.91        84.98029
314.36        85.62379
314.82         86.1831
315.27        86.74967
315.72        87.35976
316.18        87.98458
316.63        88.60265
317.08        89.18577
317.53        89.71484
317.99        90.19405
318.44        90.61765
318.89         90.9595
319.35        91.21789
319.80        91.41044
320.25        91.55273
320.70        91.67686
321.16        91.79436
321.61        91.92315
322.06        92.07872
322.51        92.28784
322.97        92.54099
323.42        92.86092
323.87        93.20732
324.32        93.52793
324.78        93.78468
325.23        94.01419
325.68        94.21547
326.13        94.42183
326.59         94.6184
327.04        94.84048
327.49        95.04829
327.94        95.21009
328.39        95.32341
328.85        95.38097
329.30        95.47231
329.75        95.62178
330.20        95.84846
330.66         96.1148
331.11        96.46021
331.56        96.82377
332.01         97.1917
332.46        97.56725
332.92         97.9194
333.37        98.32764
333.82        98.75316
334.27          99.188
334.72        99.61397
335.17        100.0067
335.63        100.3361
336.08        100.6657
336.53        101.0027
336.98        101.4038
337.43        101.8767
337.88        102.3952
338.34        102.8989
338.79        103.3392
339.24        103.6742
339.69        103.9314
340.14        104.1258
340.59        104.2858
341.05        104.4359
341.50        104.5788
341.95        104.7558
342.40        105.0392
342.85        105.4343
343.30        105.9137
343.75        106.4003
344.20        106.7717
344.66        107.0025
345.11        107.1098
345.56        107.1463
346.01        107.1959
346.46        107.2936
346.91        107.4182
347.36        107.5493
347.81        107.6806
348.26        107.8104
348.72        107.8612
349.17         108.003
349.62        108.1553
350.07        108.3634
350.52        108.5935
350.97        108.7696
351.42         108.772
351.87        108.5739
352.32        108.2181
352.77        107.7834
353.22        107.3876
353.67        107.0694
354.13        106.8204
354.58        106.5806
355.03        106.3034
355.48        105.9729
355.93        105.6021
356.38        105.2274
356.83        104.9004
357.28        104.6127
357.73        104.3286
358.18        103.9691
358.63        103.4178
359.08         102.668
359.53        101.7849
359.98        100.8555
360.43        100.0055
360.88        99.27111
361.33        98.60844
361.78         98.0174
362.23        97.49491
362.68         97.0199
363.13        96.59636
363.58         96.1302
364.03        95.46844
364.48        94.59121
364.93        93.54311
365.38        92.46793
365.83        91.60783
366.28        91.01793
366.73        90.61974
367.18        90.28982
367.63        89.82594
368.08        89.17239
368.53         88.4043
368.98        87.56956
369.43        86.73032
369.88         85.9129
370.33        85.08635
370.78        84.28773
371.23        83.60392
371.68        83.05525
372.13        82.62456
372.58         82.2453
373.03         81.7909
373.48        81.22294
373.93        80.57855
374.38        79.88868
374.83        79.21812
375.28         78.6076
375.72        78.03217
376.17        77.53887
376.62        77.13641
377.07        76.80536
377.52        76.52148
377.97        76.24458
378.42        75.91606
378.87        75.52343
379.32        75.09064
379.77         74.6142
380.22        74.08023
380.67        73.48717
381.11          72.838
381.56        72.18459
382.01        71.63732
382.46        71.23401
382.91        70.95957
383.36         70.7302
383.81        70.40725
384.26        69.95848
384.71        69.41882
385.15        68.86633
385.60          68.485
386.05        68.27902
386.50        68.18861
386.95        68.09908
387.40        67.83996
387.85        67.39099
388.29        66.79102
388.74        66.22878
389.19        65.78751
389.64         65.4837
390.09        65.26218
390.54        65.09173
390.98        64.91386
391.43        64.74979
391.88        64.61426
392.33        64.48078
392.78        64.33366
393.23        64.17472
393.67        63.89267
394.12        63.62714
394.57        63.60495
395.02        63.74942
395.47        63.63674
395.91        63.27276
396.36         63.0067
396.81        62.86725
397.26        62.66538
397.71        62.40965
398.15        62.16248
398.60        61.98899
399.05        61.83476
399.50        61.73191
399.95        61.65072
400.39        61.60793
400.84        61.76078
401.29        61.98227
401.74        61.69472
402.18        60.98473
402.63         60.5634
403.08        60.47102
403.53        60.22197
403.97        59.83564
404.42        59.64908
404.87        59.65305
405.32        59.69143
405.76        59.72794
406.21        59.79945
406.66        59.87771
407.11        59.89341
407.55         59.8378
408.00        59.79942
408.45        59.76837
408.90        59.40588
409.34        58.87435
409.79        58.90167
410.24        59.36591
410.68        59.49458
411.13         59.2445
411.58        59.04368
412.03        58.95192
412.47        58.88931
412.92        58.85709
413.37        58.88384
413.81        58.93614
414.26        59.01455
414.71        59.09241
415.15        59.17685
415.60        59.23057
416.05        59.24429
416.49        59.21531
416.94        59.13887
417.39        59.02924
417.83        58.90156
418.28        58.77069
418.73        58.64043
419.17        58.52505
419.62        58.45376
420.07        58.42967
420.51        58.44212
420.96        58.50135
421.41        58.55273
421.85        58.55621
422.30        58.62215
422.74        58.71781
423.19        58.73123
423.64        58.72692
424.08        59.09841
424.53        59.66468
424.98        59.91338
425.42        59.80382
425.87        59.45676
426.31        59.07893
426.76        59.17715
427.21        59.66882
427.65        59.79842
428.10        59.54203
428.54        59.52025
428.99        59.76313
429.44        59.97896
429.88         60.0575
430.33        59.92594
430.77        59.63209
431.22        59.52942
431.66        59.64362
432.11        59.91722
432.56        60.31218
433.00        60.48447
433.45        60.17373
433.89        60.07338
434.34        60.46349
434.78        59.20879
435.23        59.37451
435.67        60.73612
436.12        60.46044
436.57        60.71876
437.01        60.55743
437.46        60.32748
437.90        60.61921
438.35         61.0126
438.79        60.75403
439.24        60.81598
439.68        60.92187
440.13        60.86467
440.57        60.69246
441.02         60.8597
441.46         61.2772
441.91        61.33422
442.35        61.06922
442.80        61.28344
443.24        61.83992
443.69        61.99866
444.13        61.72699
444.58        61.49292
445.02         61.3695
445.47        61.43607
445.91         61.6366
446.36        61.73877
446.80        61.71498
447.24        61.68189
447.69        61.67288
448.13          61.833
448.58        61.93867
449.02        61.84716
449.47        61.56423
449.91        61.43674
450.36        61.50574
450.80        61.50294
451.25        61.45733
451.69        61.56753
452.13        61.77852
452.58         61.7846
453.02         61.5774
453.47        61.42029
453.91        61.31943
454.36        61.13198
454.80        60.89531
455.24        60.78599
455.69        60.84387
456.13         60.9085
456.58        60.94868
457.02        61.16784
457.46        61.15753
457.91        60.97164
458.35        60.69307
458.79         60.5346
459.24        60.58189
459.68        60.64046
460.13        60.69891
460.57        60.71511
461.01        60.69616
461.46        60.38281
461.90        60.65918
462.34        60.09357
462.79        60.37173
463.23        60.38172
463.68        60.48241
464.12        60.38387
464.56        60.11225
465.01        60.13142
465.45        60.30379
465.89        60.17888
466.34        59.84632
466.78        59.79751
467.22        59.97116
467.67        60.00596
468.11        59.31829
468.55        59.26797
468.99        59.61544
469.44        59.69941
469.88         59.4851
470.32         59.3205
470.77        59.25234
471.21        59.17505
471.65         59.1064
472.10        59.09181
472.54        59.06951
472.98        59.00669
473.42        58.91373
473.87        58.68044
474.31        58.40362
474.75        58.64177
475.20         59.2415
475.64        59.35087
476.08        59.00397
476.52        58.93655
476.97        59.12145
477.41        59.25003
477.85        59.25581
478.29        59.12713
478.74        58.30988
479.18        58.92004
479.62        58.71945
480.06        58.90108
480.50        58.83885
480.95        58.85589
481.39        58.90457
481.83        59.05345
482.27        59.08804
482.72        59.18414
483.16        59.02856
483.60        59.34448
484.04        59.28624
484.48        58.92921
484.93        58.79922
485.37        58.55957
485.81        59.41753
486.25        58.95748
486.69        59.55925
487.14        59.96721
487.58         59.5207
488.02        58.95708
488.46        58.69582
488.90         58.8092
489.34        58.74206
489.79        58.28144
490.23        58.79649
490.67        58.94398
491.11        59.11504
491.55        58.98821
491.99        58.66117
492.43        58.51412
492.88        58.56987
493.32        58.63901
493.76         58.6331
494.20        58.64262
494.64        58.68651
495.08        58.33988
495.52        58.23751
495.96        58.34638
496.41        58.71142
496.85        58.59166
497.29        58.05473
497.73        58.09724
498.17        58.36636
498.61         58.4914
499.05        58.31966
499.49        58.12726
499.93        58.01776
500.37        58.05185
500.82         58.1929
501.26        58.42776
501.70        58.64396
502.14         58.2672
502.58        57.88943
503.02        57.67236
503.46         57.7519
503.90        57.87257
504.34        57.94593
504.78        57.99176
505.22        58.00342
505.66        57.90883
506.10        57.74809
506.54        57.78637
506.98        58.07915
507.42        57.63887
507.86        58.35783
508.30        58.00594
508.74        58.24797
509.18        58.14621
509.62        58.06097
510.06        58.00393
510.50        57.95869
510.94        57.85409
511.38        57.70122
511.82        57.61473
512.26        57.60134
512.70        57.61428
513.14        57.62703
513.58        57.61177
514.02        57.55893
514.46        57.47578
514.90        57.37939
515.34         57.3425
515.78        57.38178
516.22        57.43346
516.66        57.32384
517.10         57.6419
517.54        57.41899
517.98        57.41542
518.42        57.37098
518.86        57.34737
519.30        57.35252
519.74        57.34473
520.18        57.33607
520.62        57.41239
521.06        57.52842
521.50        57.47799
521.93        57.29825
522.37        57.23014
522.81        57.29357
523.25        57.36154
523.69        57.39617
524.13        57.39304
524.57        57.34491
525.01        57.25649
525.45        57.17426
525.89        57.17126
526.32        57.25709
526.76        57.40989
527.20        57.57243
527.64        57.65673
528.08        57.63978
528.52        57.55096
528.96        57.43183
529.40        57.33997
529.83        57.29201
530.27        57.29835
530.71        57.32321
531.15         57.3083
531.59        57.24424
532.03        57.15791
532.46        57.07523
532.90        57.04632
533.34        57.07613
533.78        57.14643
534.22        57.22425
534.66        57.26181
535.09        57.23857
535.53         57.1863
535.97        57.11919
536.41        57.07518
536.85         57.0654
537.28        57.08083
537.72        57.10227
538.16        57.10091
538.60        57.06947
539.04        57.01802
539.47        56.95935
539.91        56.95833
540.35        57.00709
540.79        57.09383
541.22        57.17614
541.66        57.20122
542.10        57.15203
542.54        57.04219
542.97        56.91747
543.41        56.87776
543.85        56.93895
544.29        57.08879
544.72        57.24227
545.16        57.31852
545.60        57.28515
546.04        57.09689
546.47        56.88002
546.91        56.96341
547.35        57.29068
547.79        57.54802
548.22         57.6135
548.66        57.43103
549.10        57.09842
549.53        56.96489
549.97        57.06033
550.41        57.04469
550.84        56.92371
551.28         56.9673
551.72        57.16057
552.15        57.11756
552.59        57.38506
553.03        57.15811
553.46        57.31707
553.90        57.26438
554.34        57.21039
554.77        57.11889
555.21        57.04636
555.65        57.04824
556.08        57.11564
556.52        57.31677
556.96        57.54539
557.39         57.5204
557.83        57.28828
558.27        57.15575
558.70        57.17756
559.14        57.17739
559.57        57.15773
560.01         57.3619
560.45        57.63554
560.88        57.54376
561.32        57.19722
561.75        56.86432
562.19        56.70948
562.63        56.96688
563.06        57.46853
563.50        57.51699
563.93        57.12737
564.37        56.94429
564.80        57.00364
565.24        57.10229
565.68        57.19454
566.11        57.22475
566.55        57.20167
566.98        57.21983
567.42        57.28262
567.85        57.23511
568.29        57.14184
568.72        57.11679
569.16        57.21737
569.60        57.33781
570.03        57.36206
570.47        57.56073
570.90        57.81789
571.34         57.6133
571.77        57.95501
572.21        57.56484
572.64        57.29895
573.08        57.41109
573.51        57.46979
573.95        57.98147
574.38        57.71545
574.82        58.41238
575.25        57.98459
575.69        57.96128
576.12        57.29902
576.56        57.82157
576.99        57.91059
577.42        57.91814
577.86         58.1462
578.29        58.57648
578.73        58.83607
579.16        58.03268
579.60        57.92136
580.03        57.98602
580.47        58.33938
580.90        57.80358
581.33        57.91354
581.77        58.40815
582.20          58.403
582.64         58.4551
583.07        58.19147
583.51         58.0368
583.94        57.93653
584.37        57.78117
584.81        57.72188
585.24        57.64434
585.68        57.93976
586.11        58.00648
586.54        57.92933
586.98        57.89867
587.41         57.6748
587.85        58.02094
588.28        58.02393
588.71        58.16754
589.15        57.98271
589.58        57.85753
590.01        57.79718
590.45        57.45788
590.88        57.67759
591.31        57.40215
591.75        57.39237
592.18        57.44304
592.61        57.62019
593.05        58.01018
593.48         58.0421
593.91        57.98623
594.35        57.64741
594.78        57.87773
595.21        57.87373
595.65        57.90386
596.08        57.72977
596.51         57.9053
596.94          57.862
597.38        57.86847
597.81        57.81382
598.24        57.74324
598.68        57.40433
599.11        57.67025
599.54        58.22742
599.97        57.87073
600.41        57.92527
600.84        58.29992
601.27        58.12422
601.70        58.08461
602.14        57.82206
602.57        57.58348
603.00        57.85075
603.43        57.87072
603.87        58.09159
604.30        58.09529
604.73        58.36749
605.16        57.96004
605.60         58.1196
606.03        58.05172
606.46        58.14068
606.89        57.83342
607.32        57.60849
607.76         58.1026
608.19        58.00332
608.62        57.69418
609.05        58.51546
609.48        58.05564
609.92         58.1038
610.35        58.40455
610.78        58.09296
611.21        57.82838
611.64        58.05187
612.07        58.08898
612.50        58.12342
612.94        58.11285
613.37         58.0849
613.80         58.0088
614.23        57.89889
614.66         57.8204
615.09        57.77748
615.52        57.71348
615.96         57.6328
616.39        57.60012
616.82        57.62208
617.25        57.58866
617.68        57.62531
618.11        57.60469
618.54        57.71284
618.97        57.61176
619.40        57.36263
619.84        57.46424
620.27        57.39718
620.70        57.50523
621.13        57.62744
621.56        57.70863
621.99        57.75143
622.42        57.80756
622.85        57.85535
623.28        57.88094
623.71        57.74518
624.14        57.94099
624.57        57.45314
625.00        57.85125
625.43        57.34843
625.86        57.48033
626.29        57.81053
626.72         57.4411
627.15        57.68175
627.58        57.62465
628.01         57.7267
628.44        57.57969
628.87        57.33482
629.30        57.83463
629.73        57.55207
630.16        57.39269
630.59          57.293
631.02        57.48778
631.45        57.26496
631.88        57.29791
632.31          57.374
632.74        57.20498
633.17        57.35424
633.60        57.30181
634.03        57.22389
634.46        57.16475
634.89        57.07154
635.32        57.07663
635.75         57.1543
636.18        57.29032
636.61        57.43299
637.04        57.50292
637.47         57.4812
637.89        57.39685
638.32        57.27752
638.75        57.19429
639.18        57.16816
639.61        57.17987
640.04        57.21119
640.47        57.23233
640.90        57.23361
641.33        57.22849
641.76        57.22237
642.18        57.22726
642.61        57.23334
643.04        57.24039
643.47        57.25053
643.90        57.27431
644.33        57.31111
644.76        57.34375
645.18        57.36382
645.61        57.38292
646.04         57.3834
646.47        57.30334
646.90        57.17258
647.33        57.09783
647.75        57.08929
648.18        57.12893
648.61        57.20102
649.04        57.22122
649.47        57.16386
649.89        57.34838
650.32         57.1805
650.75        57.29145
651.18        57.44832
651.61        57.44174
652.03        57.27882
652.46        57.14714
652.89        57.14896
653.32        57.24117
653.74        57.31682
654.17        57.69796
654.60         57.3123
655.03        57.11151
655.46        56.66161
655.88        57.31579
656.31        58.86559
656.74        61.57237
657.16        60.38618
657.59        58.57116
658.02        57.56436
658.45        57.35265
658.87         57.6196
659.30        57.57582
659.73         57.6003
660.15        57.30168
660.58        57.32657
661.01        57.56105
661.44        57.96542
661.86        57.87985
662.29        57.35941
662.72        57.03743
663.14        57.02529
663.57        57.15667
664.00        57.35203
664.42        57.44952
664.85         57.4269
665.27        57.30235
665.70        57.30053
666.13        57.27634
666.55        57.30184
666.98        57.36308
667.41        57.43058
667.83        57.46223
668.26        57.45815
668.69        57.38538
669.11        57.26144
669.54        57.31827
669.96        57.60984
670.39        57.29417
670.82        57.72606
671.24        57.75078
671.67        57.74664
672.09        57.71627
672.52        57.68552
672.94        57.54855
673.37        57.35404
673.80        57.29587
674.22        57.38108
674.65        57.41633
675.07        57.40838
675.50        57.45791
675.92        57.54941
676.35         57.5843
676.77        57.54988
677.20        57.49102
677.62        57.45025
678.05        57.40984
678.47        57.36605
678.90        57.60884
679.32        57.57634
679.75        57.67686
680.17        57.73754
680.60        57.78262
681.02        57.80138
681.45         57.7886
681.87        57.75612
682.30        57.66815
682.72        57.57822
683.15        57.59291
683.57        57.67511
684.00        57.80862
684.42        57.61122
684.85        57.60936
685.27        57.68176
685.70        57.72253
686.12        57.71729
686.54        57.73528
686.97        57.77197
687.39        57.83388
687.82        57.90325
688.24        57.92358
688.66        57.86913
689.09        57.98582
689.51        57.86312
689.94         57.9249
690.36        58.03365
690.78        58.13145
691.21        58.19656
691.63        58.18904
692.06        58.14647
692.48        58.18227
692.90        58.28374
693.33        58.32076
693.75        58.29914
694.17        58.25275
694.60        58.18395
695.02        58.27772
695.44        58.26984
695.87        58.20637
696.29        58.08399
696.71        58.07153
697.14        58.18054
697.56        58.45786
697.98        58.81353
698.41        58.73969
698.83        58.79827
699.25        58.58735
699.68        58.35061
700.10        58.18136
700.52        58.12132
700.94        58.14002
701.37        58.18947
701.79        58.24536
702.21        58.27048
702.64         58.2853
703.06         58.2996
703.48          58.331
703.90        58.38605
704.33        58.45136
704.75        58.50854
705.17        58.51434
705.59        58.46131
706.01        58.35743
706.44        58.25628
706.86        58.25268
707.28        58.35001
707.70        58.54766
708.12        58.76369
708.55        58.80192
708.97         58.6589
709.39        58.51996
709.81        58.43572
710.23        58.36985
710.66        58.34858
711.08        58.43596
711.50        58.56777
711.92         58.6194
712.34        58.57063
712.76        58.45946
713.19        58.33595
713.61        58.32561
714.03        58.43024
714.45        58.62044
714.87         58.8362
715.29        58.94839
715.71        58.92594
716.13        58.96074
716.56        58.80201
716.98        58.77676
717.40        58.81184
717.82        58.88652
718.24        58.98283
718.66          59.078
719.08        59.16093
719.50         59.2374
719.92        59.29531
720.34         59.3118
720.76        59.28531
721.19        59.21336
721.61        59.13587
722.03        59.09267
722.45        59.09825
722.87        59.14693
723.29         59.2183
723.71        59.27571
724.13        59.30835
724.55        59.32212
724.97        59.34058
725.39        59.40294
725.81        59.51238
726.23        59.64986
726.65        59.77217
727.07        59.81958
727.49        59.78298
727.91        59.67174
728.33        59.53312
728.75        59.48298
729.17        59.52908
729.59        59.56471
730.01        59.58787
730.43         59.6675
730.85        59.79295
731.27        59.90366
731.69        59.98579
732.10        59.99909
732.52        60.11392
732.94        59.93848
733.36        59.60899
733.78        59.44536
734.20        59.48853
734.62        59.56627
735.04         59.6319
735.46        59.68249
735.88        59.70951
736.30         59.7182
736.72        59.68653
737.13        59.69688
737.55        59.71422
737.97        59.46085
738.39        59.09538
738.81        59.39359
739.23        60.21182
739.65        60.40734
740.06        59.95766
740.48         59.8595
740.90         60.1008
741.32        60.13353
741.74         59.9649
742.16        59.91217
742.57        60.01066
742.99        60.14917
743.41        60.30373
743.83        60.41763
744.25        60.46961
744.67        60.48267
745.08        60.48368
745.50        60.46912
745.92         60.4603
746.34        60.45745
746.75         60.4483
747.17        60.40987
747.59        60.34692
748.01        60.24118
748.42         60.1399
748.84         60.1679
749.26        60.30882
749.68        60.40088
750.09        60.40982
750.51        60.41524
750.93        60.40934
751.35        60.33633
751.76        60.23792
752.18        60.19993
752.60        60.23783
753.01        60.34774
753.43        60.44227
753.85        60.42174
754.27        60.27036
754.68        60.02475
755.10        59.79768
755.52        59.74135
755.93        59.88657
756.35        60.19069
756.77        60.56315
757.18        60.79552
757.60        60.81839
758.02         60.7969
758.43        60.84401
758.85         60.4683
759.26         60.6852
759.68        60.88834
760.10        60.60669
760.51         60.2674
760.93        60.45052
761.34        60.40673
761.76        60.72191
762.18        60.79502
762.59        60.71132
763.01        60.85244
763.42        60.44522
763.84        60.59681
764.26        60.66426
764.67        60.95583
765.09        61.24485
765.50        61.27926
765.92        61.10765
766.33        60.97249
766.75        60.93876
767.16        60.97173
767.58        61.03551
768.00        61.38189
768.41        61.84764
768.83        61.69516
769.24         60.9944
769.66         60.8417
770.07         60.4136
770.49        60.66128
770.90        61.15757
771.32        61.23043
771.73        60.89473
772.15        60.84812
772.56        61.11864
772.97        61.22836
773.39         61.1339
773.80        61.09785
774.22        61.10306
774.63        61.09773
775.05        61.07419
775.46        61.07395
775.88        61.08278
776.29        61.12571
776.70        61.17622
777.12        61.19419
777.53        61.18745
777.95        61.15879
778.36        61.12584
778.77        61.11116
779.19        61.12544
779.60        61.17173
780.02         61.2332
780.43         61.3254
780.84        61.44883
781.26        61.50568
781.67         61.5435
782.09        61.76966
782.50        62.07906
782.91        62.07177
783.33        61.78019
783.74        61.67744
784.15        61.76642
784.57        61.84796
784.98        61.89932
785.39        61.85707
785.81        61.76741
786.22        61.87108
786.63        62.12091
787.04        62.21854
787.46        62.15797
787.87        62.08245
788.28        62.03761
788.70        62.01892
789.11         62.0195
789.52        62.04436
789.93        62.08928
790.35        62.13692
790.76        62.19888
791.17        62.29106
791.58        62.37941
792.00         62.4196
792.41         62.4413
792.82        62.35633
793.23        62.26648
793.65        62.53475
794.06        63.10287
794.47        63.44596
794.88        63.49757
795.29         63.6467
795.71        63.73536
796.12        63.65351
796.53        63.38607
796.94        63.25809
797.35         63.2526
797.76        63.03586
798.18        62.67445
798.59         62.5221
799.00         62.6035
799.41        62.75346
799.82        62.88353
800.23        62.91858
800.64        62.82581
801.06        62.60427
801.47         62.3805
801.88        62.29464
802.29        62.38706
802.70        62.61492
803.11        62.89092
803.52        63.06451
803.93        63.08974
804.34        63.00682
804.75        62.89185
805.17         62.8659
805.58        62.98733
805.99        63.18024
806.40        63.37486
806.81        63.51206
807.22        63.53471
807.63        63.35965
808.04        63.09813
808.45        63.05053
808.86        63.26259
809.27        63.59133
809.68        63.93496
810.09        64.15618
810.50         64.2009
810.91        64.12008
811.32        63.95309
811.73         63.7661
812.14        63.59685
812.55        63.42248
812.96        63.29873
813.37        63.32146
813.78        63.49553
814.19         63.7914
814.60        64.09367
815.01        64.21726
815.42        64.12213
815.83        63.85737
816.24        63.51522
816.65         63.2812
817.05        63.23461
817.46        63.30068
817.87          63.458
818.28        63.62992
818.69        63.78794
819.10        63.95934
819.51        64.13497
819.92        64.28888
820.33        64.40538
820.74        64.46471
821.14        64.47844
821.55        64.49876
821.96          64.526
822.37        64.55785
822.78        64.55647
823.19        64.45654
823.60        64.24825
824.00        63.96492
824.41        63.66249
824.82         63.4926
825.23        63.49293
825.64         63.6423
826.04        63.84578
826.45        63.90808
826.86        63.80221
827.27        63.57772
827.68        63.36768
828.08        63.42814
828.49         63.7421
828.90        64.26178
829.31        64.83982
829.72        65.14672
830.12        65.11079
830.53        65.20386
830.94        64.75294
831.35        64.44598
831.75        64.14174
832.16        63.81148
832.57        63.57345
832.97        63.61797
833.38        63.95704
833.79        64.52182
834.20        65.13136
834.60         65.5069
835.01        65.57762
835.42        65.41174
835.82        65.12053
836.23        64.86668
836.64        64.73233
837.04        64.67914
837.45        64.65504
837.86        64.63023
838.26        64.60293
838.67        64.59669
839.08        64.61763
839.48        64.64647
839.89        64.67504
840.29        64.69432
840.70          64.742
841.11        64.88526
841.51        65.13766
841.92        65.43393
842.33        65.70069
842.73        65.81532
843.14        65.70955
843.54        65.46531
843.95        65.15146
844.35        64.90504
844.76         64.7674
845.17        64.70287
845.57        64.73299
845.98        64.85439
846.38        65.07054
846.79        65.35468
847.19        65.63612
847.60        65.71794
848.00        65.59876
848.41        65.29771
848.81        64.97083
849.22        64.82948
849.62        64.96998
850.03        65.28322
850.43        65.69743
850.84        65.99342
851.24        66.16019
851.65        66.20108
852.05        66.18768
852.46        66.15079
852.86        66.11613
853.27         66.0976
853.67        66.04059
854.07        66.01486
854.48        65.99261
854.88         65.9863
855.29        65.95116
855.69        65.95829
856.10        65.92571
856.50        65.93814
856.90        65.89344
857.31        65.66888
857.71        65.31161
858.12        64.81347
858.52        64.34374
858.92        64.12278
859.33        64.19347
859.73         64.5406
860.13        64.98997
860.54        65.24798
860.94        65.28266
861.34        65.11074
861.75        64.83757
862.15        64.72637
862.55        64.80035
862.96        64.97082
863.36        65.10763
863.76         64.9521
864.17        64.45869
864.57        63.76134
864.97         63.0289
865.38        62.51911
865.78        62.36197
866.18        62.48153
866.58        62.84066
866.99        63.31794
867.39        63.85895
867.79        64.46009
868.19        65.01508
868.60        65.29192
869.00        65.34106
869.40        65.37419
869.80        65.40768
870.21        65.28786
870.61        65.08934
871.01        64.93135
871.41        64.78293
871.81        64.50013
872.22        64.09461
872.62        63.61562
873.02        63.19128
873.42        63.22552
873.82        63.57688
874.22        63.63952
874.63        63.53251
875.03         63.5462
875.43        63.68052
875.83        64.73728
876.23        64.04468
876.63        63.29112
877.03        62.25512
877.44        60.31236
877.84        170.2528
878.24        61.85167
878.64          62.827
879.04        64.48785
879.44        65.10948
879.84        61.93687
880.24        66.99973
880.64         67.2761
881.04        64.98896
881.44         63.2329
881.84        62.56445
882.24        63.11101
882.65        64.23031
883.05        64.48708
883.45        63.60518
883.85        62.45834
884.25        61.56997
884.65        61.35997
885.05        61.95071
885.45        63.09616
885.85        64.32538
886.25        64.98956
886.65        64.94456
887.05        64.40813
887.45        63.63787
887.85         63.0722
888.25        62.87474
888.65        62.89749
889.04        63.10876
889.44         63.4631
889.84         63.8852
890.24        64.39054
890.64         64.8301
891.04        64.96903
891.44        64.78296
891.84        64.33848
892.24        63.79722
892.64        63.46077
893.04        63.42685
893.44        63.61149
893.83        63.94288
894.23        64.27325
894.63        64.55546
895.03        64.83331
895.43        65.07222
895.83        65.20385
896.23        65.22653
896.63        65.15061
897.02        65.03345
897.42        65.03643
897.82        65.15659
898.22        65.33894
898.62        65.53133
899.01        65.65269
899.41        65.65172
899.81        65.58549
900.21        65.42029
900.61        65.09517
901.00        64.62303
901.40        64.10583
901.80        63.70942
902.20        63.55482
902.59         63.6504
902.99        64.19749
903.39        65.15151
903.79        64.80791
904.18        65.65064
904.58        65.67592
904.98        65.56714
905.38        65.14479
905.77         64.4423
906.17        63.54396
906.57        62.68183
906.96        62.34465
907.36        62.63371
907.76        63.42895
908.15        64.49029
908.55        65.24598
908.95        65.55882
909.34        65.50624
909.74        65.27793
910.14        65.15743
910.53        65.22786
910.93        65.38548
911.33        65.47441
911.72        65.25816
912.12        64.72227
912.52        63.99524
912.91        63.28032
913.31        62.95915
913.70        63.08506
914.10        63.52692
914.49        64.12569
914.89        64.52362
915.29        64.63441
915.68        64.55577
916.08        64.36651
916.47        64.14931
916.87        63.98634
917.26        63.82645
917.66        63.75634
918.05        63.94489
918.45        64.37737
918.84        65.01331
919.24        65.65295
919.64        66.01862
920.03        66.04043
920.42        65.77916
920.82         65.3552
921.21        64.98981
921.61        64.78794
922.00        64.75839
922.40        64.92605
922.79        65.18359
923.19        65.13535
923.58        65.66695
923.98        67.12975
924.37        67.12325
924.77        64.29414
925.16        72.06985
925.55        66.06472
925.95        66.55953
926.34        66.62072
926.74        66.08112
927.13        64.89131
927.52        64.12342
927.92        64.24129
928.31        64.63693
928.70        65.18628
929.10        65.62871
929.49        65.90813
929.89        66.12189
930.28        66.20121
930.67        65.92565
931.07        65.31686
931.46        64.34393
931.85        63.37607
932.24        63.48228
932.64        64.80483
933.03        66.42686
933.42        67.47744
933.82        69.97495
934.21        68.57062
934.60        67.44845
934.99        66.26905
935.39        66.05223
935.78        66.83071
936.17        68.92498
936.56        75.08732
936.96         68.3575
937.35        71.75934
937.74        68.23335
938.13        65.52437
938.53        63.42962
938.92        62.78373
939.31        64.05058
939.70        65.88721
940.09        66.93224
940.49        66.86813
940.88        66.16815
941.27        65.22943
941.66        64.78009
942.05        65.08478
942.44        65.81873
942.84        66.60397
943.23        67.03796
943.62        66.99933
944.01        66.62704
944.40        66.21436
944.79        66.22968
945.18        66.76923
945.57        67.65781
945.97        68.47605
946.36        68.69365
946.75        68.15085
947.14         67.0349
947.53        65.75095
947.92        65.00121
948.31        64.99685
948.70        65.52122
949.09        66.23797
949.48        66.62178
949.87        66.53053
950.26        66.14391
950.65        65.63487
951.04        65.27482
951.43        65.15558
951.82        65.15839
952.21        65.23139
952.60        65.31652
952.99        65.36239
953.38        65.39132
953.77        65.36443
954.16        65.19477
954.55        64.88931
954.94        64.50977
955.33        64.09743
955.72        63.74929
956.11        63.52759
956.50        63.38675
956.89         63.4689
957.28        63.98374
957.66         64.9333
958.05        66.14942
958.44        67.25105
958.83        67.66335
959.22        67.27798
959.61        66.21999
960.00        64.89826
960.39        64.14101
960.78          64.223
961.16        64.93192
961.55        65.77075
961.94        66.14519
962.33        65.93369
962.72        65.33744
963.11         64.6166
963.49        64.29794
963.88        64.55166
964.27        65.13683
964.66        65.82835
965.04        66.36749
965.43        66.61813
965.82        66.72775
966.21        66.66002
966.60        66.34739
966.98        65.82489
967.37         65.0992
967.76        64.40746
968.15        64.14087
968.53        64.40361
968.92        65.09355
969.31        65.91586
969.69        66.35229
970.08        66.23285
970.47        65.68027
970.86        65.01243
971.24        64.79479
971.63        65.14665
972.02        65.88026
972.40         66.6485
972.79        66.85915
973.17        66.45866
973.56        65.64694
973.95        64.78008
974.33        64.47656
974.72        64.90491
975.11        65.82021
975.49        67.01289
975.88        68.06816
976.26        68.88099
976.65        69.48911
977.04        69.81894
977.42        69.72264
977.81        69.16896
978.19         68.1273
978.58         67.0898
978.96        66.91965
979.35        67.76466
979.74        69.28018
980.12        70.83025
980.51        71.42416
980.89        71.03735
981.28        69.84918
981.66         68.2114
982.05        67.08783
982.43        66.87934
982.82        67.35609
983.20        68.18319
983.59         68.7966
983.97        69.06013
984.35        69.11786
984.74        68.99564
985.12        68.80442
985.51        68.58117
985.89         68.3644
986.28        68.15314
986.66         68.0291
987.04         68.0569
987.43        68.11973
987.81        68.06608
988.20        69.07512
988.58        71.23328
988.96        71.84216
989.35        70.11579
989.73        75.79932
990.12        72.17168
990.50        72.07907
990.88        71.23771
991.27        70.66922
991.65        70.45898
992.03        70.69563
992.42        71.28745
992.80        71.48047
993.18         71.1119
993.56          70.409
993.95        69.63927
994.33        69.19875
994.71        69.22148
995.10        69.55821
995.48        70.05801
995.86        70.47044
996.24        70.70605
996.63        70.77306
997.01        70.84685
997.39        70.99953
997.77        71.22562
998.15        71.44655
998.54        71.62821
998.92        71.62393
999.30        71.45578
999.68        71.23466
1000.06        70.95462
1000.45        70.56457
1000.83        70.23721
1001.21        69.99284
1001.59         70.1262
1001.97        71.05153
1002.35        72.64569
1002.73        74.54517
1003.12         76.3169
1003.50        77.49432
1003.88        77.98164
1004.26        77.96511
1004.64        77.39087
1005.02        76.21989
1005.40         74.5644
1005.78        72.44978
1006.16        70.46245
1006.54        69.51257
1006.92        69.81218
1007.30        71.24339
1007.69        72.95897
1008.07         73.7515
1008.45         73.3331
1008.83        71.94884
1009.21        70.45762
1009.59         70.6299
1009.97        72.74763
1010.35        75.82005
1010.73        78.68614
1011.11         80.4024
1011.49        80.99339
1011.86        80.55874
1012.24        79.15648
1012.62        79.96951
1013.00        80.63354
1013.38        80.69728
1013.76        78.82352
1014.14        82.42287
1014.52        87.68729
1014.90        80.58581
1015.28        81.36645
1015.66        82.38541
1016.04        78.82401
1016.41        79.03137
1016.79        78.29095
1017.17        78.13931
1017.55         78.0155
1017.93        78.12266
1018.31        78.80828
1018.69        80.06551
1019.06        81.79599
1019.44         83.7616
1019.82        85.30192
1020.20        85.55817
1020.58        84.37711
1020.95        81.68941
1021.33        78.10182
1021.71        75.91041
1022.09        76.45387
1022.46        78.77615
1022.84        81.43208
1023.22        83.35727
1023.60        84.54478
1023.97        85.42814
1024.35        86.03894
1024.73        86.30012
