SpectraSmart Spectrum 2.9.0.0
--------- Device Information -----------
Spectrum Name :  反射率_0
Saving Time :  2024/04/21 00:56:20
Spectro-Module Model Name : SE2030-DUVN
Spectro-Module Serial Number : OS361AC55029948
Wavelength Start : 200
Wavelength End : 1025
Wavelength Unit : Wavelength(nm)
Spectrum Unit : Reflectance(%)
-----------Spectrum Setting ------------
Integration Time : 20ms
Average : 10
Boxcar : 0
Background removal :  enabled
linearity correction :  enabled
SC :  disabled
Intensity correction :  disabled
DWT denoise :  enabled
savitzky-golay :  disabled
FFT :  disabled
Running average :  disabled
Kalman :  disabled
High pass :  disabled
---------------BEGIN--------------------
Wavelength(nm)             Reflectance(%)
200.29               0
200.75       -78.61636
201.21       -6.491649
201.67        32.68393
202.13        46.33989
202.58          44.993
203.04        34.03357
203.50        17.10418
203.96        5.309319
204.42        4.485553
204.88        10.08174
205.34        17.07776
205.80        18.21115
206.26          11.162
206.72      -0.4760984
207.18       -17.13195
207.64       -38.53875
208.10       -59.08862
208.55        -78.2905
209.01       -76.78785
209.47       -39.57217
209.93        1.762091
210.39        32.22189
210.85        50.42776
211.31        57.28679
211.77        55.69849
212.23        46.02061
212.69        23.09671
213.14       -20.40335
213.60       -98.74657
214.06       -315.9181
214.52       -781.7946
214.98       -328.5538
215.44       -74.94265
215.90        7.155002
216.36        34.13145
216.81        38.18124
217.27        25.14505
217.73       -48.19551
218.19        849.5056
218.65        376.4138
219.11       -779.0993
219.57       -18.69462
220.02        29.77997
220.48        38.32389
220.94        33.55555
221.40        14.29722
221.86        -32.2142
222.32       -62.47812
222.77       -20.89826
223.23        15.36678
223.69        32.92809
224.15        37.14436
224.61        33.93622
225.06        26.96221
225.52        18.02134
225.98        9.870481
226.44        4.106885
226.90       -1.125697
227.36        -2.59335
227.81         4.43714
228.27        15.41436
228.73         26.0409
229.19        32.69223
229.65        33.51897
230.10        29.50974
230.56        22.08599
231.02        12.67555
231.48        6.821184
231.93        8.266333
232.39        14.75293
232.85        21.83197
233.31        25.80514
233.77         26.9409
234.22        26.95718
234.68        26.22865
235.14        25.35643
235.60        24.97287
236.05        24.03158
236.51        22.95927
236.97        28.36604
237.43        40.32096
237.88         49.0651
238.34        51.13591
238.80        69.95929
239.26        61.94975
239.71        58.35212
240.17        48.05598
240.63        37.87518
241.08         33.4237
241.54        38.32029
242.00         51.6013
242.46        61.34997
242.91        64.66596
243.37        62.77983
243.83        57.75293
244.28        57.03996
244.74        63.96732
245.20        73.67866
245.66        81.14174
246.11        81.91889
246.57        75.88692
247.03        64.70757
247.48        50.81287
247.94        38.34148
248.40         27.4188
248.85        11.33577
249.31       -23.69128
249.77       -36.78278
250.22        18.69847
250.68        38.42528
251.14        44.40071
251.59        46.33932
252.05        47.24717
252.51        48.38979
252.96         48.8269
253.42        47.61827
253.88        45.02086
254.33        41.78172
254.79        43.64174
255.25        52.31725
255.70        62.47777
256.16        71.12455
256.62        75.85735
257.07        75.41608
257.53        72.20387
257.99        67.89725
258.44         63.8289
258.90        61.89577
259.35        61.28172
259.81        61.42613
260.27        61.57922
260.72        61.10903
261.18        60.36185
261.63        59.35551
262.09        58.27808
262.55        56.79669
263.00        54.91639
263.46         52.9641
263.91        51.12337
264.37        50.10427
264.83        49.81003
265.28          49.907
265.74        50.11674
266.19        49.85667
266.65        49.10796
267.11        48.00404
267.56         46.6801
268.02         45.4399
268.47        44.32553
268.93        43.28642
269.38        42.26843
269.84        41.26454
270.30        40.25702
270.75         39.2826
271.21        38.37133
271.66        37.48036
272.12        36.63467
272.57         35.8101
273.03        35.04475
273.48        34.34755
273.94        33.74138
274.39        33.19069
274.85        32.68231
275.31        32.12512
275.76        31.50371
276.22        30.88054
276.67        30.31165
277.13        29.96136
277.58        29.78979
278.04        29.75495
278.49        29.69766
278.95         29.4844
279.40        29.04624
279.86        28.48205
280.31        27.83231
280.77        27.24836
281.22        26.73679
281.68        26.32018
282.13        25.94232
282.59        25.60225
283.04        25.26913
283.50        24.97776
283.95        24.75644
284.41        24.67438
284.86        24.71908
285.32        24.87389
285.77        25.03671
286.22        25.08442
286.68        25.01606
287.13        24.83048
287.59        24.67144
288.04        24.64846
288.50        24.75999
288.95        25.07626
289.41        25.52132
289.86        25.50261
290.32        24.92699
290.77        25.73476
291.22        24.83974
291.68        24.95734
292.13        25.19405
292.59        25.60974
293.04         26.1685
293.50        26.88517
293.95        27.76519
294.40        28.78105
294.86         29.9133
295.31        31.11685
295.77        32.36736
296.22        33.64517
296.68        34.94393
297.13        36.25426
297.58        37.59141
298.04        38.96037
298.49        40.37924
298.95        41.89661
299.40        43.50389
299.85        45.20324
300.31        46.95206
300.76        48.65662
301.21        50.31225
301.67        51.96502
302.12        53.66624
302.58        55.60037
303.03        57.75797
303.48        60.12259
303.94        62.57747
304.39        64.88795
304.84        67.00489
305.30        68.99902
305.75        70.93526
306.20        73.02656
306.66        75.30785
307.11         77.6534
307.57        79.96439
308.02        82.01827
308.47        83.80254
308.93        85.42293
309.38        86.94717
309.83         88.5476
310.29        90.30821
310.74        92.10844
311.19        93.87766
311.65        95.47504
312.10        96.84648
312.55        98.04642
313.00        99.13988
313.46        100.2308
313.91        101.3327
314.36        102.4248
314.82        103.4772
315.27        104.4358
315.72        105.3017
316.18        106.0981
316.63        106.8602
317.08        107.6416
317.53        108.4447
317.99        109.2383
318.44        109.9756
318.89        110.5713
319.35         111.005
319.80        111.3156
320.25        111.5468
320.70         111.776
321.16        112.0239
321.61        112.2916
322.06        112.5706
322.51        112.8522
322.97        113.1176
323.42          113.42
323.87        113.7306
324.32        114.0171
324.78        114.2527
325.23        114.4773
325.68        114.7133
326.13        115.0362
326.59        115.4302
327.04        115.9321
327.49        116.4404
327.94        116.8241
328.39        117.0524
328.85        117.1273
329.30        117.2162
329.75        117.4549
330.20         117.888
330.66         118.431
331.11        119.0597
331.56        119.5764
332.01        119.9359
332.46        120.1934
332.92         120.373
333.37        120.6763
333.82        121.0991
334.27        121.6008
334.72        122.1652
335.17        122.7691
335.63        123.3581
336.08         124.006
336.53        124.6472
336.98        125.2229
337.43        125.7168
337.88        126.1322
338.34        126.4801
338.79        126.8587
339.24        127.2618
339.69         127.675
340.14         128.079
340.59         128.444
341.05         128.768
341.50        129.0801
341.95        129.4025
342.40        129.7693
342.85        130.1907
343.30        130.6562
343.75        131.1422
344.20         131.616
344.66        132.0716
345.11        132.4875
345.56        132.8787
346.01        133.2729
346.46        133.6765
346.91        134.0428
347.36        134.3169
347.81        134.5289
348.26        134.6936
348.72        134.4219
349.17        134.4981
349.62        134.4485
350.07        134.5178
350.52        134.6545
350.97        134.7956
351.42        134.8225
351.87        134.6934
352.32        134.4471
352.77        134.1308
353.22        133.8132
353.67        133.5162
354.13        133.2399
354.58        132.9219
355.03        132.5237
355.48        132.0425
355.93        131.4982
356.38        130.9591
356.83        130.5219
357.28        130.1889
357.73        129.9155
358.18        129.5956
358.63        129.0671
359.08        128.3003
359.53         127.356
359.98        126.3371
360.43        125.3964
360.88         124.575
361.33        123.8315
361.78        123.1159
362.23        122.3482
362.68        121.5099
363.13        120.6372
363.58        119.7571
364.03        118.9038
364.48        118.0851
364.93        117.2814
365.38        116.4826
365.83        115.6821
366.28        114.8724
366.73          114.05
367.18        113.2166
367.63        112.3736
368.08        111.5283
368.53        110.6995
368.98        109.8621
369.43        108.9635
369.88        107.9973
370.33        106.9712
370.78        105.9747
371.23        105.1807
371.68        104.6243
372.13        104.2406
372.58        103.9011
373.03        103.3876
373.48        102.6411
373.93        101.7427
374.38        100.7492
374.83        99.77106
375.28        98.87875
375.72          98.024
376.17        97.31714
376.62        96.83099
377.07         96.5386
377.52        96.39372
377.97        96.23978
378.42         95.8224
378.87         95.1006
379.32        94.17483
379.77         93.1833
380.22        92.32085
380.67        91.62534
381.11         91.0185
381.56        90.46323
382.01        89.99256
382.46        89.49494
382.91         89.0879
383.36        88.67692
383.81        88.15199
384.26        87.49963
384.71        86.74582
385.15        86.00202
385.60        85.51462
386.05        85.29465
386.50        85.26939
386.95        85.27686
387.40        85.06772
387.85        84.59641
388.29        83.90257
388.74        83.23605
389.19        82.72044
389.64        82.38039
390.09        82.14971
390.54        81.94363
390.98        81.61808
391.43        81.19429
391.88        80.71924
392.33        80.26851
392.78        79.93493
393.23        79.72848
393.67        79.58173
394.12        79.51766
394.57        79.34644
395.02        79.05848
395.47        78.77113
395.91        78.51138
396.36        78.21279
396.81        77.90781
397.26        77.66631
397.71        77.47211
398.15        77.22708
398.60        77.00544
399.05        76.76057
399.50        76.54285
399.95        76.41952
400.39        76.38051
400.84        76.38074
401.29        76.33407
401.74        75.92946
402.18        75.25986
402.63        74.82931
403.08         74.6462
403.53        74.30817
403.97        73.82227
404.42        73.46777
404.87        73.29118
405.32         73.2312
405.76        73.25963
406.21        73.46106
406.66        73.69752
407.11        73.57939
407.55        73.15058
408.00        72.86726
408.45        72.78726
408.90        72.44815
409.34         71.9507
409.79        71.90719
410.24         72.1929
410.68        72.19501
411.13        71.87198
411.58        71.51596
412.03        71.21637
412.47        71.04369
412.92        71.01559
413.37        71.10924
413.81        71.24972
414.26         71.3905
414.71        71.48421
415.15        71.55898
415.60        71.57288
416.05        71.52275
416.49        71.41198
416.94        71.22923
417.39        71.01382
417.83        70.81734
418.28        70.66232
418.73        70.55071
419.17        70.45075
419.62        70.31347
420.07        70.12737
420.51        69.89977
420.96        69.72491
421.41        69.65144
421.85        69.65016
422.30        69.85004
422.74        70.09937
423.19        70.02866
423.64        69.71069
424.08        69.81678
424.53        70.24033
424.98        70.36664
425.42        70.16935
425.87        69.92512
426.31        69.75107
426.76        69.79275
427.21        70.03587
427.65        70.18684
428.10        70.08216
428.54        70.16137
428.99         69.8237
429.44        69.40903
429.88        68.88952
430.33        68.81926
430.77        69.06587
431.22        69.30946
431.66        69.44714
432.11        69.45003
432.56        69.35252
433.00        69.31219
433.45        69.21239
433.89          69.171
434.34        69.20193
434.78        69.08973
435.23        68.10413
435.67        69.53298
436.12        69.52424
436.57        69.78523
437.01         69.3392
437.46        69.08762
437.90         69.8355
438.35        69.50375
438.79        69.83051
439.24         69.7228
439.68        69.64564
440.13        69.46352
440.57         69.2505
441.02         69.2996
441.46         69.5541
441.91        69.65939
442.35        69.57516
442.80        69.92686
443.24        70.53267
443.69        70.59599
444.13        70.13555
444.58        69.87309
445.02        69.72055
445.47        69.87331
445.91        70.15318
446.36        70.22277
446.80        70.03976
447.24        69.78065
447.69        69.56676
448.13        69.65877
448.58        69.83641
449.02        69.95214
449.47        69.91083
449.91        69.88151
450.36        69.86893
450.80         69.6863
451.25        69.41272
451.69        69.28448
452.13        69.29348
452.58        69.17205
453.02        68.92485
453.47        68.78791
453.91        68.75085
454.36        68.69281
454.80         68.5951
455.24        68.49236
455.69        68.39433
456.13         68.2812
456.58        68.16881
457.02        68.07734
457.46        67.66719
457.91        67.72675
458.35        67.76376
458.79        67.75274
459.24         67.5934
459.68        67.45753
460.13        67.39952
460.57        67.21807
461.01        66.91849
461.46        66.98505
461.90        66.71133
462.34        66.51361
462.79        66.04102
463.23        66.16128
463.68        66.80049
464.12        66.65508
464.56        65.91177
465.01        65.93336
465.45        66.50456
465.89        66.51244
466.34        66.02269
466.78        65.69099
467.22        65.59542
467.67        65.67207
468.11        65.49285
468.55        65.50584
468.99        65.53043
469.44        65.47616
469.88         65.3232
470.32        65.07824
470.77        64.80324
471.21         64.6021
471.65        64.49897
472.10        64.46837
472.54        64.46029
472.98        64.40204
473.42        64.27903
473.87        64.17722
474.31        64.08902
474.75        63.99651
475.20        63.93606
475.64        64.06376
476.08        64.31767
476.52        64.40273
476.97          64.237
477.41         64.2059
477.85        64.35973
478.29        63.84885
478.74        63.29505
479.18        64.03008
479.62        63.74001
480.06        63.92651
480.50        63.86652
480.95        63.84089
481.39        63.80603
481.83        63.83107
482.27        64.31324
482.72        63.86491
483.16        64.14644
483.60        64.46337
484.04        64.44627
484.48         64.1038
484.93        63.87951
485.37        63.89981
485.81        63.73438
486.25        63.53969
486.69        65.26868
487.14        65.75324
487.58        64.42447
488.02        63.96875
488.46        63.89926
488.90        63.32591
489.34        63.43327
489.79        62.75436
490.23        63.41043
490.67        63.57858
491.11        63.69249
491.55        63.49267
491.99        63.08886
492.43        62.91373
492.88        62.99654
493.32        63.13532
493.76         63.2025
494.20        63.23529
494.64        63.23958
495.08        62.81206
495.52        62.58389
495.96        62.70049
496.41        63.16979
496.85        63.14076
497.29        62.63336
497.73        62.58886
498.17        62.67517
498.61         62.8051
499.05        62.79057
499.49        62.55826
499.93        62.23171
500.37        62.19931
500.82        62.44579
501.26        62.69722
501.70        62.84439
502.14        62.59224
502.58        62.53674
503.02        62.10388
503.46        62.28514
503.90        62.21942
504.34        62.13342
504.78         62.1024
505.22        62.13609
505.66        62.13599
506.10         62.0933
506.54        62.20406
506.98        62.44145
507.42        62.21548
507.86        62.21187
508.30        62.13383
508.74        62.06025
509.18        61.96946
509.62        61.83847
510.06        61.77084
510.50         61.7506
510.94        61.69308
511.38        61.60113
511.82        61.54078
512.26         61.5111
512.70        61.47061
513.14        61.42191
513.58        61.38853
514.02        61.37186
514.46        61.36632
514.90        61.35213
515.34        61.33567
515.78        61.31943
516.22        61.27469
516.66         61.0677
517.10        61.31902
517.54        61.15428
517.98        61.24811
518.42        61.31527
518.86        61.33766
519.30         61.3046
519.74        61.19401
520.18        61.06758
520.62        61.09501
521.06        61.24529
521.50        61.27572
521.93        61.17569
522.37        61.12358
522.81        61.12288
523.25        61.06382
523.69        60.95997
524.13        60.88823
524.57        60.85785
525.01        60.84705
525.45        60.85255
525.89        60.86917
526.32        60.88891
526.76        60.91829
527.20         60.9477
527.64        60.96257
528.08        60.96009
528.52        60.94766
528.96        60.92995
529.40        60.90815
529.83        60.88363
530.27         60.8834
530.71        60.89891
531.15        60.91646
531.59        60.93533
532.03         60.9511
532.46        60.94941
532.90        60.95407
533.34        60.96725
533.78        60.85834
534.22        60.86838
534.66        60.79425
535.09        60.70402
535.53         60.6201
535.97        60.54996
536.41        60.51545
536.85        60.51828
537.28        60.55196
537.72         60.6026
538.16        60.64802
538.60        60.67766
539.04        60.69759
539.47        60.69006
539.91        60.68018
540.35        60.65627
540.79        60.61986
541.22        60.58142
541.66        60.57156
542.10        60.59112
542.54        60.63198
542.97        60.67123
543.41        60.70296
543.85        60.71251
544.29        60.71137
544.72        60.69148
545.16        60.66814
545.60        60.63039
546.04        60.58487
546.47        60.55121
546.91        60.52003
547.35        60.50107
547.79        60.60565
548.22        60.74898
548.66         60.6715
549.10        60.42851
549.53        60.35096
549.97        60.45025
550.41        60.45174
550.84        60.32946
551.28        60.30502
551.72        60.41931
552.15        60.39933
552.59        60.19939
553.03        60.73834
553.46        60.65134
553.90        60.39344
554.34        60.49783
554.77        60.33295
555.21         60.2608
555.65        59.97908
556.08        60.19253
556.52        60.29759
556.96        60.42501
557.39        60.54149
557.83        60.61202
558.27         60.5114
558.70        60.28795
559.14        60.16067
559.57        60.14302
560.01        60.18184
560.45        60.21638
560.88        60.16539
561.32        60.07991
561.75        59.96709
562.19        59.90467
562.63        60.00774
563.06        60.21165
563.50        60.22131
563.93        60.04055
564.37        59.99238
564.80        60.05989
565.24        60.09423
565.68        60.09047
566.11        60.10955
566.55        60.16719
566.98        60.26125
567.42        60.38258
567.85        60.37186
568.29        60.28302
568.72          60.318
569.16        60.53175
569.60         60.5598
570.03        60.50818
570.47        60.90504
570.90         60.8406
571.34        60.96046
571.77        61.11121
572.21        61.23241
572.64        61.28972
573.08        60.86963
573.51        61.10525
573.95        61.48636
574.38        61.39883
574.82        61.81026
575.25        61.85228
575.69        62.09802
576.12        61.21178
576.56        61.41385
576.99        61.14348
577.42        61.45871
577.86        61.47707
578.29        61.89575
578.73        62.35129
579.16        61.97871
579.60         61.5898
580.03        61.53116
580.47        61.41934
580.90        61.31561
581.33        61.82098
581.77        61.76134
582.20        62.40859
582.64        62.59213
583.07        62.27213
583.51        61.72671
583.94        61.34845
584.37         61.0419
584.81         60.9199
585.24        61.09782
585.68        61.76228
586.11        61.74302
586.54        61.70656
586.98        61.40481
587.41         61.1873
587.85        61.56001
588.28        61.91268
588.71        61.59843
589.15        61.66619
589.58        61.05154
590.01        60.74713
590.45        60.68106
590.88        60.80309
591.31        60.53556
591.75        60.47622
592.18        60.40091
592.61        60.53033
593.05        60.90899
593.48         60.9538
593.91         61.4609
594.35        61.03368
594.78        61.05747
595.21         60.6395
595.65        60.77382
596.08        61.24871
596.51        60.78666
596.94        60.82763
597.38        60.60161
597.81         60.6073
598.24        60.67489
598.68        60.31957
599.11        60.64375
599.54        60.97318
599.97        61.01703
600.41        61.03292
600.84        60.77619
601.27         61.3137
601.70         60.8924
602.14        60.83864
602.57        60.60169
603.00        60.53939
603.43        60.85567
603.87        61.11422
604.30        61.11596
604.73        61.19158
605.16        60.59053
605.60        60.73859
606.03        60.74797
606.46         60.9982
606.89        60.54967
607.32        60.19365
607.76          60.725
608.19        60.43071
608.62        60.38488
609.05        60.95436
609.48        60.48646
609.92        60.56612
610.35        60.56627
610.78        60.74809
611.21        60.72806
611.64         60.6335
612.07        60.60805
612.50        60.71357
612.94        60.60857
613.37        60.25919
613.80        60.66905
614.23        60.33838
614.66        60.15649
615.09        59.95631
615.52        59.98576
615.96        60.25021
616.39        60.28006
616.82        60.04066
617.25         60.1445
617.68        59.90292
618.11        59.84682
618.54        59.92787
618.97        59.90081
619.40        59.79247
619.84        59.75496
620.27        59.74624
620.70        59.63186
621.13        59.45881
621.56        59.41157
621.99        59.50974
622.42        59.71529
622.85        59.93854
623.28        59.78194
623.71        60.04317
624.14        59.77745
624.57        59.69901
625.00        60.14244
625.43        59.58123
625.86         59.6535
626.29        59.86728
626.72        59.73497
627.15        59.73124
627.58        59.76468
628.01        60.02099
628.44        59.56845
628.87        59.17809
629.30        59.57058
629.73          59.477
630.16        59.43935
630.59        59.21948
631.02          59.411
631.45        59.22367
631.88         59.2963
632.31        59.40194
632.74        59.25222
633.17        59.42283
633.60        59.36288
634.03        59.25463
634.46        59.14858
634.89         58.9952
635.32        58.94271
635.75        58.97176
636.18        59.06552
636.61         59.1876
637.04        59.28173
637.47        59.32802
637.89        59.34841
638.32        59.34216
638.75        59.31053
639.18        59.25742
639.61        59.22405
640.04        59.23327
640.47        59.09272
640.90        59.17461
641.33        59.17848
641.76        59.20415
642.18        59.22929
642.61        59.23658
643.04        59.23476
643.47        59.21811
643.90        59.19237
644.33        59.16118
644.76        59.11311
645.18         59.0659
645.61         59.0698
646.04        59.11742
646.47        59.14108
646.90        59.13997
647.33        59.16572
647.75        59.20282
648.18        59.23635
648.61        59.28033
649.04        59.27284
649.47        59.19433
649.89        59.44498
650.32        59.34324
650.75        59.27773
651.18        59.08395
651.61        58.92583
652.03        58.84345
652.46         58.8144
652.89        58.87378
653.32        58.96376
653.74        59.03687
654.17         59.2414
654.60        59.06006
655.03        58.90131
655.46        58.67913
655.88        59.53627
656.31        61.66594
656.74        65.90696
657.16        64.62492
657.59        62.84761
658.02        60.44637
658.45        59.99187
658.87        59.72527
659.30        59.31878
659.73        59.35883
660.15        58.87212
660.58        59.45991
661.01        59.74242
661.44        59.94641
661.86        59.78015
662.29        59.31518
662.72         59.0103
663.14        58.94654
663.57        58.96391
664.00        59.01614
664.42        59.05212
664.85        59.05981
665.27        58.98223
665.70        59.02139
666.13         59.0213
666.55        59.04733
666.98        59.08186
667.41        59.12025
667.83        59.16925
668.26        59.23052
668.69         59.2418
669.11        59.19896
669.54        59.28813
669.96        59.55301
670.39        59.20821
670.82        59.63467
671.24        59.48173
671.67        59.22239
672.09        59.13351
672.52        59.24262
672.94        59.28214
673.37        59.23163
673.80        59.20232
674.22        59.21371
674.65         59.2319
675.07        59.27208
675.50        59.31182
675.92        59.34998
676.35         59.3722
676.77        59.37042
677.20        59.41219
677.62        59.42401
678.05        59.43641
678.47        59.40965
678.90        59.63931
679.32        59.59023
679.75        59.65193
680.17        59.65925
680.60        59.62771
681.02         59.5777
681.45         59.5222
681.87         59.4733
682.30        59.48715
682.72        59.54373
683.15        59.40724
683.57        59.12879
684.00         59.2246
684.42         59.3077
684.85        59.41478
685.27        59.41171
685.70        59.47369
686.12        59.57035
686.54        59.61475
686.97        59.59447
687.39        59.55812
687.82        59.52055
688.24        59.48688
688.66        59.44824
689.09        59.61615
689.51        59.53252
689.94        59.63113
690.36        59.73209
690.78        59.67627
691.21         59.5096
691.63        59.40628
692.06        59.43104
692.48        59.60395
692.90        59.84539
693.33        59.93661
693.75        59.85514
694.17        59.70182
694.60        59.46915
695.02        59.49622
695.44        59.51596
695.87        59.56737
696.29        59.58908
696.71        59.61623
697.14        59.66172
697.56        59.91158
697.98        60.28951
698.41        60.20067
698.83         60.2278
699.25        60.00846
699.68        59.78505
700.10        59.61462
700.52        59.53475
700.94        59.52671
701.37        59.54932
701.79        59.58797
702.21        59.60886
702.64        59.63107
703.06        59.65434
703.48        59.68222
703.90        59.71946
704.33        59.75566
704.75        59.79361
705.17         59.8238
705.59        59.84627
706.01        59.86013
706.44        59.88464
706.86        59.96703
707.28        60.09798
707.70        60.26219
708.12        60.42128
708.55        60.50919
708.97        60.50423
709.39        60.42989
709.81        60.32116
710.23        60.24504
710.66        60.22682
711.08        60.26471
711.50        60.30745
711.92        60.28856
712.34        60.19732
712.76        60.05441
713.19         59.9152
713.61        59.91519
714.03        60.05155
714.45        60.29198
714.87        60.55277
715.29         60.6647
715.71        60.58996
716.13        60.53708
716.56        60.27013
716.98        60.16451
717.40        60.15844
717.82        60.21833
718.24         60.3199
718.66        60.42794
719.08        60.52447
719.50        60.62296
719.92         60.6965
720.34        60.69687
720.76        60.62169
721.19         60.4748
721.61        60.32961
722.03        60.28201
722.45        60.35817
722.87        60.53522
723.29         60.7539
723.71        60.91263
724.13        60.98088
724.55        60.97998
724.97        60.95996
725.39        61.00625
725.81        61.13428
726.23        61.30796
726.65         61.4654
727.07        61.51791
727.49        61.45129
727.91        61.29282
728.33        61.10147
728.75        61.00822
729.17         61.0289
729.59        61.05099
730.01        61.08104
730.43        61.19896
730.85        61.38932
731.27        61.58916
731.69        61.75133
732.10        61.77292
732.52        61.82556
732.94        61.54179
733.36         61.0982
733.78        60.87033
734.20        60.92624
734.62        61.09006
735.04        61.28399
735.46        61.45435
735.88        61.56059
736.30        61.59345
736.72        61.56826
737.13        61.57754
737.55        61.56123
737.97        61.42348
738.39        61.21431
738.81        61.02028
739.23        60.92741
739.65        61.17363
740.06        61.59035
740.48        61.78636
740.90         61.6955
741.32        61.52531
741.74        61.37512
742.16        61.32973
742.57        61.44029
742.99        61.65472
743.41        61.89323
743.83         62.0147
744.25        61.98234
744.67        61.83216
745.08        61.65178
745.50        61.54786
745.92        61.56762
746.34        61.67611
746.75        61.79695
747.17        61.80589
747.59        61.68642
748.01        61.45692
748.42        61.22215
748.84         61.2075
749.26        61.42047
749.68         61.6354
750.09        61.78524
750.51        61.95087
750.93        62.07858
751.35        62.02414
751.76        61.84422
752.18        61.74187
752.60        61.74805
753.01        61.78801
753.43        61.80405
753.85        61.77834
754.27        61.70367
754.68        61.59751
755.10        61.50975
755.52        61.49273
755.93         61.5529
756.35        61.66614
756.77        61.80931
757.18        61.92239
757.60        61.98343
758.02        62.06855
758.43        62.14385
758.85        62.01231
759.26        62.01359
759.68        62.02571
760.10        61.36113
760.51        61.87345
760.93        62.03848
761.34        62.04474
761.76         62.2222
762.18        62.24185
762.59        62.27471
763.01        62.35814
763.42        61.74398
763.84        61.83889
764.26        62.01065
764.67         62.3453
765.09        62.61561
765.50        62.69384
765.92        62.60992
766.33        62.48826
766.75        62.35099
767.16        62.25939
767.58        62.18885
768.00        62.17163
768.41        62.24062
768.83        62.31224
769.24        62.30957
769.66        62.61858
770.07        62.30238
770.49        62.26788
770.90        62.26443
771.32         62.2498
771.73        62.23256
772.15        62.24065
772.56        62.29469
772.97        62.39251
773.39        62.48912
773.80        62.56186
774.22        62.56717
774.63        62.54394
775.05        62.48738
775.46        62.43465
775.88        62.37862
776.29        62.33472
776.70         62.2914
777.12        62.24624
777.53        62.21593
777.95        62.19416
778.36        62.18655
778.77        62.19424
779.19        62.22495
779.60        62.28939
780.02        62.37125
780.43        62.51202
780.84        62.71719
781.26        62.80533
781.67         62.8382
782.09         63.2187
782.50        63.75581
782.91        63.67502
783.33        63.05894
783.74        62.81862
784.15        63.00196
784.57        63.13472
784.98        63.16835
785.39        63.18634
785.81        63.18401
786.22        63.19608
786.63        63.23614
787.04        63.26774
787.46        63.30397
787.87        63.35492
788.28        63.40606
788.70        63.40685
789.11        63.33378
789.52        63.21526
789.93        63.09805
790.35        63.04352
790.76        63.08374
791.17        63.21268
791.58          63.371
792.00        63.44658
792.41        63.44511
792.82        63.37116
793.23        63.34131
793.65        63.49804
794.06        63.84968
794.47        64.38402
794.88        64.96507
795.29        64.87842
795.71        65.07433
796.12        64.76897
796.53        64.34041
796.94        64.08903
797.35         64.0448
797.76         63.8439
798.18         63.5171
798.59        63.46241
799.00        63.70198
799.41        63.79349
799.82          64.117
800.23        64.20866
800.64        64.17252
801.06        63.99221
801.47        63.78512
801.88        63.67402
802.29        63.69476
802.70        63.81054
803.11        63.97642
803.52        64.11386
803.93        64.19735
804.34        64.25513
804.75        64.29161
805.17        64.33221
805.58        64.41666
805.99        64.42039
806.40        64.36949
806.81        64.55836
807.22        64.87147
807.63        64.74622
808.04        64.29155
808.45        64.19106
808.86        64.49796
809.27        64.82998
809.68        65.06801
810.09        65.17048
810.50        65.09097
810.91        64.85869
811.32        64.53738
811.73        64.23262
812.14         63.9962
812.55        63.80725
812.96        63.71378
813.37        63.78862
813.78        64.02441
814.19         64.3903
814.60        64.76838
815.01        64.97353
815.42        64.96259
815.83        64.77959
816.24        64.49825
816.65        64.27397
817.05        64.18182
817.46        64.16096
817.87        64.22428
818.28        64.34431
818.69        64.50694
819.10        64.73069
819.51        64.98921
819.92        65.22105
820.33         65.3941
820.74        65.49303
821.14        65.53638
821.55        65.59056
821.96        65.65641
822.37        65.72129
822.78        65.73354
823.19        65.60553
823.60        65.32846
824.00        64.95714
824.41        64.56216
824.82        64.32027
825.23        64.27946
825.64        64.40225
826.04        64.62026
826.45        64.77952
826.86        64.84805
827.27        64.86539
827.68        64.86781
828.08        64.94205
828.49        65.04015
828.90        65.17196
829.31        65.33489
829.72        65.43503
830.12        65.45832
830.53        65.79864
830.94        65.69234
831.35        65.63575
831.75        65.42272
832.16         65.0772
832.57        64.72831
832.97        64.58949
833.38        64.70226
833.79        64.98862
834.20        65.33861
834.60        65.58328
835.01         65.6717
835.42        65.66115
835.82         65.5781
836.23        65.42531
836.64        65.24732
837.04        65.05058
837.45        64.88778
837.86         64.9044
838.26        65.13147
838.67        65.51799
839.08        65.96059
839.48        66.27201
839.89        66.38892
840.29        66.35067
840.70        66.24437
841.11        66.21977
841.51        66.33347
841.92        66.51015
842.33        66.67809
842.73        66.71835
843.14        66.56436
843.54        66.30016
843.95        66.02221
844.35        65.90198
844.76        65.97162
845.17        66.17744
845.57        66.44741
845.98        66.62741
846.38        66.70052
846.79        66.69421
847.19        66.66278
847.60        66.61674
848.00        66.60607
848.41        66.57546
848.81        66.60311
849.22        66.75826
849.62        67.07137
850.03        67.47134
850.43        67.85872
850.84        67.97078
851.24        67.80862
851.65        67.38307
852.05        66.88321
852.46         66.5628
852.86        66.51806
853.27        66.71187
853.67        66.96303
854.07        67.15414
854.48        67.21468
854.88        67.20538
855.29        67.14503
855.69        67.22552
856.10        67.38745
856.50        67.65066
856.90        67.84144
857.31        67.73074
857.71        67.33499
858.12        66.69258
858.52        65.99142
858.92        65.47962
859.33        65.23441
859.73        65.23884
860.13        65.41474
860.54        65.61779
860.94        65.84389
861.34        66.08647
861.75        66.28638
862.15        66.42543
862.55        66.45246
862.96        66.33317
863.36        66.13421
863.76        65.92939
864.17        65.74791
864.57        65.62912
864.97        65.50297
865.38        65.22641
865.78        64.82739
866.18        64.34456
866.58        63.99758
866.99        64.13429
867.39        64.83106
867.79        65.90827
868.19        67.01415
868.60        67.59925
869.00        67.63579
869.40        67.42404
869.80        67.07011
870.21        66.61069
870.61        66.20787
871.01        65.91405
871.41        65.68426
871.81        65.35327
872.22        64.91929
872.62        64.47269
873.02        64.10854
873.42         64.1493
873.82         64.4469
874.22        64.41145
874.63        64.24765
875.03        64.39728
875.43        64.87054
875.83        66.35941
876.23        66.15614
876.63        65.66503
877.03        64.61685
877.44        62.46129
877.84        167.2323
878.24        63.22379
878.64        64.14187
879.04        65.87083
879.44         66.6459
879.84         63.7122
880.24        68.50443
880.64        68.66692
881.04        66.31036
881.44        64.39857
881.84        63.49429
882.24         63.7275
882.65         64.5462
883.05        64.63616
883.45        63.73335
883.85        62.69371
884.25        61.95303
884.65        61.77776
885.05        62.26067
885.45        63.20609
885.85        64.24004
886.25        64.86159
886.65        64.94882
887.05        64.65684
887.45        64.16606
887.85        63.78442
888.25        63.63689
888.65        63.63247
889.04        63.75487
889.44        63.98809
889.84        64.28157
890.24        64.62378
890.64        64.95158
891.04        65.16252
891.44        65.23472
891.84        65.20345
892.24        65.04485
892.64        64.73796
893.04        64.32348
893.44        63.83464
893.83        63.45456
894.23        63.42038
894.63        63.77552
895.03        64.45079
895.43        65.22727
895.83        65.72635
896.23        65.84355
896.63        65.67377
897.02        65.38491
897.42         65.3028
897.82        65.46101
898.22        65.74149
898.62        66.00449
899.01        66.03892
899.41        65.77546
899.81         65.3394
900.21        64.80656
900.61        64.28533
901.00        63.83342
901.40        63.49347
901.80        63.36183
902.20        63.44444
902.59        63.71476
902.99        64.42041
903.39        65.49367
903.79        65.21574
904.18        66.04544
904.58        65.98331
904.98        65.80836
905.38        65.51374
905.77        65.14027
906.17        64.71485
906.57         64.2785
906.96         64.0038
907.36        63.92928
907.76         64.0407
908.15        64.31413
908.55        64.54623
908.95        64.72053
909.34        64.82184
909.74        64.90365
910.14        65.01607
910.53        65.16663
910.93        65.32616
911.33        65.39214
911.72        65.20883
912.12          64.777
912.52         64.1648
912.91        63.55096
913.31        63.29521
913.70        63.44252
914.10        63.88847
914.49        64.44668
914.89        64.71109
915.29        64.59773
915.68         64.2122
916.08        63.74361
916.47         63.4436
916.87        63.42335
917.26        63.59941
917.66        63.88258
918.05        64.15282
918.45        64.34098
918.84        64.48692
919.24        64.62698
919.64        64.87462
920.03        65.23534
920.42        65.63037
920.82        65.91545
921.21        65.88947
921.61        65.55479
922.00        65.06865
922.40        64.65051
922.79        64.50968
923.19        64.34143
923.58        64.93391
923.98        66.58962
924.37        66.79073
924.77        64.15285
925.16        72.15433
925.55        66.33765
925.95        66.76778
926.34        66.53167
926.74        65.50725
927.13        63.78067
927.52        62.73634
927.92        62.95497
928.31        63.71632
928.70        64.75648
929.10         65.6195
929.49        66.18913
929.89        66.60544
930.28        66.81405
930.67        66.61626
931.07         66.0408
931.46        65.04069
931.85        63.96889
932.24        63.88177
932.64        64.94651
933.03        66.28226
933.42        67.07751
933.82        69.47186
934.21        68.04949
934.60        67.04782
934.99        66.04182
935.39        65.90926
935.78        66.64098
936.17         68.6024
936.56        74.69785
936.96         67.8232
937.35        71.38247
937.74        68.01411
938.13        65.50226
938.53        63.45768
938.92        62.65594
939.31        63.65339
939.70        65.20917
940.09        66.06838
940.49        65.93327
940.88        65.23036
941.27         64.3975
941.66        64.22604
942.05        64.94754
942.44        66.19338
942.84        67.41043
943.23        67.95078
943.62        67.66121
944.01        66.74358
944.40        65.68378
944.79        65.29765
945.18        65.79185
945.57        66.91177
945.97        68.06586
946.36        68.44089
946.75        67.80289
947.14        66.42063
947.53        64.84973
947.92        64.04496
948.31         64.2735
948.70        65.21582
949.09        66.36172
949.48        66.93161
949.87        66.73192
950.26        66.03828
950.65        65.16663
951.04        64.61855
951.43        64.55988
951.82        64.79996
952.21        65.21662
952.60        65.62514
952.99        65.90918
953.38        66.11878
953.77        66.21173
954.16         66.0985
954.55         65.7947
954.94        65.35464
955.33        64.83376
955.72        64.37014
956.11        64.04563
956.50        63.81359
956.89        63.82971
957.28        64.31285
957.66        65.26464
958.05        66.52238
958.44        67.66451
958.83        68.05521
959.22        67.56784
959.61        66.32106
960.00        64.79069
960.39        63.93644
960.78        64.07314
961.16        64.96925
961.55         65.9824
961.94        66.31844
962.33        65.82029
962.72        64.70652
963.11        63.45665
963.49         63.0338
963.88        63.72264
964.27        65.14467
964.66        66.65468
965.04        67.40694
965.43        67.17156
965.82        66.24931
966.21          65.045
966.60        64.27114
966.98        64.17554
967.37        64.54239
967.76        65.09848
968.15        65.39548
968.53        65.32488
968.92        65.04453
969.31        64.74043
969.69        64.67633
970.08        64.90167
970.47        65.28677
970.86        65.76331
971.24        66.24812
971.63        66.64159
972.02        66.95536
972.40        67.11408
972.79         66.9061
973.17        66.38667
973.56        65.65736
973.95         64.8911
974.33        64.40801
974.72        64.32034
975.11        64.50175
975.49         65.0516
975.88        66.03532
976.26        67.41393
976.65        69.02108
977.04        70.38911
977.42        70.79668
977.81         70.0903
978.19         68.4311
978.58        66.53712
978.96        65.77439
979.35        66.51708
979.74        68.22453
980.12        70.21933
980.51        71.50596
980.89        72.03317
981.28        72.04472
981.66        71.63583
982.05        71.08643
982.43        70.53639
982.82        69.91193
983.20        69.36398
983.59        69.07957
983.97        69.11887
984.35        69.44318
984.74        69.86143
985.12        70.06847
985.51        69.94566
985.89        69.67755
986.28        69.32857
986.66        69.05607
987.04        68.94508
987.43        68.79893
987.81        68.49461
988.20        69.29074
988.58        71.31489
988.96        71.88799
989.35        70.10958
989.73        75.58284
990.12        71.46949
990.50         70.7631
990.88        69.28428
991.27        68.40982
991.65        68.32371
992.03         69.0568
992.42        70.26933
992.80        70.71178
993.18         70.0984
993.56        68.81975
993.95        67.40969
994.33        66.70217
994.71        66.95914
995.10        67.86314
995.48        69.14651
995.86        70.37207
996.24        71.32804
996.63        72.06045
997.01        72.61378
997.39        72.85199
997.77        72.76297
998.15        72.32782
998.54        71.73375
998.92        71.20486
999.30        70.86131
999.68        70.73398
1000.06        70.68541
1000.45        70.36906
1000.83        69.84683
1001.21        69.26467
1001.59        68.98912
1001.97        69.52204
1002.35        70.80904
1002.73         72.4792
1003.12        74.14561
1003.50        75.42749
1003.88        76.23393
1004.26        76.72997
1004.64        76.85159
1005.02        76.47108
1005.40        75.61652
1005.78        74.31314
1006.16        72.99977
1006.54        72.39767
1006.92        72.68185
1007.30        73.71779
1007.69         74.9585
1008.07        75.66242
1008.45        75.62309
1008.83        75.02174
1009.21        74.26357
1009.59        74.20798
1009.97        75.03027
1010.35        76.23678
1010.73         77.3633
1011.11        78.16895
1011.49        78.73825
1011.86        78.93158
1012.24        78.51717
1012.62         79.9558
1013.00        80.52169
1013.38        80.07128
1013.76         77.4405
1014.14        80.97329
1014.52        86.72399
1014.90        79.38103
1015.28        80.65754
1015.66        82.14002
1016.04        78.90574
1016.41        79.41075
1016.79        78.81133
1017.17        78.44503
1017.55        77.75807
1017.93        76.98216
1018.31        76.73429
1018.69        77.48777
1019.06        79.28036
1019.44        81.72713
1019.82        83.87532
1020.20        84.48675
1020.58        83.31264
1020.95        80.32702
1021.33        76.23192
1021.71        73.69606
1022.09        74.27766
1022.46        76.87571
1022.84        79.77104
1023.22        81.67154
1023.60        82.56043
1023.97        82.92294
1024.35        82.97556
1024.73        83.02034
