SpectraSmart Spectrum 2.9.0.0
--------- Device Information -----------
Spectrum Name :  反射率_0
Saving Time :  2024/04/21 00:42:46
Spectro-Module Model Name : SE2030-DUVN
Spectro-Module Serial Number : OS361AC55029948
Wavelength Start : 200
Wavelength End : 1025
Wavelength Unit : Wavelength(nm)
Spectrum Unit : Reflectance(%)
-----------Spectrum Setting ------------
Integration Time : 20ms
Average : 10
Boxcar : 0
Background removal :  enabled
linearity correction :  enabled
SC :  disabled
Intensity correction :  disabled
DWT denoise :  enabled
savitzky-golay :  disabled
FFT :  disabled
Running average :  disabled
Kalman :  disabled
High pass :  disabled
---------------BEGIN--------------------
Wavelength(nm)             Reflectance(%)
200.29               0
200.75       -40.91229
201.21        2.232679
201.67         25.3954
202.13         34.5298
202.58        35.74825
203.04        32.84106
203.50        27.13905
203.96        21.93392
204.42        19.24277
204.88        17.35535
205.34        16.03874
205.80        14.61939
206.26         12.7368
206.72         12.7932
207.18        11.92839
207.64        2.703711
208.10       -15.06351
208.55       -38.10847
209.01       -47.87948
209.47       -25.15306
209.93        6.171402
210.39        30.60574
210.85        46.06483
211.31        53.23665
211.77        54.73989
212.23        52.04739
212.69        42.43352
213.14        19.83779
213.60       -30.39154
214.06       -190.2012
214.52       -585.0999
214.98       -269.8059
215.44       -63.75246
215.90        7.011183
216.36        30.88898
216.81        33.92158
217.27         20.2746
217.73       -53.91337
218.19        851.9773
218.65         377.112
219.11       -812.9433
219.57       -28.02796
220.02        21.86811
220.48        29.62395
220.94          22.534
221.40       -2.331672
221.86       -59.32827
222.32       -88.52806
222.77       -29.17788
223.23        18.64438
223.69         40.7808
224.15        45.22468
224.61        39.81734
225.06        28.90551
225.52        15.70974
225.98        5.711435
226.44        1.458031
226.90       0.3158266
227.36        4.152879
227.81        14.00248
228.27        24.57744
228.73        33.51424
229.19        38.53887
229.65        38.40113
230.10        33.89706
230.56          26.035
231.02        16.05649
231.48        9.432037
231.93        10.09833
232.39          16.072
232.85        22.96408
233.31        27.02433
233.77        28.41937
234.22        28.74996
234.68          28.317
235.14        27.58488
235.60        27.06866
236.05        25.77069
236.51        23.84535
236.97        27.45444
237.43        37.06318
237.88        42.86018
238.34        40.71463
238.80        61.13184
239.26        49.72436
239.71        46.47219
240.17        36.86406
240.63        27.58363
241.08         23.3709
241.54        27.75176
242.00        40.11826
242.46        48.57532
242.91        50.08545
243.37        45.66137
243.83        35.85146
244.28        26.28375
244.74        22.36033
245.20        21.51522
245.66        21.79206
246.11        21.51728
246.57        19.84438
247.03        17.85999
247.48        15.03954
247.94        10.31131
248.40        1.350728
248.85       -21.65119
249.31       -93.09212
249.77        -155.131
250.22       -47.06374
250.68        -2.38684
251.14        13.91188
251.59        23.36577
252.05        32.58941
252.51        45.59272
252.96        59.86357
253.42        63.09142
253.88        49.49017
254.33        28.40677
254.79        16.14323
255.25        21.28222
255.70        35.08748
256.16        48.89546
256.62        58.80502
257.07        62.98624
257.53        63.52626
257.99        62.34193
258.44        60.36278
258.90        58.98816
259.35        57.82557
259.81        56.90722
260.27        55.94505
260.72        54.80085
261.18        53.82231
261.63        52.81866
262.09        51.93546
262.55        50.88758
263.00        49.59339
263.46        48.29568
263.91        46.97327
264.37        46.01177
264.83         45.3467
265.28         44.8343
265.74        44.39512
266.19        43.73164
266.65        42.86066
267.11        41.80768
267.56        40.67376
268.02        39.70055
268.47        38.89215
268.93        38.22715
269.38           37.54
269.84        36.63767
270.30        35.48907
270.75         34.1792
271.21        32.94098
271.66        32.06242
272.12        31.61308
272.57        31.45067
273.03        31.37877
273.48        31.07188
273.94        30.48262
274.39        29.69393
274.85        28.85855
275.31        28.13729
275.76        27.57574
276.22        27.14465
276.67         26.7968
277.13        26.54383
277.58        26.32709
278.04        26.16772
278.49        25.99113
278.95         25.7609
279.40        25.42953
279.86        25.04628
280.31        24.59527
280.77        24.14252
281.22        23.67801
281.68         23.2443
282.13        22.83113
282.59        22.49489
283.04        22.21719
283.50        22.00833
283.95        21.85443
284.41        21.75698
284.86        21.70246
285.32         21.7054
285.77        21.72354
286.22        21.71099
286.68        21.68115
287.13        21.60823
287.59        21.59332
288.04         21.6842
288.50        21.85725
288.95        22.20915
289.41        22.68398
289.86        22.70708
290.32        22.18821
290.77        23.12325
291.22        22.29534
291.68        22.48999
292.13        22.77689
292.59        23.22255
293.04         23.8064
293.50         24.5664
293.95        25.51305
294.40        26.61228
294.86        27.82266
295.31        29.06298
295.77        30.30857
296.22        31.56344
296.68        32.85569
297.13        34.22816
297.58        35.70945
298.04        37.28497
298.49        38.95529
298.95        40.74194
299.40        42.61139
299.85        44.55376
300.31        46.51025
300.76        48.36462
301.21        50.11339
301.67        51.82528
302.12        53.54692
302.58        55.45683
303.03          57.563
303.48        59.85667
303.94        62.30005
304.39        64.77602
304.84        67.23579
305.30        69.69502
305.75        72.08266
306.20        74.41102
306.66        76.67422
307.11        78.80529
307.57        80.81802
308.02        82.65968
308.47        84.36195
308.93        85.98531
309.38        87.52465
309.83        89.03874
310.29        90.59108
310.74        92.11407
311.19        93.61629
311.65        95.07299
312.10        96.45382
312.55        97.76675
313.00        99.00487
313.46        100.1616
313.91        101.2165
314.36        102.1795
314.82         103.059
315.27        103.8621
315.72        104.6082
316.18        105.2992
316.63        105.9535
317.08        106.6023
317.53         107.243
317.99        107.8598
318.44        108.4244
318.89        108.8713
319.35        109.1948
319.80        109.4445
320.25        109.6492
320.70        109.8616
321.16        110.0977
321.61        110.3519
322.06        110.6684
322.51         111.126
322.97        111.7039
323.42        112.4134
323.87         113.094
324.32        113.4983
324.78        113.5521
325.23        113.3622
325.68        113.0942
326.13        113.0629
326.59        113.3272
327.04        113.8599
327.49        114.4859
327.94        114.9389
328.39        115.1408
328.85        115.1484
329.30         115.139
329.75        115.2604
330.20        115.5723
330.66         115.972
331.11        116.4773
331.56        116.9763
332.01        117.4338
332.46        117.8797
332.92        118.2594
333.37        118.6311
333.82        118.9517
334.27         119.222
334.72        119.4884
335.17        119.8375
335.63        120.2585
336.08        120.7953
336.53        121.3766
336.98        121.9292
337.43        122.4247
337.88        122.8779
338.34        123.2747
338.79        123.6601
339.24        124.0199
339.69        124.3529
340.14        124.6706
340.59        124.9996
341.05        125.3486
341.50        125.7177
341.95        126.1158
342.40        126.5562
342.85        127.0315
343.30        127.5369
343.75        128.0087
344.20        128.3523
344.66        128.5598
345.11        128.6319
345.56        128.6643
346.01         128.813
346.46        129.1127
346.91        129.4888
347.36        129.8137
347.81        129.9833
348.26        129.9855
348.72        129.5365
349.17        129.3768
349.62        129.2093
350.07        129.2706
350.52        129.4727
350.97        129.7222
351.42        129.8562
351.87        129.8096
352.32        129.6295
352.77        129.3496
353.22        129.0172
353.67        128.6557
354.13        128.2712
354.58        127.8284
355.03        127.3365
355.48        126.8054
355.93          126.24
356.38        125.6952
356.83        125.2443
357.28         124.878
357.73        124.5587
358.18         124.171
358.63        123.5359
359.08        122.6319
359.53        121.5391
359.98        120.3851
360.43        119.3595
360.88        118.5148
361.33        117.7943
361.78        117.1565
362.23        116.5338
362.68        115.8924
363.13        115.2523
363.58         114.577
364.03        113.8048
364.48        112.9246
364.93        111.9431
365.38        110.9188
365.83        109.9593
366.28        109.0951
366.73        108.3027
367.18        107.5378
367.63        106.7256
368.08        105.8501
368.53        104.9445
368.98        104.0358
369.43        103.1491
369.88        102.2888
370.33        101.4417
370.78        100.6023
371.23        99.78378
371.68        98.99982
372.13        98.25105
372.58        97.55811
373.03        96.93571
373.48        96.36861
373.93        95.84596
374.38        95.30388
374.83        94.65056
375.28        93.88438
375.72        93.02728
376.17        92.19997
376.62        91.49621
377.07        90.92183
377.52        90.42393
377.97        89.94948
378.42        89.42656
378.87        88.84393
379.32        88.24466
379.77        87.62797
380.22        86.97149
380.67        86.26982
381.11        85.52531
381.56         84.7879
382.01        84.17513
382.46        83.72533
382.91        83.41611
383.36        83.16042
383.81        82.81693
384.26        82.34727
384.71        81.78318
385.15        81.19232
385.60        80.74774
386.05         80.4549
386.50          80.269
386.95         80.0838
387.40        79.74436
387.85        79.23682
388.29        78.57856
388.74        77.99286
389.19        77.58076
389.64        77.34417
390.09        77.21969
390.54        77.13203
390.98        76.84093
391.43        76.34693
391.88        75.92003
392.33        75.65696
392.78        74.75649
393.23        74.79601
393.67        74.40206
394.12        74.13361
394.57        74.09602
395.02        74.20271
395.47         74.0538
395.91        73.65427
396.36        73.36155
396.81        73.21268
397.26         73.0287
397.71        72.77577
398.15        72.48444
398.60        72.23569
399.05        71.87075
399.50        71.51741
399.95         71.5229
400.39        71.79585
400.84         71.8978
401.29        71.72892
401.74        71.22551
402.18        70.55321
402.63        70.27043
403.08        70.35381
403.53        70.18494
403.97        69.75146
404.42        69.49476
404.87        69.41303
405.32        69.33797
405.76        69.25557
406.21        69.13959
406.66        68.98304
407.11        68.98841
407.55        69.07729
408.00        68.73067
408.45        68.06009
408.90        67.68775
409.34        67.67616
409.79        67.73148
410.24        67.77014
410.68        67.78468
411.13        67.74384
411.58        67.65524
412.03        67.54214
412.47         67.4575
412.92        67.39423
413.37        67.35489
413.81        67.31886
414.26        67.30882
414.71        67.30434
415.15        67.31872
415.60        67.32417
416.05         67.3294
416.49          67.331
416.94        67.31519
417.39        67.26984
417.83        67.16698
418.28        67.01292
418.73        66.82529
419.17        66.62772
419.62        66.46833
420.07         66.3629
420.51        66.29234
420.96        66.29292
421.41        66.34743
421.85        66.41485
422.30        66.58236
422.74        66.76088
423.19        66.81713
423.64         66.7675
424.08        66.89982
424.53        67.13123
424.98         67.1961
425.42        67.08862
425.87        66.96097
426.31        66.87805
426.76        66.82341
427.21        66.82583
427.65        66.99332
428.10        67.22192
428.54         67.3116
428.99        67.27116
429.44        67.18517
429.88        67.07575
430.33        66.97684
430.77         66.8592
431.22        66.93769
431.66        67.12819
432.11        67.07999
432.56        66.88145
433.00        66.89547
433.45        66.91161
433.89        66.97817
434.34        67.22134
434.78        66.10316
435.23        65.96856
435.67        67.11342
436.12        67.00378
436.57        67.39342
437.01        67.37856
437.46        67.32434
437.90        67.92921
438.35        67.78322
438.79        67.91729
439.24        67.81751
439.68        67.74888
440.13         67.6796
440.57        67.62766
441.02        67.63519
441.46        67.70853
441.91        67.86398
442.35        68.00224
442.80        68.39289
443.24        68.85783
443.69        68.82699
444.13        68.37415
444.58        68.07718
445.02        68.03995
445.47        68.31034
445.91        68.73237
446.36        68.91956
446.80        68.81438
447.24        68.58823
447.69        68.36419
448.13         68.4411
448.58        68.60067
449.02         68.6343
449.47        68.48749
449.91        68.45042
450.36        68.54293
450.80        68.50916
451.25        68.39578
451.69        68.44652
452.13        68.61158
452.58        68.52866
453.02        68.23314
453.47        68.09127
453.91         68.1119
454.36        68.11957
454.80        68.05046
455.24        67.91835
455.69        67.74425
456.13        67.42131
456.58        67.07928
457.02        67.05927
457.46        67.23618
457.91        67.13932
458.35        66.90257
458.79        66.82783
459.24        66.96221
459.68        67.06834
460.13        67.11858
460.57         67.0199
461.01         66.7669
461.46        66.66756
461.90        66.12973
462.34        66.11431
462.79        65.86647
463.23        65.98262
463.68        66.15923
464.12        66.00598
464.56        65.61443
465.01        65.62062
465.45         65.8752
465.89        66.03814
466.34        66.09406
466.78        65.82288
467.22        65.23545
467.67        65.76832
468.11         65.1053
468.55        65.09409
468.99        65.00633
469.44        64.87892
469.88        64.69473
470.32        64.49481
470.77        64.34273
471.21        64.25557
471.65         64.2458
472.10          64.312
472.54        64.39327
472.98         64.4173
473.42        64.37107
473.87        64.27713
474.31        64.15678
474.75        64.17009
475.20         64.2935
475.64        64.37994
476.08        64.39628
476.52        64.36964
476.97        64.27526
477.41        64.27187
477.85        64.10416
478.29         63.8791
478.74        63.58933
479.18        63.42535
479.62        63.88284
480.06         64.0302
480.50        64.04199
480.95        64.00903
481.39        63.86278
481.83        64.30058
482.27        64.43136
482.72        63.95561
483.16        64.25544
483.60        64.38712
484.04        64.14095
484.48        63.91815
484.93         64.1514
485.37        63.99134
485.81        64.41577
486.25        63.33424
486.69        65.29532
487.14        65.34209
487.58        64.53654
488.02        64.12589
488.46        63.69725
488.90        63.53815
489.34         63.6118
489.79        63.36994
490.23        63.60682
490.67         63.5424
491.11        63.45256
491.55        63.42414
491.99        63.47943
492.43        63.51463
492.88        63.52088
493.32        63.60472
493.76        63.68973
494.20        63.70583
494.64        63.66003
495.08        63.27325
495.52        63.13766
495.96        63.09628
496.41        63.25374
496.85        63.38957
497.29        63.39124
497.73        63.43075
498.17         63.1958
498.61        63.17933
499.05        63.25932
499.49        63.14332
499.93        62.91975
500.37        62.93141
500.82        63.14819
501.26        63.42907
501.70        63.65872
502.14        63.33741
502.58        63.09449
503.02        62.78778
503.46        62.93267
503.90        63.01904
504.34        63.07426
504.78        63.03978
505.22        62.95499
505.66        62.89983
506.10        62.84576
506.54        62.91182
506.98        63.15559
507.42        62.45779
507.86        62.88436
508.30        62.83977
508.74          62.798
509.18         62.8117
509.62        62.83094
510.06        62.83594
510.50        62.78305
510.94        62.63285
511.38        62.43309
511.82        62.32859
512.26        62.33812
512.70        62.39017
513.14        62.45876
513.58        62.52182
514.02        62.56238
514.46        62.59074
514.90         62.5841
515.34        62.54097
515.78        62.46989
516.22        62.34901
516.66           62.07
517.10        62.28849
517.54        62.15946
517.98        62.32702
518.42        62.48522
518.86        62.56902
519.30         62.5521
519.74        62.42262
520.18        62.25311
520.62        62.23382
521.06        62.34084
521.50        62.32397
521.93        62.17487
522.37         62.0793
522.81        62.04457
523.25        61.96338
523.69        61.85395
524.13        61.79837
524.57        61.80385
525.01        61.84224
525.45        61.90207
525.89        61.96606
526.32        62.02045
526.76        62.07359
527.20        62.11164
527.64        62.11499
528.08        62.08359
528.52        62.02862
528.96        61.96943
529.40        61.92994
529.83        61.91534
530.27        61.94574
530.71        62.00058
531.15        62.04352
531.59        62.06482
532.03        62.07863
532.46        62.07503
532.90         62.0531
533.34        62.00987
533.78        61.94683
534.22        61.87712
534.66        61.82173
535.09        61.77818
535.53         61.7655
535.97        61.76009
536.41        61.74017
536.85        61.70225
537.28        61.65242
537.72        61.61264
538.16        61.61993
538.60        61.67579
539.04        61.76344
539.47        61.83475
539.91        61.86996
540.35        61.84539
540.79        61.78015
541.22          61.693
541.66        61.62933
542.10        61.59769
542.54        61.58191
542.97        61.57837
543.41        61.61215
543.85        61.67732
544.29         61.7841
544.72        61.88067
545.16        61.93988
545.60        61.94168
546.04        61.81883
546.47        61.66464
546.91        61.77244
547.35        62.07026
547.79        62.23265
548.22        62.18664
548.66        61.97911
549.10        61.71772
549.53        61.70122
549.97        61.90904
550.41        61.94325
550.84        61.76735
551.28        61.70371
551.72        61.78382
552.15        61.72454
552.59        61.50112
553.03        61.93721
553.46        61.66832
553.90        61.73706
554.34        61.71904
554.77        61.72416
555.21         61.8116
555.65        61.63934
556.08        61.88337
556.52        62.04367
556.96        62.23048
557.39        62.15262
557.83        61.87207
558.27        61.75032
558.70        61.79474
559.14        61.68133
559.57        61.44928
560.01        61.53841
560.45        61.85479
560.88        61.88918
561.32        61.71316
561.75        61.67244
562.19        61.80136
562.63        61.90561
563.06        61.91826
563.50        61.78082
563.93        61.53218
564.37        61.33733
564.80        61.24622
565.24        61.39657
565.68        61.69856
566.11        61.82621
566.55        61.78071
566.98        61.78415
567.42        61.85749
567.85        61.85725
568.29         61.8617
568.72        61.89055
569.16        61.94115
569.60         62.2767
570.03        62.20552
570.47        62.29556
570.90        62.29168
571.34         62.4743
571.77        62.70443
572.21        62.50406
572.64        62.37398
573.08        62.44657
573.51        62.45926
573.95         62.8595
574.38         62.6907
574.82        63.21917
575.25        62.98129
575.69        62.81663
576.12        62.42506
576.56        62.71426
576.99        62.91164
577.42        62.75378
577.86         62.6535
578.29        63.55175
578.73        63.64491
579.16        62.89861
579.60        62.79224
580.03        62.95652
580.47        62.49591
580.90        62.44802
581.33        62.96532
581.77        63.44646
582.20        63.16067
582.64        63.53061
583.07         63.3558
583.51        62.77479
583.94        62.49091
584.37        62.47026
584.81        62.15716
585.24        62.24449
585.68        62.74829
586.11        62.84233
586.54        62.70594
586.98          62.449
587.41        62.69454
587.85        62.70053
588.28        62.59039
588.71        62.83472
589.15        62.65165
589.58        62.26245
590.01        62.26147
590.45        62.24867
590.88        62.10801
591.31        61.89778
591.75        62.16273
592.18        62.14851
592.61        62.05016
593.05        62.25583
593.48         62.3364
593.91        62.64078
594.35        62.48365
594.78        62.58484
595.21        62.04973
595.65        62.13457
596.08        62.49763
596.51        62.71175
596.94        62.20571
597.38        62.12894
597.81        62.41542
598.24        62.27165
598.68        62.26879
599.11        62.37413
599.54        62.48658
599.97        62.34898
600.41        62.31325
600.84        62.54033
601.27        62.46651
601.70        62.39699
602.14        62.12898
602.57        62.06618
603.00        62.23437
603.43        62.30076
603.87         62.8035
604.30        62.66941
604.73        62.59303
605.16        62.20465
605.60        62.36582
606.03         62.2719
606.46        62.23251
606.89        61.87235
607.32        61.80122
607.76        62.63224
608.19        62.40876
608.62        62.13544
609.05        62.98185
609.48        62.50967
609.92        62.50498
610.35        62.22219
610.78        62.46281
611.21        62.17612
611.64        62.29971
612.07        62.30784
612.50        62.41027
612.94        62.44642
613.37        62.41738
613.80        62.40432
614.23        62.38293
614.66        62.19138
615.09        61.89375
615.52        61.84534
615.96        62.03401
616.39        62.05514
616.82        61.86768
617.25        62.09368
617.68        61.99062
618.11        61.98846
618.54        62.04213
618.97        61.97499
619.40        61.81422
619.84        61.88592
620.27        61.68067
620.70        61.69393
621.13        61.74089
621.56        61.80378
621.99        61.85963
622.42        61.84611
622.85        61.74562
623.28        61.82593
623.71        61.68724
624.14        61.92598
624.57        61.84092
625.00        62.36388
625.43        61.73014
625.86        61.70986
626.29        61.89634
626.72        61.38214
627.15        61.62991
627.58        61.53679
628.01        61.52903
628.44        61.57908
628.87        61.63726
629.30        61.45596
629.73        61.69901
630.16        61.45388
630.59        61.44535
631.02        61.62372
631.45        61.29572
631.88        61.31434
632.31         61.4388
632.74        61.29498
633.17        61.47301
633.60         61.4404
634.03        61.38221
634.46        61.34101
634.89        61.24752
635.32        61.22446
635.75        61.24566
636.18        61.30091
636.61        61.36491
637.04        61.41375
637.47        61.43037
637.89        61.39895
638.32        61.33047
638.75        61.29559
639.18          61.305
639.61        61.33068
640.04        61.35016
640.47        61.33699
640.90        61.28432
641.33        61.20216
641.76        61.11845
642.18         61.0834
642.61        61.09457
643.04        61.14681
643.47        61.21002
643.90         61.2387
644.33        61.22125
644.76        61.15944
645.18        61.08705
645.61        61.07808
646.04        61.13251
646.47        61.17736
646.90        61.19481
647.33        61.20791
647.75        61.19865
648.18        61.16466
648.61        61.14412
649.04        61.11592
649.47        61.05352
649.89        61.34031
650.32        61.27654
650.75        61.21937
651.18        61.02059
651.61        61.03763
652.03        61.23741
652.46        61.18336
652.89        60.95241
653.32        60.93489
653.74        61.10955
654.17        61.16622
654.60        61.32308
655.03        60.83997
655.46        60.79313
655.88         61.7956
656.31        62.77171
656.74        66.90545
657.16        65.58389
657.59        64.03884
658.02        62.06149
658.45        61.81118
658.87        61.77706
659.30        61.94474
659.73        61.47433
660.15        60.92854
660.58        61.23584
661.01        61.57098
661.44        62.01047
661.86        61.90231
662.29        61.32878
662.72        61.00224
663.14        61.03369
663.57         61.1699
664.00         61.3271
664.42        61.40175
664.85        61.37347
665.27        61.22622
665.70        61.20076
666.13        61.15622
666.55        61.17048
666.98        61.22885
667.41        61.29353
667.83        61.30899
668.26         61.2744
668.69        61.15731
669.11        60.99553
669.54        61.06258
669.96        61.42345
670.39        61.17398
670.82        61.72326
671.24        61.78696
671.67        61.78394
672.09        61.63546
672.52        61.68353
672.94         61.5209
673.37        61.29274
673.80        61.23945
674.22        61.35043
674.65        61.36067
675.07        61.27104
675.50        61.21629
675.92        61.21454
676.35        61.21517
676.77        61.21764
677.20        61.24371
677.62        61.30996
678.05        61.36515
678.47        61.38997
678.90        61.65438
679.32        61.64299
679.75        61.71847
680.17         61.7282
680.60        61.69759
681.02        61.63927
681.45        61.58599
681.87        61.56136
682.30        61.51938
682.72          61.494
683.15        61.56918
683.57        61.69334
684.00        61.81482
684.42        61.60637
684.85        61.60905
685.27        61.71753
685.70        61.80766
686.12        61.83131
686.54        61.81948
686.97        61.76368
687.39        61.66717
687.82        61.56529
688.24        61.54533
688.66        61.57331
689.09         61.7541
689.51        61.63028
689.94        61.73324
690.36          61.907
690.78        62.03928
691.21        62.10424
691.63        62.08091
692.06        62.01499
692.48         62.0268
692.90        62.11163
693.33        62.14465
693.75        62.13179
694.17        62.10122
694.60        62.05609
695.02        62.17963
695.44        62.18129
695.87        62.15395
696.29        62.05778
696.71        61.93012
697.14         61.8285
697.56        62.02337
697.98        62.42533
698.41        62.40051
698.83        62.40258
699.25        62.22816
699.68        62.08205
700.10        61.98783
700.52        61.97467
700.94        62.03085
701.37        62.09945
701.79        62.14272
702.21        62.12526
702.64        62.07198
703.06        62.01598
703.48        62.01484
703.90        62.08403
704.33        62.19851
704.75        62.32393
705.17        62.38815
705.59         62.3738
706.01        62.29736
706.44         62.2114
706.86        62.21484
707.28        62.31307
707.70        62.49274
708.12        62.68648
708.55        62.74208
708.97        62.64928
709.39        62.54352
709.81        62.46478
710.23        62.40043
710.66        62.37526
711.08        62.43356
711.50        62.52824
711.92        62.57726
712.34         62.5647
712.76        62.51079
713.19        62.44683
713.61        62.47078
714.03        62.57759
714.45        62.74428
714.87        62.90807
715.29        62.96509
715.71        62.89578
716.13        62.76323
716.56        62.56504
716.98        62.51606
717.40        62.61506
717.82        62.82147
718.24        63.05206
718.66        63.16993
719.08        63.14138
719.50         63.0135
719.92        62.85444
720.34        62.76947
720.76        62.78944
721.19        62.87064
721.61        62.99652
722.03        63.11172
722.45        63.19662
722.87        63.27043
723.29        63.33359
723.71        63.38381
724.13        63.42073
724.55        63.43632
724.97         63.4547
725.39        63.48129
725.81        63.51153
726.23        63.61535
726.65        63.77636
727.07        63.57817
727.49        63.64152
727.91        63.47696
728.33        63.31857
728.75        63.26444
729.17        63.32585
729.59        63.39293
730.01        63.45543
730.43        63.57706
730.85        63.74107
731.27        63.89722
731.69        64.01833
732.10        64.02264
732.52        64.10091
732.94        63.87825
733.36         63.5164
733.78        63.36655
734.20        63.48618
734.62         63.6748
735.04        63.83964
735.46        64.08624
735.88        64.06576
736.30        64.04871
736.72        63.97697
737.13        63.92474
737.55        63.87262
737.97        63.84623
738.39        63.83515
738.81        63.76516
739.23        63.65356
739.65        63.65082
740.06        63.71101
740.48        63.73907
740.90        63.69884
741.32        63.66475
741.74        63.66593
742.16        63.71822
742.57        63.83626
742.99        63.99073
743.41        64.14191
743.83        64.20942
744.25        64.17695
744.67        64.06105
745.08        63.93877
745.50         63.8997
745.92        63.98289
746.34         64.1592
746.75        64.35126
747.17         64.4305
747.59        64.37368
748.01        64.19055
748.42        63.97901
748.84        63.94719
749.26        64.09928
749.68        64.25041
750.09        64.33656
750.51        64.36234
750.93        64.32531
751.35        64.26959
751.76        64.22407
752.18        64.17863
752.60        64.14847
753.01        64.18053
753.43        64.21759
753.85        64.19387
754.27        64.09846
754.68        63.94687
755.10        63.81655
755.52         63.8062
755.93        63.93458
756.35        64.17506
756.77        64.42647
757.18        64.54391
757.60        64.49778
758.02        64.28733
758.43        64.04254
758.85        64.03929
759.26        64.35573
759.68        64.62376
760.10        64.21059
760.51         64.0972
760.93        64.90596
761.34        64.32999
761.76        64.76427
762.18        64.60539
762.59        64.50664
763.01        64.69833
763.42        64.34798
763.84        64.56812
764.26        64.70642
764.67        65.03929
765.09        65.34971
765.50         65.4359
765.92        65.31386
766.33        65.06583
766.75          64.757
767.16         64.5756
767.58        64.51409
768.00        64.61478
768.41        64.85279
768.83        64.87224
769.24        64.66581
769.66        65.06718
770.07        65.12402
770.49        65.15076
770.90        64.92444
771.32        64.82659
771.73        64.88945
772.15        64.90252
772.56        64.89066
772.97         64.9791
773.39        65.11126
773.80        65.19408
774.22        65.17647
774.63        65.10878
775.05        65.02139
775.46        65.01257
775.88        65.07983
776.29        65.21613
776.70        65.33697
777.12        65.32165
777.53        65.16571
777.95         64.9043
778.36        64.63156
778.77        64.49011
779.19         64.5223
779.60        64.69465
780.02        64.93327
780.43         65.1673
780.84        65.36639
781.26        65.43903
781.67        65.45683
782.09        65.70081
782.50        66.06202
782.91        66.04809
783.33        65.69427
783.74        65.57353
784.15        65.69896
784.57        65.78539
784.98         65.8121
785.39        65.84933
785.81        65.88788
786.22        65.90472
786.63        65.92358
787.04        65.98232
787.46        66.09154
787.87        66.21554
788.28        66.32036
788.70        66.32508
789.11        66.19641
789.52        66.02676
789.93        65.87367
790.35        65.68465
790.76        65.56425
791.17        65.80183
791.58        66.26904
792.00        66.47144
792.41        66.38189
792.82         66.1807
793.23        66.01908
793.65        66.15603
794.06        66.61461
794.47        67.07793
794.88        67.38686
795.29        67.75119
795.71        67.73866
796.12        67.59459
796.53        67.26235
796.94        67.06728
797.35        67.00651
797.76        66.74083
798.18        66.33356
798.59        66.14178
799.00        66.19199
799.41        66.31595
799.82        66.45033
800.23         66.5631
800.64        66.62226
801.06        66.60358
801.47        66.58562
801.88        66.63048
802.29         66.7543
802.70        66.93006
803.11        67.10578
803.52        67.19482
803.93        67.17667
804.34        67.08328
804.75        66.97192
805.17        66.92406
805.58         66.9905
805.99        67.12355
806.40        67.28474
806.81        67.42131
807.22        67.49663
807.63         67.4967
808.04         67.4538
808.45        67.44501
808.86        67.47939
809.27        67.51434
809.68        67.52522
810.09        67.48222
810.50        67.38084
810.91        67.24995
811.32        67.10023
811.73         66.9436
812.14        66.79497
812.55        66.64917
812.96        66.56248
813.37        66.62625
813.78        66.84396
814.19        67.17912
814.60        67.51192
815.01        67.66068
815.42        67.58621
815.83        67.33158
816.24        67.00671
816.65        66.82605
817.05        66.87076
817.46        67.05817
817.87        67.31912
818.28         67.5024
818.69        67.56954
819.10        67.56786
819.51        67.55988
819.92        67.64902
820.33        67.85322
820.74        68.11216
821.14        68.35505
821.55        68.50507
821.96        68.52909
822.37        68.46288
822.78         68.3229
823.19        68.13935
823.60        67.93747
824.00        67.72234
824.41        67.51525
824.82        67.41985
825.23        67.44961
825.64        67.59044
826.04        67.76516
826.45        67.80142
826.86        67.67956
827.27        67.45226
827.68        67.21207
828.08        67.14922
828.49        67.24937
828.90        67.49905
829.31        67.85899
829.72        68.17639
830.12        68.41043
830.53        68.92332
830.94        68.99764
831.35        69.04807
831.75        68.88062
832.16        68.51072
832.57        68.09042
832.97         67.8784
833.38        67.93591
833.79        68.18855
834.20        68.51748
834.60        68.73307
835.01        68.78137
835.42        68.72453
835.82        68.61423
836.23        68.48943
836.64        68.39774
837.04        68.32949
837.45        68.28136
837.86        68.31409
838.26        68.44167
838.67        68.63832
839.08        68.86826
839.48        69.05225
839.89        69.15998
840.29         69.2125
840.70        69.24014
841.11        69.29784
841.51        69.41593
841.92        69.53713
842.33        69.65668
842.73        69.76695
843.14        69.81328
843.54        69.83233
843.95         69.8118
844.35          69.754
844.76        69.65999
845.17        69.54626
845.57        69.44419
845.98        69.36958
846.38        69.35839
846.79        69.37431
847.19        69.44988
847.60        69.55526
848.00         69.7085
848.41        69.87682
848.81         70.0489
849.22        70.13004
849.62        70.14193
850.03        70.07248
850.43        70.00246
850.84        69.95724
851.24        70.00291
851.65        70.05853
852.05        70.17783
852.46        70.34023
852.86        70.52393
853.27        70.76685
853.67        70.91329
854.07         70.8931
854.48        70.66895
854.88        70.28081
855.29        69.83032
855.69        69.68604
856.10        69.84103
856.50        70.29821
856.90        70.77233
857.31        70.82247
857.71        70.40266
858.12        69.59581
858.52        68.68582
858.92        68.08611
859.33        67.92281
859.73        68.12688
860.13        68.52876
860.54        68.84357
860.94         69.0266
861.34        69.10756
861.75        69.11884
862.15         69.1899
862.55        69.30797
862.96        69.40404
863.36        69.42752
863.76        69.26287
864.17        68.89735
864.57        68.42065
864.97        67.92593
865.38        67.54414
865.78        67.36924
866.18        67.35859
866.58        67.51771
866.99        67.81286
867.39        68.22512
867.79        68.71573
868.19        69.16402
868.60        69.31593
869.00        69.20487
869.40        69.04872
869.80        68.86234
870.21        68.51743
870.61        68.11845
871.01        67.76872
871.41        67.51066
871.81        67.30943
872.22        67.17705
872.62        67.13724
873.02        67.17974
873.42        67.43073
873.82        67.70033
874.22        67.51511
874.63        67.11692
875.03        67.00792
875.43         67.2515
875.83        68.47749
876.23        68.18384
876.63        67.73455
877.03        66.87649
877.44        65.08875
877.84        162.1053
878.24        66.09821
878.64        66.81497
879.04        68.15932
879.44        68.56055
879.84         65.4628
880.24        69.79721
880.64        69.78446
881.04        67.43246
881.44        65.67175
881.84        65.06373
882.24        65.68966
882.65        66.93026
883.05        67.43915
883.45        66.93679
883.85        66.22642
884.25        65.67365
884.65        65.49792
885.05        65.79723
885.45        66.40194
885.85         67.0596
886.25        67.44635
886.65        67.47367
887.05        67.25467
887.45        66.86819
887.85        66.44142
888.25        66.05374
888.65        65.67944
889.04        65.39793
889.44        65.34547
889.84        65.53203
890.24        65.91611
890.64        66.37937
891.04        66.73843
891.44        66.94675
891.84        67.04856
892.24        67.06969
892.64        67.06953
893.04        67.06837
893.44        67.02764
893.83        67.00064
894.23        67.04533
894.63        67.18156
895.03        67.42549
895.43        67.66382
895.83         67.6974
896.23        67.50661
896.63        67.15057
897.02        66.83209
897.42         66.9166
897.82        67.41843
898.22        68.21294
898.62        69.02052
899.01        69.39683
899.41        69.20901
899.81        68.61195
900.21        67.84071
900.61        67.28745
901.00        67.06892
901.40        67.13681
901.80        67.37827
902.20        67.49361
902.59        67.39526
902.99        67.40546
903.39        67.69107
903.79        66.98737
904.18        67.71618
904.58        67.88464
904.98        68.03751
905.38        67.87062
905.77        67.35427
906.17        66.61274
906.57        65.85422
906.96        65.50977
907.36        65.68221
907.76        66.27342
908.15        67.08247
908.55        67.61833
908.95        67.78085
909.34        67.62436
909.74         67.3888
910.14        67.42612
910.53         67.8052
910.93        68.39613
911.33        68.87934
911.72        68.76219
912.12         67.9866
912.52         66.7532
912.91        65.46935
913.31        64.84196
913.70        65.01006
914.10        65.77025
914.49        66.78113
914.89        67.36708
915.29        67.35658
915.68        66.93597
916.08         66.3941
916.47        66.14002
916.87        66.32116
917.26        66.77778
917.66        67.34089
918.05        67.78149
918.45        67.99165
918.84        68.04655
919.24        68.02303
919.64        68.09476
920.03        68.29838
920.42        68.55561
920.82        68.70229
921.21         68.5032
921.61        67.96227
922.00        67.25549
922.40        66.67377
922.79        66.53973
923.19        66.58136
923.58        67.48624
923.98        69.39496
924.37        69.81748
924.77        67.47155
925.16         74.6478
925.55        69.17433
925.95        69.45198
926.34          69.223
926.74        68.33391
927.13        66.82778
927.52        65.90913
927.92          66.084
928.31        66.71469
928.70        67.59537
929.10        68.34725
929.49        68.87332
929.89         69.2932
930.28        69.51209
930.67        69.26415
931.07        68.56452
931.46        67.39412
931.85        66.17924
932.24        66.07169
932.64        67.24786
933.03         68.8185
933.42         69.9049
933.82        72.25428
934.21        70.89808
934.60        69.74754
934.99        68.52289
935.39        68.22999
935.78        68.92722
936.17        70.88799
936.56        76.69991
936.96        70.54687
937.35        73.91116
937.74        70.92726
938.13        68.71422
938.53        66.92667
938.92        66.25955
939.31         67.1753
939.70        68.55201
940.09        69.26581
940.49        69.04806
940.88        68.30885
941.27        67.41013
941.66        67.01213
942.05        67.35153
942.44        68.13793
942.84         68.9988
943.23        69.52956
943.62        69.60449
944.01        69.33816
944.40          69.018
944.79        69.10946
945.18         69.7067
945.57        70.64967
945.97        71.48756
946.36        71.64254
946.75         70.9519
947.14        69.60078
947.53         68.1011
947.92        67.33724
948.31        67.54617
948.70        68.45815
949.09        69.53651
949.48        69.94358
949.87         69.4893
950.26         68.4615
950.65        67.27328
951.04        66.59052
951.43        66.62107
951.82        67.14519
952.21        67.92596
952.60        68.56578
952.99        68.89371
953.38        69.02052
953.77        69.02776
954.16        69.02448
954.55        69.05387
954.94        69.07458
955.33        69.03433
955.72        68.87127
956.11        68.59305
956.50        68.24692
956.89        67.97802
957.28        67.99453
957.66        68.35227
958.05        68.90011
958.44        69.45577
958.83        69.73169
959.22        69.65244
959.61        69.28176
960.00        68.73638
960.39        68.26351
960.78        67.98615
961.16        67.89545
961.55         67.8578
961.94        67.76138
962.33        67.56616
962.72        67.30051
963.11        67.07335
963.49        67.09362
963.88        67.39429
964.27        67.89887
964.66        68.37035
965.04        68.50765
965.43        68.21946
965.82        67.63029
966.21        67.00438
966.60        66.81707
966.98        67.18869
967.37        67.95029
967.76         68.8194
968.15        69.32684
968.53        69.35378
968.92        69.02302
969.31        68.49493
969.69        68.02581
970.08        67.69066
970.47        67.40587
970.86         67.2296
971.24        67.27299
971.63        67.51353
972.02         67.9483
972.40        68.39375
972.79        68.46494
973.17        68.16657
973.56        67.61147
973.95        67.05694
974.33        66.97882
974.72        67.47632
975.11        68.31984
975.49          69.394
975.88        70.43414
976.26        71.36025
976.65        72.17236
977.04        72.62051
977.42        72.28669
977.81         71.1019
978.19        69.11686
978.58        67.11787
978.96        66.57668
979.35        67.81004
979.74         70.2235
980.12        72.78917
980.51        74.08202
980.89        74.00286
981.28        72.83736
981.66        71.04563
982.05        69.80824
982.43        69.62495
982.82        70.17938
983.20        71.02651
983.59        71.44431
983.97        71.28009
984.35        70.76914
984.74        70.10447
985.12        69.66788
985.51        69.56593
985.89        69.73022
986.28        69.99673
986.66        70.22086
987.04        70.40529
987.43        70.50306
987.81        70.42107
988.20        71.33365
988.58        73.35844
988.96        73.95521
989.35         72.4024
989.73        77.70968
990.12        74.45335
990.50        74.46869
990.88        73.79958
991.27        73.34482
991.65        73.16842
992.03        73.35877
992.42        73.81447
992.80        73.83425
993.18        73.28487
993.56        72.40902
993.95        71.51268
994.33        71.05454
994.71        71.16831
995.10        71.64927
995.48        72.34714
995.86        73.00779
996.24        73.49976
996.63        73.82755
997.01        73.99493
997.39        73.80774
997.77        73.26119
998.15        72.40072
998.54        71.49929
998.92        70.88635
999.30        70.72695
999.68        71.05088
1000.06          71.653
1000.45        72.02905
1000.83        72.10554
1001.21        71.93531
1001.59        71.94711
1001.97        72.77833
1002.35         74.3832
1002.73        76.38491
1003.12        78.16149
1003.50        78.98528
1003.88        78.75248
1004.26        77.68846
1004.64        76.20965
1005.02        75.21301
1005.40        75.07198
1005.78        75.55155
1006.16        76.31402
1006.54        76.71996
1006.92        76.59892
1007.30        76.28837
1007.69        75.86953
1008.07        75.51407
1008.45        75.28216
1008.83        75.03234
1009.21        75.14882
1009.59        76.35479
1009.97        78.51251
1010.35        81.06342
1010.73        83.18875
1011.11        84.23141
1011.49        84.24282
1011.86        83.18005
1012.24        81.10607
1012.62        81.19292
1013.00        81.45501
1013.38         81.4698
1013.76        79.74818
1014.14        83.04497
1014.52        87.82938
1014.90         80.0676
1015.28        80.23432
1015.66        81.44557
1016.04        78.83205
1016.41        80.76398
1016.79        81.71166
1017.17        82.02767
1017.55        81.02988
1017.93        79.23274
1018.31        77.62236
1018.69        77.41779
1019.06        78.94423
1019.44        81.53824
1019.82        84.21698
1020.20        85.79459
1020.58        86.04497
1020.95        85.16484
1021.33        83.41858
1021.71        81.79659
1022.09        81.15169
1022.46        81.24995
1022.84        81.69978
1023.22        82.18642
1023.60        82.64633
1023.97        83.22345
1024.35        83.95132
1024.73        84.75357
