SpectraSmart Spectrum 2.9.0.0
--------- Device Information -----------
Spectrum Name :  反射率_0
Saving Time :  2024/04/21 00:57:58
Spectro-Module Model Name : SE2030-DUVN
Spectro-Module Serial Number : OS361AC55029948
Wavelength Start : 200
Wavelength End : 1025
Wavelength Unit : Wavelength(nm)
Spectrum Unit : Reflectance(%)
-----------Spectrum Setting ------------
Integration Time : 20ms
Average : 10
Boxcar : 0
Background removal :  enabled
linearity correction :  enabled
SC :  disabled
Intensity correction :  disabled
DWT denoise :  enabled
savitzky-golay :  disabled
FFT :  disabled
Running average :  disabled
Kalman :  disabled
High pass :  disabled
---------------BEGIN--------------------
Wavelength(nm)             Reflectance(%)
200.29               0
200.75       -68.08244
201.21       -24.34399
201.67         1.97619
202.13        15.04635
202.58        21.18854
203.04        25.02483
203.50        27.42031
203.96        28.32071
204.42        27.10072
204.88        22.37424
205.34        15.53084
205.80        7.947312
206.26      -0.5326356
206.72       -7.598668
207.18        -17.1689
207.64       -38.30687
208.10       -69.36305
208.55       -105.5344
209.01       -116.6344
209.47       -74.93743
209.93        -21.3363
210.39        20.14835
210.85        45.92908
211.31        56.86281
211.77        57.23283
212.23        48.44767
212.69        26.32923
213.14        -12.7359
213.60       -76.00098
214.06       -242.3381
214.52       -581.5797
214.98       -231.4517
215.44       -44.93334
215.90        15.34352
216.36        33.95774
216.81        32.83171
217.27        12.83004
217.73       -85.14911
218.19        1088.742
218.65        462.9543
219.11       -988.1788
219.57       -35.56656
220.02        24.79465
220.48        35.31075
220.94        29.18626
221.40        4.919841
221.86       -53.90805
222.32       -93.25018
222.77       -41.70602
223.23        3.780907
223.69        26.58952
224.15        33.75686
224.61        32.65437
225.06        27.83086
225.52        20.64602
225.98        12.78032
226.44        5.548223
226.90        -2.82799
227.36       -7.661181
227.81       -1.006814
228.27        12.19185
228.73        25.58606
229.19         34.1015
229.65        35.20522
230.10        30.02812
230.56        20.08589
231.02        7.107497
231.48       -1.435666
231.93      -0.3533952
232.39        7.368792
232.85        16.05235
233.31        20.94623
233.77        22.25778
234.22        22.03806
234.68        20.84351
235.14        19.56546
235.60        18.95809
236.05        17.77963
236.51        16.17253
236.97        20.81864
237.43        32.01173
237.88        39.08097
238.34        37.75246
238.80         59.6637
239.26        47.99278
239.71        44.21869
240.17        33.22239
240.63        22.13781
241.08        16.25962
241.54        19.93945
242.00        32.66666
242.46        40.90758
242.91        41.10865
243.37        34.27726
243.83        23.12091
244.28        18.99332
244.74        27.48237
245.20        41.28755
245.66        52.61815
246.11        54.32121
246.57        45.86399
247.03        30.07559
247.48        8.975092
247.94       -14.94615
248.40       -46.06395
248.85       -112.7892
249.31       -305.4873
249.77       -444.8372
250.22       -146.0312
250.68       -24.87827
251.14        14.62787
251.59        28.57333
252.05         33.7758
252.51         34.9032
252.96        31.58807
253.42        24.92192
253.88         18.0352
254.33        13.09331
254.79        14.15604
255.25        21.36044
255.70        30.29869
256.16        38.15199
256.62         43.9342
257.07        47.24625
257.53        49.05588
257.99         49.9866
258.44        49.89548
258.90        49.21649
259.35        47.79879
259.81        46.14513
260.27        44.62779
260.72        43.72869
261.18        43.57068
261.63        43.65411
262.09        43.61095
262.55          42.766
263.00        41.16199
263.46        39.27511
263.91        37.48575
264.37        36.63136
264.83        36.64317
265.28        37.10864
265.74        37.62787
266.19         37.5464
266.65        36.81567
267.11         35.6279
267.56        34.18917
268.02        32.88428
268.47        31.79125
268.93        30.83583
269.38        29.92793
269.84        28.98711
270.30        27.99495
270.75        27.03063
271.21        26.18242
271.66        25.50129
272.12        25.01656
272.57        24.66455
273.03        24.41077
273.48        24.19381
273.94        23.98854
274.39        23.76277
274.85        23.50746
275.31        23.15539
275.76        22.70452
276.22        22.22223
276.67        21.73128
277.13        21.32458
277.58        20.99547
278.04        20.72822
278.49        20.51541
278.95        20.40345
279.40        20.33902
279.86        20.32568
280.31        20.23503
280.77        19.94528
281.22        19.43382
281.68        18.81907
282.13        18.19608
282.59        17.76647
283.04        17.54952
283.50        17.48396
283.95        17.54284
284.41        17.69875
284.86        17.91073
285.32        18.19786
285.77        18.43791
286.22         18.4584
286.68        18.26963
287.13        17.89254
287.59        17.56237
288.04        17.54123
288.50        17.83819
288.95        18.48946
289.41        19.30651
289.86        19.50247
290.32        18.93879
290.77        19.76021
291.22          18.694
291.68        18.77288
292.13        19.05587
292.59        19.56174
293.04        20.21024
293.50        20.95274
293.95        21.77662
294.40          22.675
294.86        23.64711
295.31         24.6743
295.77        25.74623
296.22        26.84584
296.68        27.96395
297.13        29.09023
297.58        30.24321
298.04        31.43553
298.49        32.70841
298.95        34.14009
299.40        35.72273
299.85        37.43657
300.31        39.19869
300.76        40.86522
301.21        42.41024
301.67        43.88449
302.12        45.35911
302.58        47.03732
303.03        48.92506
303.48         51.0036
303.94        53.15018
304.39        55.12893
304.84        56.89946
305.30        58.54456
305.75        60.16534
306.20        62.01072
306.66        64.11106
307.11        66.32495
307.57        68.51311
308.02        70.41157
308.47        71.98484
308.93        73.35252
309.38        74.58484
309.83          75.828
310.29        77.21272
310.74        78.59576
311.19        79.95267
311.65        81.19519
312.10         82.2886
312.55         83.2841
313.00        84.20947
313.46        85.10587
313.91        85.97019
314.36        86.78194
314.82        87.56022
315.27        88.33551
315.72          89.111
316.18        89.88361
316.63        90.58292
317.08        91.09554
317.53        91.40627
317.99        91.55477
318.44        91.64761
318.89        91.84341
319.35        92.18262
319.80        92.62406
320.25          93.096
320.70        93.48244
321.16        93.73533
321.61        93.90512
322.06        94.01331
322.51        94.10074
322.97        94.17578
323.42        94.25943
323.87        94.34212
324.32        94.43213
324.78        94.51511
325.23        94.62402
325.68        94.76284
326.13        94.95774
326.59        95.18474
327.04        95.48544
327.49        95.77276
327.94        95.93721
328.39        95.95557
328.85        95.82215
329.30        95.70049
329.75         95.7486
330.20        96.01284
330.66        96.42018
331.11        96.89613
331.56        97.18482
332.01        97.22939
332.46        97.09826
332.92        96.89838
333.37         96.9435
333.82        97.26864
334.27        97.80028
334.72        98.42001
335.17        98.93134
335.63         99.2408
336.08         99.4578
336.53        99.62711
336.98        99.86678
337.43        100.2117
337.88        100.6143
338.34        101.0049
338.79        101.3286
339.24        101.5453
339.69        101.6915
340.14        101.8099
340.59        101.9642
341.05        102.1773
341.50        102.4354
341.95        102.7216
342.40        103.0133
342.85        103.3006
343.30        103.5928
343.75        103.8759
344.20        104.1322
344.66        104.3603
345.11         104.531
345.56        104.6742
346.01        104.8361
346.46         105.026
346.91        105.2415
347.36        105.4059
347.81        105.4184
348.26        105.2768
348.72        104.9691
349.17        104.7281
349.62        104.7155
350.07        104.9991
350.52        105.4962
350.97        106.0063
351.42        106.2008
351.87        105.9936
352.32        105.4808
352.77        104.8465
353.22        104.3749
353.67        104.1384
354.13        104.0687
354.58        104.0052
355.03        103.7455
355.48        103.2466
355.93        102.5925
356.38        101.9232
356.83        101.4379
357.28        101.1695
357.73        101.0369
358.18         100.905
358.63        100.5656
359.08        99.97241
359.53        99.20609
359.98        98.37278
360.43        97.62879
360.88        97.01633
361.33         96.4791
361.78        95.97841
362.23        95.45776
362.68        94.89397
363.13        94.31367
363.58        93.70199
364.03        93.02592
364.48        92.28883
364.93        91.50282
365.38        90.71414
365.83        90.00543
366.28        89.39429
366.73        88.84762
367.18        88.33929
367.63        87.82529
368.08        87.28394
368.53         86.7327
368.98        86.13015
369.43         85.4034
369.88        84.54495
370.33        83.57148
370.78         82.5844
371.23        81.77554
371.68        81.20856
372.13        80.84518
372.58         80.5834
373.03        80.24179
373.48        79.76392
373.93        79.19498
374.38         78.6009
374.83        78.10065
375.28        77.72477
375.72        77.40582
376.17        77.10691
376.62        76.72255
377.07        76.21851
377.52        75.61775
377.97        74.95885
378.42        74.32071
378.87        73.74813
379.32        73.23913
379.77        72.76566
380.22        72.26885
380.67         71.7284
381.11        71.16272
381.56         70.6143
382.01        70.17085
382.46        69.85881
382.91        69.65311
383.36        69.47392
383.81        69.20013
384.26        68.80051
384.71        68.30097
385.15        67.77107
385.60        67.38123
386.05        67.13629
386.50        66.98952
386.95        66.83331
387.40        66.50729
387.85        65.99923
388.29        65.34786
388.74        64.75455
389.19        64.31982
389.64        64.06067
390.09        63.92118
390.54        63.83466
390.98        63.68502
391.43        63.47691
391.88        63.23499
392.33        62.99169
392.78        62.79737
393.23        62.65987
393.67        62.50492
394.12        62.38065
394.57        62.25692
395.02        62.09981
395.47        61.81927
395.91        61.47081
396.36        61.20836
396.81        61.07566
397.26        61.02705
397.71        60.98987
398.15        60.86358
398.60        60.69442
399.05        60.38825
399.50        60.07702
399.95        60.06129
400.39        60.27999
400.84        60.42282
401.29        60.37182
401.74        59.90662
402.18        59.18879
402.63        58.89838
403.08        59.02071
403.53        58.88074
403.97        58.46457
404.42        58.23991
404.87        58.20787
405.32        58.14987
405.76        58.03833
406.21        57.97344
406.66        57.94366
407.11        57.81058
407.55        57.61359
408.00        57.64581
408.45        57.84843
408.90        57.59748
409.34        57.01785
409.79        56.97263
410.24         57.3693
410.68        57.44482
411.13         57.1697
411.58        56.94878
412.03        56.86367
412.47         56.8813
412.92        56.99724
413.37        57.21804
413.81        57.43341
414.26        57.52935
414.71        57.46531
415.15        57.28585
415.60        57.04011
416.05        56.87367
416.49         56.8334
416.94        56.86665
417.39        56.92821
417.83        56.94324
418.28        56.88909
418.73        56.78659
419.17        56.65615
419.62        56.53901
420.07        56.45526
420.51        56.39484
420.96        56.35843
421.41        56.33261
421.85        56.29512
422.30        56.21429
422.74        56.12573
423.19        56.32345
423.64        56.73574
424.08        56.99679
424.53        56.99633
424.98        57.04509
425.42         57.1631
425.87        56.99251
426.31        56.67823
426.76        56.87127
427.21        57.45818
427.65        57.59605
428.10        57.27002
428.54        57.14677
428.99        57.26775
429.44        57.38053
429.88        57.38173
430.33        57.11948
430.77        56.71064
431.22        56.67939
431.66        57.01413
432.11        57.47157
432.56        57.87506
433.00         57.9519
433.45        57.55976
433.89        57.13762
434.34        56.98362
434.78        57.08277
435.23        56.94861
435.67        58.72234
436.12        57.95201
436.57        58.00421
437.01        57.78811
437.46        57.50592
437.90         57.7902
438.35        58.06867
438.79        58.12514
439.24        58.15242
439.68         58.0584
440.13        57.77135
440.57        57.43065
441.02        57.60231
441.46        58.18595
441.91         58.3879
442.35         58.2012
442.80        58.54469
443.24         59.2404
443.69        59.31691
444.13        58.80314
444.58        58.45296
445.02        58.35944
445.47        58.46595
445.91        58.67799
446.36        58.76068
446.80        58.67755
447.24        58.55095
447.69        58.46075
448.13        58.61359
448.58        58.80649
449.02        58.87605
449.47        58.76568
449.91        58.70699
450.36         58.7214
450.80        58.59286
451.25        58.40087
451.69        58.41419
452.13        58.60294
452.58        58.64467
453.02        58.52368
453.47        58.47775
453.91        58.49903
454.36        58.45993
454.80        58.34636
455.24        58.24483
455.69        58.18503
456.13        58.04219
456.58        57.87447
457.02        57.99546
457.46        58.04718
457.91         58.0554
458.35        57.97224
458.79         57.9144
459.24          57.956
459.68         57.7561
460.13        57.31135
460.57        57.81995
461.01        57.32846
461.46        57.33292
461.90        57.35207
462.34        57.41969
462.79        57.41545
463.23        57.60133
463.68        57.84887
464.12          57.611
464.56        57.03794
465.01        57.07102
465.45        57.49797
465.89        57.48759
466.34        57.13604
466.78         56.8869
467.22         56.7261
467.67        57.39965
468.11        56.84881
468.55        56.94348
468.99        57.03164
469.44        57.02166
469.88        56.89408
470.32        56.69897
470.77        56.52206
471.21        56.44651
471.65        56.49318
472.10        56.62578
472.54         56.7677
472.98        56.82087
473.42        56.77886
473.87        56.66721
474.31        56.47898
474.75         56.4009
475.20        56.47446
475.64        56.12154
476.08        56.37112
476.52         56.3714
476.97        56.38238
477.41        56.65285
477.85        57.11534
478.29        56.59123
478.74        56.58329
479.18        56.28283
479.62        56.60986
480.06        56.66828
480.50        56.63965
480.95        56.64228
481.39        56.56875
481.83        57.06277
482.27        56.97535
482.72        56.79311
483.16        56.78268
483.60        57.04398
484.04        56.97048
484.48        56.80154
484.93        57.01957
485.37        56.51025
485.81        56.87438
486.25        56.82212
486.69        57.41802
487.14        57.66082
487.58        57.50563
488.02        57.02654
488.46        56.83512
488.90        56.80296
489.34        57.34726
489.79         57.0349
490.23        57.20087
490.67        57.03571
491.11        56.98655
491.55        57.03657
491.99        57.17109
492.43        57.23359
492.88        57.20017
493.32         57.2109
493.76        57.23059
494.20        57.25323
494.64        57.30698
495.08        57.02515
495.52        57.02236
495.96        57.08298
496.41         57.2863
496.85        57.17003
497.29        56.79436
497.73        56.84254
498.17        57.00637
498.61        57.28207
499.05        57.44433
499.49        57.31982
499.93        57.02675
500.37         56.9388
500.82        57.07269
501.26        57.37588
501.70        57.70824
502.14        57.37853
502.58        56.97224
503.02        56.79496
503.46        56.97789
503.90        57.15809
504.34         57.2436
504.78        57.30874
505.22        57.34864
505.66        57.26818
506.10        57.07793
506.54        57.07339
506.98        57.32576
507.42        56.73623
507.86        57.14136
508.30        57.11979
508.74        57.08987
509.18        57.09972
509.62        57.11644
510.06        57.14144
510.50        57.13597
510.94        57.05158
511.38         56.9131
511.82        56.83103
512.26        56.82901
512.70        56.81855
513.14         56.7714
513.58        56.78387
514.02         56.8766
514.46        56.55304
514.90        56.68011
515.34        56.60489
515.78        56.59903
516.22        56.58621
516.66        56.42545
517.10        56.74791
517.54        56.56617
517.98        56.65159
518.42        56.71339
518.86        56.77436
519.30        56.82861
519.74        56.84262
520.18        56.83916
520.62        56.92114
521.06        57.04879
521.50          57.011
521.93        56.83491
522.37        56.74661
522.81        56.76347
523.25        56.76456
523.69        56.72757
524.13        56.66951
524.57        56.58762
525.01        56.48311
525.45        56.38331
525.89        56.32915
526.32        56.32826
526.76        56.37439
527.20        56.44013
527.64        56.48412
528.08        56.49232
528.52        56.47396
528.96        56.44803
529.40        56.43782
529.83        56.44629
530.27        56.49218
530.71        56.53456
531.15        56.50843
531.59        56.40711
532.03         56.2578
532.46        56.10858
532.90        56.04659
533.34        56.08398
533.78        56.19347
534.22        56.31767
534.66        56.36803
535.09        56.31723
535.53         56.2132
535.97          56.091
536.41         56.0206
536.85         56.0222
537.28        56.07417
537.72         56.1501
538.16        56.20987
538.60        56.23774
539.04        56.24453
539.47        56.23222
539.91        56.25046
540.35        56.28802
540.79        56.33352
541.22        56.36067
541.66        56.34185
542.10        56.27156
542.54        56.16943
542.97        56.05861
543.41        56.00164
543.85        56.00731
544.29        56.06803
544.72        56.15907
545.16        56.27475
545.60        56.39113
546.04        56.49006
546.47        56.58154
546.91         56.7048
547.35        56.83535
547.79         56.9339
548.22        56.95131
548.66        56.83645
549.10        56.64149
549.53        56.52859
549.97        56.51904
550.41        56.48205
550.84        56.42648
551.28        56.43147
551.72        56.48359
552.15        56.56506
552.59        56.68847
553.03        56.62267
553.46        56.76577
553.90         56.7628
554.34        56.72484
554.77        56.67171
555.21        56.66338
555.65        56.62284
556.08        56.79599
556.52        56.96305
556.96        57.13151
557.39        57.25771
557.83        57.30882
558.27        57.17147
558.70        56.92814
559.14        56.81927
559.57        56.86243
560.01        57.04037
560.45        57.23643
560.88        57.18051
561.32        56.96135
561.75        56.82818
562.19        56.85254
562.63        56.98233
563.06        57.12909
563.50        57.05477
563.93        56.78911
564.37        56.64756
564.80        56.65483
565.24        56.76833
565.68         56.9425
566.11        57.04874
566.55        57.08297
566.98        57.17208
567.42        57.28089
567.85        57.19324
568.29        57.04103
568.72        56.99917
569.16        57.04305
569.60        57.58311
570.03        57.31384
570.47        57.44484
570.90        57.55825
571.34        57.71022
571.77        57.71914
572.21          57.765
572.64        57.71254
573.08        57.40763
573.51        57.83348
573.95        57.95706
574.38        57.47771
574.82        58.43236
575.25        58.32787
575.69        58.05644
576.12        57.32196
576.56        57.77256
576.99        58.07202
577.42         57.9484
577.86        57.99227
578.29        58.49318
578.73        58.60572
579.16          58.126
579.60         57.6694
580.03        58.02257
580.47        57.75038
580.90        57.73229
581.33        57.85417
581.77          57.983
582.20        58.30529
582.64         58.3251
583.07        57.93984
583.51        57.76426
583.94        57.62114
584.37        57.45377
584.81        57.36409
585.24        57.33661
585.68         57.7658
586.11        57.62054
586.54        57.51918
586.98        57.68802
587.41        57.42115
587.85        57.85338
588.28        57.72182
588.71        57.80765
589.15        57.78187
589.58        57.44143
590.01        57.51981
590.45          57.234
590.88        57.58664
591.31        57.27229
591.75        57.20993
592.18        57.18144
592.61        57.32653
593.05        57.61969
593.48        57.43504
593.91        57.50672
594.35        57.48099
594.78        57.42421
595.21          57.569
595.65         57.5528
596.08        57.46526
596.51        57.70915
596.94        57.73683
597.38        57.78733
597.81         57.7253
598.24        57.74307
598.68        57.55565
599.11        57.51587
599.54        57.87137
599.97        57.32848
600.41        57.68782
600.84        58.09298
601.27        57.95444
601.70        57.84803
602.14        57.72602
602.57        57.68221
603.00        57.77616
603.43        58.02038
603.87        58.42567
604.30        58.30072
604.73        58.14585
605.16        57.94178
605.60        57.96562
606.03        58.07227
606.46        58.27983
606.89        58.05724
607.32        57.78263
607.76        58.37971
608.19        58.33968
608.62        58.10796
609.05        58.90866
609.48         58.3602
609.92        58.37763
610.35         58.2033
610.78        58.25662
611.21        58.33105
611.64        58.29283
612.07        58.33954
612.50        58.36767
612.94        58.66549
613.37        58.46381
613.80        58.47457
614.23        58.49618
614.66        58.26146
615.09         58.2462
615.52        58.15414
615.96        58.15815
616.39        58.08945
616.82        57.92362
617.25        58.28632
617.68        58.14673
618.11        58.13318
618.54        58.13942
618.97        58.04322
619.40        57.90076
619.84        58.16059
620.27        58.23329
620.70        58.27425
621.13        58.14302
621.56        58.17307
621.99        58.38444
622.42        58.50619
622.85        58.44876
623.28          58.428
623.71        58.49994
624.14        58.04346
624.57         58.1576
625.00        58.51244
625.43        57.98952
625.86        58.15194
626.29        58.57976
626.72        58.23565
627.15        58.41322
627.58         58.2774
628.01        58.32366
628.44        58.02957
628.87        57.81778
629.30        58.33253
629.73        58.09728
630.16        57.92389
630.59        57.84279
631.02        58.03365
631.45        57.82031
631.88        57.82257
632.31        57.80933
632.74        57.81032
633.17        57.82153
633.60        57.78118
634.03        57.69617
634.46        57.62985
634.89        57.51239
635.32        57.46085
635.75         57.4557
636.18        57.48431
636.61        57.52965
637.04        57.56692
637.47        57.58543
637.89         57.5954
638.32        57.58238
638.75        57.54785
639.18        57.49539
639.61        57.42881
640.04        57.35946
640.47        57.30679
640.90        57.27713
641.33        57.26638
641.76        57.27729
642.18        57.31284
642.61        57.34785
643.04        57.41266
643.47        57.49573
643.90        57.49564
644.33         57.3885
644.76        57.52047
645.18        57.30899
645.61         57.3111
646.04        57.34169
646.47        57.33765
646.90        57.29527
647.33        57.27676
647.75        57.28418
648.18         57.3077
648.61        57.35229
649.04          57.373
649.47        57.35536
649.89        57.58456
650.32        57.45281
650.75        57.63932
651.18        57.88118
651.61        57.82605
652.03        57.51598
652.46        57.37097
652.89        57.47497
653.32        57.54564
653.74        57.49884
654.17         57.8139
654.60        57.46622
655.03        57.33826
655.46         57.5405
655.88         58.0613
656.31        58.87778
656.74        61.85803
657.16        60.23484
657.59          58.911
658.02        57.83119
658.45        58.01249
658.87        57.98718
659.30        57.82584
659.73        57.53061
660.15        57.67005
660.58        57.82111
661.01        58.21041
661.44        58.52245
661.86        58.45468
662.29        58.06461
662.72        57.79871
663.14        57.76501
663.57        57.83636
664.00         57.9627
664.42        58.03012
664.85         58.0257
665.27        57.94561
665.70        57.98407
666.13         57.9468
666.55        57.89908
666.98        57.86229
667.41          57.819
667.83        57.82618
668.26        57.88703
668.69        57.93887
669.11        57.95953
669.54        58.11312
669.96        58.43483
670.39        58.11802
670.82        58.53857
671.24        58.48525
671.67        58.38311
672.09        58.31507
672.52        58.31374
672.94        58.26919
673.37        58.17893
673.80        58.09114
674.22        58.02966
674.65        57.99271
675.07        58.00114
675.50        58.02481
675.92        58.07087
676.35        58.13958
676.77        58.21803
677.20        58.33053
677.62        58.45473
678.05        58.44181
678.47        58.26461
678.90        58.36622
679.32        58.07294
679.75        58.09093
680.17        58.21937
680.60        58.44456
681.02        58.68132
681.45        58.80507
681.87        58.79517
682.30        58.65136
682.72        58.47018
683.15        58.43053
683.57        58.51447
684.00        58.66572
684.42        58.49781
684.85        58.51826
685.27        58.60048
685.70        58.65321
686.12        58.64111
686.54        58.59678
686.97        58.51632
687.39         58.4163
687.82        58.33813
688.24        58.32543
688.66        58.36995
689.09        58.68669
689.51        58.78043
689.94        58.94949
690.36        59.02177
690.78        58.97987
691.21        58.86182
691.63        58.72621
692.06        58.64312
692.48        58.69809
692.90        58.84755
693.33        58.91099
693.75        58.88077
694.17        58.81268
694.60        58.72549
695.02        58.83289
695.44        58.87545
695.87         58.8688
696.29        58.79579
696.71         58.8645
697.14        59.06849
697.56         59.3405
697.98        59.59692
698.41        59.59317
698.83        59.60443
699.25        59.41179
699.68        59.16953
700.10        58.99709
700.52        58.93206
700.94        58.94387
701.37        58.97794
701.79        58.98897
702.21         58.9421
702.64        58.87191
703.06        58.80675
703.48        58.79268
703.90         58.8428
704.33        58.93049
704.75        59.03759
705.17        59.11961
705.59        59.16381
706.01        59.18092
706.44        59.18637
706.86        59.22327
707.28        59.28718
707.70        59.36251
708.12        59.43994
708.55        59.49622
708.97        59.51877
709.39        59.52839
709.81        59.51913
710.23        59.48403
710.66        59.43047
711.08        59.37172
711.50        59.32274
711.92         59.3229
712.34        59.37768
712.76        59.47285
713.19        59.57145
713.61        59.65367
714.03        59.68461
714.45        59.69011
714.87        59.68419
715.29        59.64912
715.71        59.58406
716.13        59.64133
716.56        59.53997
716.98        59.56534
717.40        59.62277
717.82        59.71486
718.24        59.80337
718.66          59.828
719.08        59.78156
719.50        59.68083
719.92        59.57737
720.34        59.55293
720.76        59.62378
721.19        59.75326
721.61         59.9105
722.03        60.01581
722.45        60.04689
722.87        60.03018
723.29        59.98747
723.71        59.95197
724.13        59.93537
724.55        59.93733
724.97        59.97467
725.39        60.02941
725.81        60.08966
726.23         60.3377
726.65         60.4094
727.07        60.50787
727.49        60.52477
727.91        60.46777
728.33        60.37576
728.75        60.36018
729.17        60.42764
729.59         60.4721
730.01        60.48333
730.43        60.51459
730.85        60.56027
731.27        60.57381
731.69        60.56863
732.10        60.54384
732.52        60.68016
732.94        60.56974
733.36         60.3307
733.78        60.25228
734.20        60.37724
734.62        60.50111
735.04        60.54584
735.46        60.62804
735.88        60.77455
736.30        60.30682
736.72          60.391
737.13        60.36355
737.55        60.50751
737.97        60.37907
738.39        60.07996
738.81        60.29668
739.23        60.91035
739.65        61.02094
740.06        60.61827
740.48        60.50367
740.90        60.66705
741.32        60.69349
741.74        60.59135
742.16        60.59322
742.57        60.72205
742.99        60.89436
743.41        61.06739
743.83        61.15154
744.25        61.12627
744.67        61.02314
745.08        60.91081
745.50        60.85815
745.92        60.90378
746.34        61.02649
746.75         61.1708
747.17        61.24159
747.59         61.2169
748.01        61.09618
748.42        60.95223
748.84        60.92274
749.26        60.99836
749.68        61.10191
750.09        61.17731
750.51        61.04932
750.93        60.81532
751.35        60.92236
751.76        61.31072
752.18        61.46567
752.60        61.35501
753.01        61.29462
753.43        61.27018
753.85        61.17116
754.27        61.00888
754.68        60.81337
755.10          60.659
755.52        60.63964
755.93        60.77612
756.35         61.0406
756.77        61.32088
757.18        61.51321
757.60        61.58286
758.02        61.40546
758.43        61.08607
758.85        61.37313
759.26          61.412
759.68        61.80688
760.10        61.51059
760.51        61.22102
760.93        61.50751
761.34         61.4163
761.76        61.47724
762.18        61.65273
762.59        61.91863
763.01        61.89051
763.42        61.10636
763.84        61.13931
764.26        61.47783
764.67        61.97122
765.09        62.34137
765.50        62.56151
765.92        62.58239
766.33        62.28744
766.75        61.80993
767.16        61.57638
767.58        61.61228
768.00        61.93379
768.41        62.38885
768.83         62.2805
769.24        61.68025
769.66        61.85626
770.07        61.85526
770.49         62.0518
770.90        62.08987
771.32        61.94245
771.73        61.68546
772.15        61.61004
772.56        61.75821
772.97        61.92431
773.39        62.02905
773.80        62.11773
774.22        62.13912
774.63        62.10346
775.05        62.02334
775.46        61.97131
775.88         61.9487
776.29        61.96556
776.70        61.99326
777.12        61.99826
777.53        61.98882
777.95        61.96505
778.36        61.95391
778.77        61.99015
779.19        62.07999
779.60        62.21774
780.02        62.35226
780.43         62.4466
780.84        62.49221
781.26         62.4093
781.67        62.28856
782.09        62.41169
782.50        62.70226
782.91        62.74513
783.33        62.53916
783.74        62.50861
784.15        62.63892
784.57        62.70193
784.98        62.70892
785.39        62.76244
785.81        62.86037
786.22         62.9639
786.63        63.05152
787.04        63.09369
787.46        63.09624
787.87        63.05688
788.28        62.99932
788.70        62.94462
789.11        62.88949
789.52        62.84818
789.93        62.84033
790.35        62.88488
790.76        62.98957
791.17        63.14203
791.58        63.31638
792.00          63.425
792.41        63.47186
792.82        63.54712
793.23         63.6418
793.65        63.54993
794.06        63.40451
794.47        63.63697
794.88        64.10074
795.29        64.48367
795.71        64.28156
796.12        64.14867
796.53        64.01059
796.94        63.99848
797.35         64.0808
797.76        63.97511
798.18         63.7065
798.59        63.56031
799.00        63.55576
799.41        63.54052
799.82         63.4895
800.23        63.44427
800.64        63.40179
801.06        63.32249
801.47        63.29053
801.88        63.37526
802.29        63.58374
802.70        63.88669
803.11        64.19012
803.52        64.33517
803.93        64.28845
804.34        64.09649
804.75        63.85701
805.17        63.76624
805.58        63.90428
805.99        64.07135
806.40        64.21761
806.81        64.56693
807.22        64.93094
807.63         64.6525
808.04        63.90051
808.45        63.59727
808.86        63.84676
809.27         64.1458
809.68        64.37908
810.09        64.56074
810.50        64.63588
810.91        64.61838
811.32        64.51904
811.73        64.35242
812.14        64.14256
812.55        63.88364
812.96        63.66337
813.37        63.63084
813.78        63.80962
814.19        64.15816
814.60        64.53608
815.01        64.71975
815.42        64.65672
815.83        64.40223
816.24        64.06846
816.65        63.87357
817.05         63.9031
817.46        64.07247
817.87        64.31664
818.28        64.49624
818.69        64.57401
819.10        64.59197
819.51         64.6114
819.92        64.73149
820.33        64.96405
820.74        65.24816
821.14        65.49722
821.55        65.61029
821.96         65.5525
822.37        65.36774
822.78        65.09949
823.19         64.8269
823.60        64.59204
824.00        64.38904
824.41         64.2234
824.82        64.16158
825.23        64.20562
825.64        64.35471
826.04        64.53648
826.45        64.58708
826.86        64.49064
827.27        64.29079
827.68        64.08643
828.08        64.08205
828.49         64.2573
828.90        64.58334
829.31        64.99731
829.72        65.30095
830.12        65.44265
830.53        65.84522
830.94        65.72903
831.35        65.56746
831.75        65.16833
832.16        64.56312
832.57        63.96914
832.97        63.75236
833.38        63.98406
833.79        64.53734
834.20        65.20081
834.60        65.64671
835.01        65.78166
835.42         65.7069
835.82        65.49051
836.23        65.21169
836.64        64.94758
837.04        64.67821
837.45        64.45977
837.86        64.44702
838.26        64.66701
838.67        65.07378
839.08        65.54295
839.48        65.84327
839.89        65.90528
840.29         65.7859
840.70        65.58881
841.11        65.49529
841.51        65.57208
841.92        65.72482
842.33         65.8989
842.73        66.00412
843.14        65.96742
843.54         65.8636
843.95        65.71458
844.35        65.57078
844.76        65.44802
845.17        65.33469
845.57        65.26604
845.98        65.26593
846.38        65.36628
846.79        65.54741
847.19        65.78137
847.60        65.94007
848.00         66.0294
848.41        66.03468
848.81        66.07224
849.22        66.27676
849.62        66.69611
850.03        67.22105
850.43         67.7292
850.84        67.93666
851.24        67.82835
851.65        67.41452
852.05        66.87341
852.46        66.44107
852.86        66.22163
853.27         66.2045
853.67        66.21772
854.07        66.14088
854.48        65.91185
854.88        65.59973
855.29        65.27958
855.69        65.24132
856.10          65.458
856.50        65.92223
856.90        66.39138
857.31        66.51424
857.71        66.25919
858.12        65.68281
858.52        65.00345
858.92        64.53226
859.33        64.37108
859.73        64.48704
860.13        64.77383
860.54        65.04861
860.94        65.29562
861.34        65.51106
861.75        65.69781
862.15        65.93158
862.55        66.17509
862.96        66.37593
863.36        66.46431
863.76        66.29576
864.17        65.85673
864.57        65.23471
864.97        64.57211
865.38        64.08763
865.78        63.89685
866.18        63.94972
866.58        64.19477
866.99        64.48557
867.39        64.78231
867.79        65.09766
868.19        65.39045
868.60        65.50464
869.00        65.49668
869.40        65.56897
869.80        65.67087
870.21        65.52185
870.61        65.16924
871.01        64.77333
871.41        64.42023
871.81        64.13324
872.22        63.95768
872.62        63.90045
873.02        63.96432
873.42        64.31829
873.82        64.74628
874.22        64.70918
874.63        64.45078
875.03        64.47178
875.43        64.81821
875.83        66.17951
876.23        65.83299
876.63        65.18057
877.03        63.94467
877.44        61.55706
877.84        169.1392
878.24        62.10762
878.64        63.07074
879.04        64.94248
879.44        65.82095
879.84         62.7606
880.24        67.49982
880.64         67.4081
881.04        64.70589
881.44        62.66178
881.84         61.9386
882.24        62.59215
882.65        63.92707
883.05        64.42833
883.45        63.78963
883.85        62.92666
884.25        62.25986
884.65        62.04479
885.05        62.39981
885.45        63.12917
885.85        63.97025
886.25        64.59622
886.65        64.90195
887.05        64.98722
887.45        64.88795
887.85         64.6601
888.25        64.35741
888.65        63.96575
889.04        63.58694
889.44        63.40435
889.84        63.45782
890.24        63.71117
890.64        64.05887
891.04        64.33169
891.44        64.48193
891.84        64.54663
892.24        64.56534
892.64        64.60813
893.04        64.69796
893.44        64.81322
893.83         64.9371
894.23        65.02135
894.63        65.07829
895.03        65.13609
895.43        65.24053
895.83        65.45745
896.23        65.77929
896.63        66.14036
897.02         66.4754
897.42        66.76053
897.82        66.94468
898.22        67.04136
898.62        66.98896
899.01         66.7025
899.41        66.17223
899.81        65.45981
900.21        64.71732
900.61        64.18997
901.00        63.93921
901.40        63.98201
901.80        64.21713
902.20        64.32925
902.59        64.23664
902.99        64.28194
903.39        64.65182
903.79        63.99123
904.18        64.94657
904.58         65.3228
904.98        65.72626
905.38        65.84826
905.77        65.64265
906.17        65.21733
906.57        64.71659
906.96        64.47642
907.36        64.57503
907.76        64.93204
908.15        65.42094
908.55        65.68031
908.95        65.66316
909.34        65.42519
909.74        65.13988
910.14        65.04145
910.53        65.18109
910.93        65.45947
911.33        65.69973
911.72        65.62621
912.12        65.20084
912.52        64.54614
912.91        63.83109
913.31        63.39389
913.70        63.30107
914.10        63.45583
914.49          63.783
914.89        64.06933
915.29        64.26124
915.68        64.39433
916.08        64.50605
916.47        64.60534
916.87        64.73207
917.26        64.86475
917.66        64.98708
918.05        65.10676
918.45        65.20531
918.84        65.28735
919.24        65.38712
919.64        65.61742
920.03        65.98047
920.42         66.4109
920.82        66.75157
921.21        66.77135
921.61        66.45625
922.00        65.95449
922.40        65.49136
922.79        65.29107
923.19         65.0705
923.58        65.62256
923.98        67.21772
924.37        67.34334
924.77        64.62486
925.16        72.38747
925.55        66.52849
925.95        67.12029
926.34        67.30712
926.74        66.90795
927.13        65.81021
927.52        64.95551
927.92        64.79171
928.31        64.78127
928.70        64.94151
929.10        65.19808
929.49        65.52715
929.89        65.98127
930.28        66.37868
930.67        66.29567
931.07        65.69056
931.46        64.58507
931.85         63.4535
932.24        63.54335
932.64        65.03558
933.03        66.94223
933.42        68.29729
933.82        70.89951
934.21        69.51676
934.60        68.24551
934.99        66.85891
935.39        66.53272
935.78        67.35596
936.17         69.6003
936.56         75.7868
936.96        69.26363
937.35        72.38591
937.74         68.5613
938.13        65.50462
938.53        63.39717
938.92        63.18567
939.31        65.19146
939.70        67.69021
940.09         68.8651
940.49        68.35616
940.88        66.76147
941.27        64.79361
941.66        63.81663
942.05        64.30331
942.44        65.70191
942.84        67.31666
943.23        68.29297
943.62        68.38545
944.01        67.87598
944.40        67.15111
944.79        66.83443
945.18        67.10606
945.57        67.74438
945.97        68.35191
946.36        68.44604
946.75        67.87288
947.14        66.82294
947.53        65.69044
947.92        65.13363
948.31        65.32613
948.70         66.0379
949.09        66.87828
949.48        67.24921
949.87        67.00666
950.26        66.36464
950.65        65.56338
951.04        64.98856
951.43        64.77954
951.82        64.80003
952.21        65.00884
952.60        65.34536
952.99        65.73204
953.38        66.17573
953.77        66.55988
954.16        66.70235
954.55        66.58016
954.94        66.23714
955.33        65.76973
955.72        65.38967
956.11        65.18408
956.50        65.09665
956.89        65.13654
957.28         65.2931
957.66        65.57915
958.05        65.96136
958.44        66.31488
958.83        66.42773
959.22        66.25988
959.61        65.81104
960.00        65.32549
960.39        65.27462
960.78        65.75383
961.16        66.63855
961.55        67.43874
961.94        67.58159
962.33        66.98201
962.72        65.79478
963.11        64.45865
963.49        63.89174
963.88         64.3762
964.27          65.574
964.66        66.93835
965.04        67.73187
965.43        67.73138
965.82        67.21776
966.21        66.41264
966.60        65.71267
966.98         65.2958
967.37        65.02358
967.76        64.91463
968.15        65.00489
968.53        65.29366
968.92         65.7996
969.31        66.36846
969.69        66.70162
970.08        66.70074
970.47         66.4043
970.86        66.05247
971.24        66.09514
971.63        66.58836
972.02        67.36089
972.40        68.09538
972.79        68.23775
973.17        67.74831
973.56        66.83343
973.95        65.78364
974.33        65.11543
974.72        65.00984
975.11        65.27626
975.49        65.92101
975.88        66.86473
976.26        68.05348
976.65        69.40661
977.04         70.5593
977.42        70.93731
977.81        70.40392
978.19        69.02156
978.58        67.46255
978.96        66.99101
979.35        67.88866
979.74        69.65685
980.12        71.48872
980.51         72.1871
980.89        71.69479
981.28         70.2886
981.66        68.37078
982.05        67.01553
982.43        66.70085
982.82        67.14138
983.20        68.06684
983.59        69.01832
983.97        69.85063
984.35        70.69341
984.74         71.3272
985.12        71.42702
985.51        70.93823
985.89        70.03057
986.28        69.06055
986.66        68.62814
987.04        68.89256
987.43         69.5873
987.81        70.28637
988.20        71.52827
988.58        73.24448
988.96        73.17937
989.35        70.70291
989.73        75.75387
990.12        71.79806
990.50        71.54543
990.88         70.6483
991.27        70.08794
991.65        69.90741
992.03        70.24506
992.42        70.91631
992.80        70.96959
993.18        70.22083
993.56        68.96087
993.95        67.64762
994.33        66.99795
994.71        67.22234
995.10        68.05456
995.48        69.20903
995.86        70.21042
996.24        70.85384
996.63        71.18403
997.01        71.32701
997.39        71.28592
997.77        71.07778
998.15        70.66589
998.54        70.14308
998.92        69.55527
999.30        69.00834
999.68        68.62875
1000.06        68.41479
1000.45        68.28373
1000.83        68.34145
1001.21        68.52985
1001.59        69.16304
1001.97        70.68082
1002.35        72.92557
1002.73        75.54807
1003.12        77.83565
1003.50        78.96047
1003.88        78.81393
1004.26        77.59752
1004.64        75.85114
1005.02        74.74551
1005.40        74.73489
1005.78        75.54051
1006.16        76.53768
1006.54        76.60251
1006.92        75.48824
1007.30        73.72279
1007.69        71.83498
1008.07         70.6009
1008.45        70.20555
1008.83        70.37074
1009.21         71.1452
1009.59         72.5731
1009.97        74.33799
1010.35        76.16016
1010.73          77.632
1011.11        78.59667
1011.49        79.22065
1011.86        79.29529
1012.24        78.65197
1012.62        79.99038
1013.00        80.66196
1013.38        80.44458
1013.76        78.19286
1014.14        81.86489
1014.52        87.50617
1014.90        80.89848
1015.28        82.27029
1015.66        83.43865
1016.04        79.72201
1016.41        79.10333
1016.79        77.44505
1017.17        76.79391
1017.55        76.69895
1017.93        77.31067
1018.31        78.55663
1018.69        79.67054
1019.06         80.4434
1019.44        80.93364
1019.82        81.14387
1020.20        81.04015
1020.58        80.66108
1020.95        79.93388
1021.33        78.98082
1021.71        78.12569
1022.09        77.75186
1022.46        77.81983
1022.84        78.31518
1023.22        79.35194
1023.60        80.88007
1023.97        82.90844
1024.35        84.98563
1024.73         86.0247
