SpectraSmart Spectrum 2.9.0.0
--------- Device Information -----------
Spectrum Name :  反射率_0
Saving Time :  2024/04/21 00:41:21
Spectro-Module Model Name : SE2030-DUVN
Spectro-Module Serial Number : OS361AC55029948
Wavelength Start : 200
Wavelength End : 1025
Wavelength Unit : Wavelength(nm)
Spectrum Unit : Reflectance(%)
-----------Spectrum Setting ------------
Integration Time : 20ms
Average : 10
Boxcar : 0
Background removal :  enabled
linearity correction :  enabled
SC :  disabled
Intensity correction :  disabled
DWT denoise :  enabled
savitzky-golay :  disabled
FFT :  disabled
Running average :  disabled
Kalman :  disabled
High pass :  disabled
---------------BEGIN--------------------
Wavelength(nm)             Reflectance(%)
200.29               0
200.75       -61.08331
201.21       -1.047879
201.67          29.449
202.13        37.31082
202.58        31.31303
203.04        15.49227
203.50       -5.340266
203.96       -16.26837
204.42       -10.36689
204.88        5.983243
205.34        24.67033
205.80        35.10337
206.26        34.60717
206.72        26.73189
207.18        10.86898
207.64       -11.60218
208.10       -34.62425
208.55       -57.63428
209.01       -61.36843
209.47       -29.22498
209.93        9.034819
210.39        38.02482
210.85         55.6985
211.31        62.51737
211.77        61.24336
212.23        52.47271
212.69        31.01075
213.14       -11.61029
213.60       -92.79655
214.06       -327.2736
214.52       -849.1771
214.98       -362.5641
215.44       -80.66502
215.90         11.6421
216.36        42.29333
216.81        47.32405
217.27        33.64821
217.73       -44.91279
218.19        919.3776
218.65        411.7644
219.11       -837.2919
219.57       -15.70743
220.02        36.02754
220.48        43.93013
220.94        36.04774
221.40        9.758492
221.86       -53.45797
222.32       -99.74802
222.77         -48.826
223.23       -1.195097
223.69        23.83077
224.15        33.32046
224.61        34.96415
225.06        33.41604
225.52        29.79133
225.98        24.97572
226.44        19.83729
226.90        13.06759
227.36        8.409667
227.81        12.60789
228.27        22.29901
228.73        32.43934
229.19        39.02222
229.65        39.95538
230.10        36.10871
230.56        28.94713
231.02        19.63004
231.48        13.12906
231.93         13.1902
232.39         18.0023
232.85        23.75544
233.31        27.15168
233.77        28.29493
234.22        28.70194
234.68         28.4355
235.14        27.49917
235.60        26.30196
236.05        23.95909
236.51         21.0351
236.97        24.73231
237.43          35.675
237.88        43.41871
238.34        43.87304
238.80        64.60317
239.26        54.92719
239.71        51.53928
240.17        41.35732
240.63        31.42801
241.08        27.13191
241.54        32.03917
242.00        44.91501
242.46        52.91161
242.91        52.58683
243.37         44.9125
243.83         32.0649
244.28        24.46768
244.74        28.56015
245.20        38.11115
245.66        47.44128
246.11        51.65902
246.57        50.04775
247.03        44.83381
247.48        35.93825
247.94         22.3249
248.40       -1.286855
248.85       -61.17773
249.31       -255.0736
249.77       -446.1205
250.22       -162.0781
250.68       -32.17756
251.14        12.47698
251.59         27.1287
252.05        30.35078
252.51        28.08277
252.96        21.51357
253.42        16.82334
253.88        18.86902
254.33        24.97215
254.79        33.97746
255.25         43.2562
255.70        50.57763
256.16        56.03624
256.62        59.77274
257.07        61.95978
257.53        63.48048
257.99        64.44221
258.44        64.54065
258.90        64.22427
259.35         63.1526
259.81         61.8902
260.27        60.61718
260.72        59.62626
261.18        59.17884
261.63        58.77546
262.09        58.27567
262.55        57.07215
263.00        55.17594
263.46        53.08923
263.91        51.05727
264.37        49.84428
264.83        49.39577
265.28        49.36427
265.74        49.51569
266.19        49.34135
266.65        48.81307
267.11        48.02474
267.56        47.05376
268.02        46.11065
268.47        45.20419
268.93        44.30683
269.38        43.35757
269.84        42.34668
270.30        41.26903
270.75        40.16365
271.21        39.11855
271.66        38.17962
272.12        37.39197
272.57        36.71481
273.03        36.11957
273.48        35.51213
273.94        34.89226
274.39        34.24086
274.85        33.61808
275.31        33.04173
275.76        32.50635
276.22        32.03752
276.67        31.58113
277.13        31.15019
277.58        30.70111
278.04        30.26828
278.49        29.83377
278.95        29.46044
279.40        29.10394
279.86        28.78546
280.31        28.42617
280.77        28.00504
281.22        27.49188
281.68        26.97124
282.13        26.45681
282.59        26.05114
283.04        25.74222
283.50        25.51726
283.95        25.37095
284.41        25.32719
284.86        25.36284
285.32        25.49362
285.77        25.61323
286.22        25.58901
286.68        25.42796
287.13        25.12678
287.59        24.88447
288.04        24.89467
288.50        25.16175
288.95        25.72745
289.41        26.41807
289.86        26.50156
290.32         25.8646
290.77        26.46768
291.22         25.3687
291.68        25.42597
292.13        25.78286
292.59        26.44141
293.04        27.25417
293.50        28.05957
293.95         28.8267
294.40        29.59602
294.86        30.45018
295.31         31.5031
295.77        32.77404
296.22        34.18819
296.68        35.67917
297.13        37.14649
297.58        38.57383
298.04        39.99475
298.49        41.43761
298.95        42.96487
299.40        44.57412
299.85        46.25419
300.31        47.96596
300.76        49.62862
301.21         51.2359
301.67        52.82635
302.12        54.44377
302.58         56.2606
303.03        58.26248
303.48        60.44114
303.94        62.67326
304.39        64.71278
304.84          66.523
305.30        68.19287
305.75        69.82028
306.20        71.66602
306.66         73.7688
307.11         75.9772
307.57        78.17492
308.02        80.11343
308.47        81.76397
308.93        83.24325
309.38        84.58028
309.83        85.88441
310.29          87.247
310.74        88.55695
311.19        89.84045
311.65        91.10557
312.10        92.32706
312.55        93.52243
313.00        94.63599
313.46        95.57461
313.91        96.31345
314.36         96.8936
314.82        97.41919
315.27        98.04644
315.72        98.81948
316.18        99.69278
316.63        100.5748
317.08        101.3169
317.53        101.8719
317.99         102.278
318.44         102.596
318.89        102.9111
319.35        103.2491
319.80        103.5892
320.25        103.9007
320.70        104.1446
321.16        104.3042
321.61        104.4189
322.06        104.5174
322.51        104.6449
322.97        104.8033
323.42        105.0217
323.87        105.2581
324.32        105.4631
324.78        105.6043
325.23        105.7265
325.68        105.8644
326.13         106.105
326.59        106.4374
327.04         106.892
327.49        107.3486
327.94        107.6448
328.39         107.744
328.85        107.6572
329.30        107.5836
329.75        107.7245
330.20         108.139
330.66          108.73
331.11        109.4118
331.56        109.8968
332.01        110.1121
332.46        110.1303
332.92        110.0444
333.37         110.162
333.82        110.5153
334.27        111.0403
334.72        111.6402
335.17        112.1538
335.63        112.5029
336.08        112.8054
336.53        113.1075
336.98        113.5309
337.43        114.1013
337.88        114.7553
338.34        115.4029
338.79        115.9651
339.24        116.3794
339.69        116.6846
340.14        116.8966
340.59        117.0447
341.05         117.158
341.50        117.2422
341.95        117.3552
342.40        117.5954
342.85        117.9803
343.30        118.4876
343.75        119.0278
344.20        119.4548
344.66        119.7361
345.11        119.8843
345.56        119.9764
346.01        120.1387
346.46        120.4058
346.91        120.7218
347.36        120.9975
347.81        121.1665
348.26        121.2223
348.72        120.9606
349.17        120.9164
349.62        120.9075
350.07        121.0986
350.52        121.4188
350.97        121.7393
351.42        121.8449
351.87        121.6733
352.32        121.2885
352.77        120.8075
353.22        120.4076
353.67        120.1353
354.13          119.96
354.58        119.7619
355.03        119.4051
355.48        118.8703
355.93         118.221
356.38        117.5795
356.83        117.1236
357.28         116.872
357.73          116.74
358.18        116.5983
358.63        116.2474
359.08        115.6367
359.53        114.8435
359.98         113.933
360.43        112.9999
360.88        112.0878
361.33        111.1712
361.78        110.2944
362.23        109.5316
362.68        108.8888
363.13        108.3527
363.58        107.8326
364.03        107.1728
364.48        106.3379
364.93        105.3701
365.38        104.3547
365.83        103.4406
366.28        102.6659
366.73        101.9749
367.18        101.3196
367.63        100.6246
368.08        99.86664
368.53        99.08883
368.98        98.27361
369.43        97.37621
369.88        96.39603
370.33        95.33526
370.78        94.28844
371.23        93.44025
371.68        92.84035
372.13        92.43942
372.58        92.11399
373.03        91.65111
373.48        90.98631
373.93        90.17742
374.38        89.30101
374.83        88.49704
375.28        87.82487
375.72        87.23348
376.17        86.72088
376.62        86.21101
377.07        85.67036
377.52        85.10208
377.97        84.53731
378.42        84.03928
378.87        83.63093
379.32         83.2892
379.77        82.92622
380.22        82.44025
380.67        81.81198
381.11        80.93005
381.56        80.17078
382.01        79.55804
382.46        79.22894
382.91        79.11021
383.36        79.04039
383.81        78.76234
384.26        78.21484
384.71        77.48063
385.15        76.68945
385.60        76.10565
386.05        75.76446
386.50        75.59053
386.95        75.46185
387.40        75.19666
387.85        74.76361
388.29        74.19292
388.74        73.68195
389.19        73.30384
389.64        73.06791
390.09        72.91684
390.54        72.77679
390.98        72.52376
391.43        72.17067
391.88          71.754
392.33        71.33144
392.78        70.95757
393.23        70.64678
393.67        70.40553
394.12        70.26798
394.57        69.97964
395.02        69.58474
395.47         69.4145
395.91        69.44521
396.36        69.31481
396.81         69.0275
397.26        68.81323
397.71        68.64645
398.15        68.40401
398.60        68.17196
399.05        67.80367
399.50        67.43562
399.95        67.52889
400.39        67.96528
400.84        68.04205
401.29        67.70302
401.74        67.31548
402.18        66.97276
402.63        66.68505
403.08        66.45064
403.53        66.13837
403.97        65.75968
404.42        65.47879
404.87         65.3222
405.32        65.23199
405.76        65.18353
406.21        65.25945
406.66        65.36004
407.11        65.18511
407.55        64.77565
408.00        64.48933
408.45         64.3814
408.90        64.09499
409.34        63.71113
409.79        63.71661
410.24         63.9945
410.68        64.03159
411.13        63.78799
411.58        63.49717
412.03        63.25216
412.47        63.14975
412.92        63.20576
413.37        63.38634
413.81        63.58971
414.26        63.72298
414.71        63.74001
415.15        63.68782
415.60        63.57431
416.05        63.47308
416.49        63.41304
416.94        63.36025
417.39        63.31856
417.83        63.29045
418.28        63.27272
418.73        63.26434
419.17        63.24572
419.62         63.1907
420.07        63.10326
420.51        62.99568
420.96         62.9053
421.41        62.87161
421.85        62.87856
422.30        62.86537
422.74        62.83923
423.19        63.08593
423.64        63.51557
424.08        63.73033
424.53        63.62468
424.98        63.58813
425.42        63.65485
425.87        63.37997
426.31        62.92688
426.76         63.0932
427.21        63.72462
427.65        63.72419
428.10        63.11518
428.54        62.89378
428.99        63.11508
429.44        63.23473
429.88        63.19689
430.33        63.18866
430.77        63.17739
431.22        63.29021
431.66        63.47987
432.11        63.64381
432.56        63.72621
433.00         63.5536
433.45        63.05894
433.89        62.79899
434.34        62.88869
434.78        62.65055
435.23        62.38836
435.67        63.27545
436.12         63.6604
436.57        63.81561
437.01        63.39258
437.46        63.05667
437.90        63.50254
438.35         63.6808
438.79        63.62749
439.24        63.65631
439.68         63.7159
440.13        63.86502
440.57         64.0429
441.02        63.95686
441.46        63.69023
441.91        63.81691
442.35        64.18653
442.80        64.44184
443.24        64.51377
443.69         64.5998
444.13        64.67139
444.58        64.56402
445.02        64.34474
445.47        64.39948
445.91        64.65805
446.36        64.74337
446.80        64.62731
447.24        64.45998
447.69        64.32273
448.13        64.44864
448.58        64.61339
449.02        64.63055
449.47        64.44836
449.91        64.34039
450.36        64.33157
450.80        64.18317
451.25        63.95741
451.69        63.91053
452.13        64.00642
452.58        63.90673
453.02        63.63811
453.47        63.52596
453.91        63.56856
454.36        63.60422
454.80        63.58163
455.24        63.48647
455.69        63.32598
456.13        63.09568
456.58        62.89909
457.02        62.70411
457.46        62.77007
457.91        62.73164
458.35        62.74215
458.79        62.72064
459.24        62.70644
459.68        62.65351
460.13        62.56606
460.57        62.45007
461.01        62.33877
461.46        62.25769
461.90        61.62876
462.34        62.17109
462.79        61.59176
463.23        61.57907
463.68        61.69553
464.12        61.49701
464.56         61.1559
465.01         61.2354
465.45         61.5668
465.89        61.73083
466.34        61.70736
466.78         61.3412
467.22        60.73655
467.67         61.0937
468.11        60.97824
468.55        60.92118
468.99        60.53325
469.44        60.35252
469.88        60.38895
470.32        60.38889
470.77        60.31438
471.21        60.18763
471.65        59.99607
472.10         59.7375
472.54        59.49539
472.98        59.37028
473.42        59.37434
473.87         59.6209
474.31        59.93887
474.75         59.8488
475.20        59.44333
475.64        59.43908
476.08        59.80707
476.52        59.86178
476.97        59.56528
477.41        59.51439
477.85        59.73424
478.29         59.1534
478.74        59.14803
479.18        58.99792
479.62        59.33405
480.06        59.40521
480.50         59.2793
480.95        59.49427
481.39        59.38601
481.83        59.46456
482.27        59.84658
482.72        59.32708
483.16        59.59315
483.60         59.7063
484.04        59.78604
484.48        59.41918
484.93        59.16972
485.37        59.37926
485.81        59.58042
486.25        59.29834
486.69        61.68353
487.14        61.68942
487.58        60.25815
488.02        59.38726
488.46        59.16703
488.90         59.2231
489.34         58.9418
489.79        58.45206
490.23        58.99158
490.67         59.0204
491.11        58.93428
491.55        58.70319
491.99        58.43335
492.43         58.2995
492.88        58.32909
493.32        58.47675
493.76        58.62675
494.20        58.73391
494.64        58.79155
495.08        58.43451
495.52        58.31986
495.96        58.35714
496.41        58.62373
496.85        58.61224
497.29        58.29958
497.73         58.2282
498.17        58.10873
498.61        58.15068
499.05        58.21932
499.49        58.09439
499.93         57.8717
500.37        57.99566
500.82        58.38136
501.26        58.58945
501.70        58.56424
502.14         58.2186
502.58        58.09745
503.02        57.89515
503.46        57.80343
503.90        57.74248
504.34        57.71046
504.78        57.72257
505.22        57.77356
505.66        57.82661
506.10        57.88146
506.54        57.95056
506.98        58.02325
507.42        57.79531
507.86        58.27668
508.30        57.56193
508.74        57.90474
509.18        57.69352
509.62        57.54573
510.06        57.48083
510.50        57.49613
510.94        57.50004
511.38        57.45662
511.82        57.42517
512.26        57.39528
512.70        57.33053
513.14        57.24818
513.58         57.1954
514.02        57.17983
514.46        57.18762
514.90        57.18574
515.34          57.166
515.78        57.12868
516.22        57.03812
516.66        56.77742
517.10        57.02968
517.54         56.8343
517.98        56.93364
518.42        57.01245
518.86        57.05087
519.30        57.03329
519.74        56.94226
520.18        56.83062
520.62        56.84508
521.06        56.95706
521.50        56.94511
521.93        56.81108
522.37         56.7392
522.81        56.73915
523.25        56.70587
523.69        56.64514
524.13        56.61721
524.57        56.62519
525.01        56.64768
525.45        56.68454
525.89        56.73615
526.32        56.79357
526.76        56.85962
527.20        56.90998
527.64        56.90888
528.08        56.85236
528.52        56.75654
528.96        56.65267
529.40        56.58239
529.83        56.55582
530.27        56.58783
530.71        56.64555
531.15        56.67366
531.59        56.65891
532.03        56.61956
532.46        56.56892
532.90        56.54057
533.34        56.53741
533.78        56.55075
534.22        56.55929
534.66        56.53132
535.09        56.45686
535.53        56.37001
535.97        56.28956
536.41        56.25964
536.85        56.28849
537.28        56.35731
537.72        56.44511
538.16        56.51919
538.60        56.56362
539.04         56.5874
539.47        56.57233
539.91        56.53883
540.35        56.47838
540.79        56.39489
541.22        56.30587
541.66        56.25458
542.10        56.24513
542.54        56.26402
542.97        56.29116
543.41        56.32283
543.85        56.34813
544.29        56.38108
544.72        56.39788
545.16        56.41272
545.60        56.42002
546.04        56.35178
546.47         56.2655
546.91        56.40555
547.35        56.70661
547.79        56.80901
548.22        56.68251
548.66         56.6128
549.10        56.60579
549.53        56.47723
549.97        56.28093
550.41        56.18836
550.84        56.22892
551.28        56.31961
551.72        56.40572
552.15        56.49559
552.59         56.6008
553.03        56.35698
553.46        56.45356
553.90        56.35509
554.34        56.25414
554.77        56.18244
555.21        56.21323
555.65        56.09576
556.08        56.31842
556.52        56.53859
556.96        56.79638
557.39        56.78861
557.83        56.57004
558.27        56.46317
558.70        56.49039
559.14        56.45479
559.57        56.36387
560.01        56.39977
560.45        56.49511
560.88        56.50906
561.32        56.47481
561.75        56.26418
562.19        56.02114
562.63         56.2243
563.06         56.7257
563.50        56.72243
563.93        56.25113
564.37         56.0465
564.80        56.13248
565.24        56.22031
565.68        56.28875
566.11         56.3596
566.55        56.43397
566.98        56.61337
567.42        56.85867
567.85        56.78353
568.29        56.58174
568.72        56.60123
569.16        56.90112
569.60        56.99128
570.03        57.12866
570.47        57.25976
570.90        57.40032
571.34        57.63747
571.77        57.69964
572.21        57.77209
572.64        57.66953
573.08        57.58434
573.51         57.5791
573.95        57.93961
574.38        57.71342
574.82        58.64332
575.25        58.34972
575.69        58.29152
576.12         58.0288
576.56        57.61969
576.99        57.87451
577.42         58.0794
577.86        58.24196
578.29        58.72419
578.73        59.14401
579.16        58.76161
579.60        58.05099
580.03        58.22097
580.47         57.9678
580.90        58.23969
581.33        58.48487
581.77        58.40989
582.20        59.27963
582.64        59.48183
583.07        58.89349
583.51        58.21406
583.94        58.03468
584.37        57.75315
584.81        57.30273
585.24        57.49878
585.68        58.41104
586.11        58.24342
586.54        58.40941
586.98         57.9808
587.41        57.71209
587.85        58.22463
588.28        58.16211
588.71        58.24188
589.15        57.95525
589.58        57.70073
590.01        57.64046
590.45        57.21957
590.88        57.59793
591.31        57.12175
591.75        56.86168
592.18         56.6124
592.61        56.67105
593.05        57.30217
593.48        57.94297
593.91        58.18103
594.35        57.81617
594.78        57.68491
595.21        57.15347
595.65        57.19019
596.08        57.50615
596.51        57.70252
596.94        57.36606
597.38        57.30549
597.81        57.47007
598.24        57.25665
598.68        57.01472
599.11        57.15259
599.54        57.39679
599.97        57.58208
600.41        57.25621
600.84        57.72356
601.27        57.58923
601.70        57.58225
602.14        57.28066
602.57        57.21566
603.00        57.28583
603.43         57.8082
603.87        57.56031
604.30        57.45009
604.73        57.61444
605.16        57.16459
605.60        57.28422
606.03        57.41091
606.46        57.82017
606.89        57.55342
607.32        56.92865
607.76        57.79468
608.19        57.37963
608.62        57.28629
609.05        57.92479
609.48        57.29364
609.92        57.26206
610.35        56.89927
610.78        57.42639
611.21        57.24887
611.64        57.33563
612.07        57.23578
612.50         57.1289
612.94        57.51324
613.37        57.18505
613.80        57.29686
614.23        57.30512
614.66        57.15858
615.09        56.99644
615.52        56.94018
615.96        57.05862
616.39        57.02945
616.82        56.81826
617.25        57.12321
617.68        56.94389
618.11        56.87052
618.54        56.80409
618.97        56.62638
619.40        56.38905
619.84        56.54665
620.27        56.53386
620.70        56.47781
621.13        56.28603
621.56        56.33335
621.99        56.58529
622.42        56.81324
622.85        56.98529
623.28        56.61208
623.71        56.83567
624.14        56.82174
624.57        56.81887
625.00        56.96925
625.43        56.63522
625.86        56.71183
626.29        57.01947
626.72        56.59165
627.15        56.67733
627.58        56.48909
628.01        56.46887
628.44        56.09377
628.87        56.07246
629.30        56.36868
629.73        55.89687
630.16        56.37025
630.59        56.03438
631.02        56.20536
631.45        56.15307
631.88        56.17921
632.31        56.21011
632.74        55.95567
633.17        56.02641
633.60        55.92612
634.03        55.87782
634.46        55.91341
634.89        55.94099
635.32        55.91896
635.75        55.84451
636.18        55.92265
636.61        56.10606
637.04        56.14395
637.47        56.00424
637.89        55.87081
638.32        55.80033
638.75        55.68478
639.18        55.50723
639.61        55.95927
640.04        55.79085
640.47        55.91259
640.90        55.94426
641.33        55.93256
641.76        55.88858
642.18        55.86255
642.61        55.86531
643.04        55.87665
643.47        55.88861
643.90        55.89389
644.33        55.88921
644.76         55.8662
645.18        55.83693
645.61        55.84404
646.04        55.87543
646.47        55.85786
646.90        55.79881
647.33        55.76882
647.75        55.76792
648.18         55.7882
648.61         55.8331
649.04        55.84779
649.47        55.81233
649.89        56.03624
650.32        55.92452
650.75        56.03973
651.18        56.15034
651.61        56.14296
652.03        56.04043
652.46        55.82876
652.89        55.62471
653.32        55.77802
653.74        56.26104
654.17        56.11554
654.60        55.97536
655.03         55.6792
655.46        55.94044
655.88        56.45445
656.31         58.2789
656.74        64.21209
657.16        63.11368
657.59        61.16467
658.02        58.03431
658.45        56.58039
658.87        56.78939
659.30        56.71057
659.73        56.08457
660.15        56.04126
660.58        56.22496
661.01         56.5313
661.44        56.70317
661.86        56.59301
662.29        56.23935
662.72        56.03651
663.14        56.04725
663.57        56.04015
664.00        56.01007
664.42        56.04885
664.85        56.15255
665.27        56.18015
665.70        56.28641
666.13         56.3016
666.55        56.27666
666.98         56.2055
667.41        56.10999
667.83        56.04033
668.26        56.02175
668.69         55.9915
669.11        55.94754
669.54        56.08511
669.96         56.4424
670.39        56.20682
670.82        56.68635
671.24        56.72047
671.67        56.67914
672.09        56.54921
672.52        56.40127
672.94        56.25341
673.37        56.14499
673.80         56.1416
674.22        56.22631
674.65        56.26296
675.07        56.25181
675.50        56.24739
675.92        56.26653
676.35        56.29058
676.77        56.31368
677.20        56.36792
677.62        56.46992
678.05        56.50016
678.47        56.42611
678.90        56.77732
679.32        56.66978
679.75        56.70037
680.17        56.79779
680.60        56.83426
681.02        56.84975
681.45        56.83027
681.87        56.79235
682.30        56.70197
682.72        56.61969
683.15        56.66372
683.57        56.79566
684.00        56.99553
684.42        56.86031
684.85        56.90106
685.27        56.98791
685.70        57.02405
686.12         56.9898
686.54        56.94588
686.97        56.89301
687.39        56.84227
687.82        56.80756
688.24        56.78481
688.66        56.75985
689.09        56.95967
689.51        56.94195
689.94        57.05911
690.36        57.15696
690.78        57.19048
691.21         57.1704
691.63        57.11358
692.06        57.07224
692.48        57.14159
692.90        57.27899
693.33        57.31038
693.75        57.23151
694.17        57.09125
694.60        56.93279
695.02        56.99809
695.44        57.04266
695.87        57.10054
696.29        57.11499
696.71        57.15313
697.14        57.21447
697.56        57.40237
697.98        57.67796
698.41        57.58525
698.83        57.68989
699.25        57.59591
699.68        57.48849
700.10        57.36308
700.52        57.23919
700.94        57.11437
701.37        57.00247
701.79         56.9805
702.21        57.03598
702.64          57.156
703.06         57.2867
703.48         57.3456
703.90        57.31871
704.33        57.23254
704.75        57.12389
705.17        57.03531
705.59        56.98631
706.01         56.9591
706.44        56.98243
706.86        57.09972
707.28        57.29028
707.70        57.58859
708.12        57.90964
708.55        57.98869
708.97        57.85364
709.39        57.83613
709.81        57.94253
710.23        57.92361
710.66        57.78749
711.08        57.71508
711.50        57.70499
711.92        57.68479
712.34        57.65635
712.76        57.64267
713.19        57.65396
713.61        57.74398
714.03        57.89044
714.45        58.08383
714.87        58.27894
715.29        58.37265
715.71         58.3413
716.13        58.35812
716.56        58.17921
716.98           58.14
717.40        58.16843
717.82        58.24759
718.24          58.336
718.66        58.36894
719.08        58.33436
719.50        58.25464
719.92        58.16425
720.34        58.11983
720.76        58.13662
721.19        58.15952
721.61        58.23504
722.03        58.29366
722.45        58.33997
722.87        58.38388
723.29        58.42332
723.71        58.45229
724.13        58.47265
724.55        58.48259
724.97        58.50077
725.39        58.56111
725.81          58.666
726.23        58.79985
726.65        58.93145
727.07        59.01695
727.49        59.04681
727.91        59.02287
728.33        58.96473
728.75        58.94438
729.17        58.96042
729.59        58.91891
730.01        58.85153
730.43         58.8854
730.85        59.02631
731.27        59.19656
731.69        59.35712
732.10        59.42984
732.52        59.57045
732.94        59.39868
733.36        59.06428
733.78        58.91966
734.20        59.01557
734.62        59.15288
735.04        59.26103
735.46        59.39838
735.88        59.37535
736.30        59.35148
736.72        59.28784
737.13        59.22911
737.55         59.1579
737.97        59.04747
738.39        58.95505
738.81        59.04351
739.23        59.29006
739.65        59.49699
740.06        59.55862
740.48         59.5848
740.90        59.53453
741.32        59.33256
741.74        59.06758
742.16        58.95448
742.57        59.05027
742.99        59.27382
743.41        59.53504
743.83        59.67279
744.25        59.64354
744.67        59.49211
745.08        59.31141
745.50        59.21535
745.92         59.2543
746.34        59.39171
746.75        59.54689
747.17        59.58961
747.59        59.49755
748.01        59.28619
748.42        59.06536
748.84        59.05565
749.26        59.26171
749.68        59.49867
750.09        59.67323
750.51        59.73425
750.93        59.66998
751.35         59.5459
751.76        59.41316
752.18        59.29933
752.60        59.23373
753.01        59.25095
753.43        59.29769
753.85        59.30945
754.27        59.27301
754.68        59.21011
755.10        59.16983
755.52        59.20121
755.93         59.3053
756.35        59.46479
756.77        59.63715
757.18        59.68547
757.60        59.58828
758.02        59.52143
758.43        59.54207
758.85        59.13052
759.26        59.26965
759.68          59.248
760.10        59.75251
760.51        59.62859
760.93        59.74413
761.34         59.8293
761.76        60.07106
762.18        60.09312
762.59        59.88244
763.01        59.92749
763.42        59.47202
763.84         59.6347
764.26        59.78343
764.67        60.07921
765.09        60.33456
765.50        60.69773
765.92        61.04271
766.33         60.8193
766.75        60.14011
767.16        59.83072
767.58        59.93169
768.00        60.11522
768.41        60.31927
768.83         60.2617
769.24        59.94405
769.66        60.34216
770.07        60.37703
770.49        60.31263
770.90        59.91758
771.32        59.76479
771.73        59.89025
772.15          59.945
772.56        59.94575
772.97        60.08981
773.39        60.30878
773.80        60.44439
774.22        60.43832
774.63         60.3619
775.05        60.24019
775.46        60.16249
775.88        60.13604
776.29        60.15237
776.70        60.18273
777.12        60.19803
777.53        60.20335
777.95        60.20411
778.36        60.20094
778.77        60.18558
779.19        60.16174
779.60        60.13952
780.02        60.13074
780.43        60.18423
780.84        60.30784
781.26        60.43541
781.67        60.58053
782.09        60.78732
782.50        60.98685
782.91        61.02372
783.33        60.90959
783.74        60.86586
784.15        60.87959
784.57        60.90738
784.98        60.93967
785.39        60.85575
785.81        60.71807
786.22        60.81292
786.63        61.10004
787.04        61.26304
787.46        61.28777
787.87        61.31981
788.28        61.37833
788.70        61.40961
789.11        61.39867
789.52         61.3723
789.93         61.3302
790.35         61.2624
790.76         61.1894
791.17         61.1267
791.58        61.09168
792.00        61.09129
792.41        61.16019
792.82        61.29109
793.23        61.50496
793.65        61.75124
794.06         62.0126
794.47        62.39766
794.88        62.85579
795.29        62.71659
795.71        62.91151
796.12        62.77766
796.53        62.59524
796.94        62.26273
797.35        61.85517
797.76        61.59685
798.18        61.51136
798.59        61.43712
799.00        61.36811
799.41        61.43521
799.82        61.59154
800.23        61.68511
800.64         61.6858
801.06        61.60493
801.47        61.52261
801.88        61.50881
802.29        61.58344
802.70        61.71259
803.11        61.85243
803.52        61.93265
803.93        61.93872
804.34        61.90221
804.75        61.85639
805.17        61.86585
805.58        61.97766
805.99        62.08362
806.40        62.19074
806.81        62.48116
807.22        62.85298
807.63        62.91786
808.04        62.72708
808.45        62.70552
808.86        62.88185
809.27        63.00668
809.68        63.03831
810.09        63.02134
810.50        62.94847
810.91        62.82386
811.32        62.66938
811.73         62.5157
812.14         62.3816
812.55        62.26514
812.96        62.19852
813.37        62.22958
813.78        62.35645
814.19        62.55655
814.60        62.75797
815.01         62.8506
815.42        62.80831
815.83        62.65674
816.24        62.44712
816.65        62.28457
817.05        62.22157
817.46        62.21552
817.87        62.26965
818.28        62.34193
818.69          62.424
819.10        62.53731
819.51         62.6979
819.92         62.9236
820.33        63.19907
820.74        63.48078
821.14        63.73708
821.55        63.95612
821.96        64.11436
822.37        64.21806
822.78        64.22556
823.19        64.07035
823.60        63.75656
824.00        63.33131
824.41        62.88266
824.82         62.6159
825.23        62.58714
825.64         62.7583
826.04        63.04127
826.45        63.24639
826.86        63.32993
827.27        63.33401
827.68        63.30912
828.08        63.37033
828.49        63.47364
828.90        63.61641
829.31        63.77134
829.72        63.79884
830.12         63.6818
830.53        63.86851
830.94        63.58474
831.35        63.40849
831.75        63.14183
832.16        62.79208
832.57        62.51527
832.97        62.56455
833.38        62.96771
833.79        63.62486
834.20        64.31492
834.60        64.70833
835.01        64.72701
835.42        64.46191
835.82        64.07281
836.23        63.80039
836.64        63.74896
837.04        63.85984
837.45        64.03152
837.86        64.15316
838.26        64.19818
838.67        64.20586
839.08        64.22234
839.48        64.29678
839.89        64.43232
840.29        64.59143
840.70        64.76022
841.11        64.92283
841.51        65.07761
841.92        65.19765
842.33        65.25896
842.73        65.21967
843.14        65.03986
843.54        64.77307
843.95        64.48931
844.35        64.32201
844.76        64.30141
845.17        64.40376
845.57        64.58615
845.98        64.73792
846.38         64.8474
846.79        64.90914
847.19        64.97227
847.60        65.04189
848.00        65.15382
848.41        65.26548
848.81        65.37924
849.22        65.43832
849.62        65.46839
850.03        65.44867
850.43        65.44675
850.84        65.46291
851.24        65.55019
851.65        65.64139
852.05        65.75851
852.46        65.84113
852.86        65.87032
853.27        65.90277
853.67        65.86292
854.07        65.77783
854.48        65.63127
854.88        65.44907
855.29        65.26035
855.69         65.2804
856.10        65.46249
856.50        65.83314
856.90        66.22401
857.31        66.39588
857.71        66.33923
858.12        66.06886
858.52        65.69576
858.92        65.35524
859.33        65.09338
859.73        64.91821
860.13        64.81989
860.54        64.77877
860.94        64.83785
861.34        64.96981
861.75        65.10835
862.15        65.20781
862.55        65.21175
862.96         65.1169
863.36        64.96865
863.76        64.79925
864.17        64.62724
864.57         64.4752
864.97        64.33205
865.38        64.16573
865.78        64.01257
866.18        63.87592
866.58        63.82433
866.99         63.9421
867.39        64.26366
867.79        64.72915
868.19        65.19598
868.60        65.37013
869.00        65.27985
869.40         65.1778
869.80        65.07911
870.21        64.82065
870.61        64.48515
871.01        64.18029
871.41        63.92775
871.81        63.66232
872.22        63.40095
872.62        63.18044
873.02        63.01247
873.42        63.09051
873.82        63.23314
874.22        62.89524
874.63        62.36893
875.03         62.2537
875.43        62.61153
875.83        64.13594
876.23        63.92561
876.63        63.45386
877.03        62.41229
877.44        60.23774
877.84        171.0853
878.24        61.01133
878.64        61.70636
879.04        63.17907
879.44        63.66751
879.84        60.31713
880.24        65.65973
880.64        66.11687
881.04        63.99183
881.44        62.41036
881.84        61.88724
882.24        62.53093
882.65        63.71383
883.05        64.03949
883.45        63.24377
883.85        62.20013
884.25        61.36535
884.65         61.0568
885.05         61.3957
885.45        62.18113
885.85        63.07759
886.25        63.63091
886.65        63.72031
887.05        63.49886
887.45         63.0698
887.85        62.60596
888.25        62.20818
888.65        61.82404
889.04        61.55601
889.44        61.59091
889.84        61.92201
890.24        62.46812
890.64        63.04386
891.04        63.36365
891.44        63.36464
891.84        63.14622
892.24        62.75518
892.64         62.2923
893.04        61.84315
893.44        61.39622
893.83        61.11839
894.23        61.22507
894.63        61.74275
895.03        62.61229
895.43        63.57693
895.83        64.18829
896.23        64.33043
896.63        64.11824
897.02        63.77294
897.42        63.70241
897.82        63.96111
898.22        64.40548
898.62        64.85942
899.01        65.05523
899.41        64.89197
899.81        64.48952
900.21        63.93922
900.61        63.37399
901.00        62.86242
901.40        62.46398
901.80        62.21489
902.20        62.02153
902.59        61.85668
902.99        62.01637
903.39         62.6405
903.79        62.19473
904.18        63.39939
904.58        63.97186
904.98        64.46939
905.38        64.44692
905.77        63.86481
906.17         62.8877
906.57        61.80726
906.96        61.21183
907.36        61.25357
907.76        61.78391
908.15        62.60434
908.55         63.2188
908.95        63.50706
909.34        63.54922
909.74        63.47564
910.14        63.45153
910.53        63.53546
910.93        63.65813
911.33        63.70905
911.72        63.53588
912.12        63.12963
912.52        62.55443
912.91        62.00134
913.31        61.83599
913.70        62.10024
914.10        62.70216
914.49        63.37705
914.89        63.59137
915.29        63.25325
915.68        62.50832
916.08        61.72442
916.47        61.43877
916.87        61.80069
917.26        62.61653
917.66        63.57259
918.05        64.18616
918.45        64.29158
918.84        64.04514
919.24         63.6303
919.64        63.40427
920.03        63.47539
920.42        63.71268
920.82         63.9571
921.21         63.9817
921.61        63.76532
922.00        63.47198
922.40        63.30605
922.79        63.43173
923.19        63.50306
923.58        64.31855
923.98        66.11225
924.37        66.24746
924.77        63.29804
925.16         71.1601
925.55        64.71869
925.95        64.95573
926.34        64.74319
926.74        63.89145
927.13        62.40247
927.52        61.54039
927.92        61.82719
928.31        62.56974
928.70        63.53024
929.10        64.28787
929.49        64.74464
929.89        65.02865
930.28        65.10437
930.67        64.81554
931.07        64.20947
931.46        63.23595
931.85        62.23695
932.24        62.26071
932.64        63.45097
933.03        64.87736
933.42        65.71436
933.82        68.22223
934.21        66.76474
934.60        65.75488
934.99         64.6861
935.39         64.3671
935.78        64.80644
936.17        66.47952
936.56        72.70636
936.96        65.20833
937.35        69.26489
937.74        66.11215
938.13        64.05173
938.53         62.4109
938.92        61.84545
939.31        62.93703
939.70        64.46417
940.09        65.23501
940.49        64.98431
940.88        64.12994
941.27        63.12379
941.66        62.80507
942.05        63.42845
942.44        64.60876
942.84        65.82777
943.23        66.47828
943.62        66.39643
944.01        65.78447
944.40        64.98181
944.79        64.55655
945.18        64.67563
945.57        65.15495
945.97        65.66258
946.36        65.79546
946.75        65.40664
947.14        64.65871
947.53        63.82592
947.92        63.36533
948.31        63.41258
948.70        63.80978
949.09        64.32666
949.48         64.6133
949.87        64.58407
950.26        64.37402
950.65        64.10463
951.04        63.96632
951.43        64.02098
951.82        64.16656
952.21        64.39465
952.60        64.71175
952.99        65.05499
953.38        65.39542
953.77        65.59407
954.16        65.42902
954.55        64.89254
954.94        64.10144
955.33        63.19616
955.72        62.46355
956.11        62.04517
956.50         61.8481
956.89        61.99257
957.28        62.63474
957.66        63.74065
958.05        65.16373
958.44         66.4399
958.83        66.87064
959.22        66.32336
959.61        64.91881
960.00        63.20527
960.39        62.29395
960.78        62.53461
961.16        63.64297
961.55        64.87728
961.94        65.30886
962.33        64.76207
962.72        63.51067
963.11        62.08126
963.49        61.53767
963.88        62.21041
964.27        63.66614
964.66        65.28083
965.04        66.24498
965.43        66.31854
965.82        65.81223
966.21        64.98347
966.60        64.28253
966.98         63.9034
967.37        63.68957
967.76        63.62841
968.15        63.70799
968.53        63.91373
968.92        64.27892
969.31        64.67404
969.69        64.84209
970.08        64.69241
970.47        64.24457
970.86        63.72805
971.24        63.57014
971.63        63.84686
972.02        64.44604
972.40         65.0392
972.79        65.04223
973.17        64.41719
973.56         63.3477
973.95        62.27037
974.33        61.95023
974.72        62.59206
975.11        63.92557
975.49        65.58326
975.88         66.8886
976.26        67.66838
976.65        68.00562
977.04        68.03031
977.42         67.9099
977.81        67.68201
978.19        67.25938
978.58        66.86913
978.96        66.83379
979.35        67.19423
979.74        67.85265
980.12        68.60269
980.51        68.95549
980.89        68.96341
981.28        68.68297
981.66        68.23121
982.05        67.98076
982.43        68.03226
982.82            68.3
983.20        68.67984
983.59        68.98425
983.97        69.18825
984.35        69.28916
984.74         69.2537
985.12        69.11111
985.51        68.85779
985.89         68.6071
986.28        68.30889
986.66         67.9347
987.04         67.5492
987.43        67.05484
987.81        66.43852
988.20        67.24832
988.58        69.64449
988.96        70.63924
989.35        69.30212
989.73        75.36052
990.12        71.67482
990.50         71.4371
990.88        70.31438
991.27        69.41647
991.65        68.87021
992.03        68.71127
992.42         69.0038
992.80        69.20852
993.18        69.20937
993.56        69.23395
993.95        69.20248
994.33        68.92458
994.71        68.42629
995.10        67.70012
995.48        67.12164
995.86        67.33015
996.24        68.39455
996.63         69.9943
997.01        71.67616
997.39        72.51807
997.77        72.28881
998.15        71.26364
998.54        69.87283
998.92         68.6862
999.30        67.97527
999.68        67.66571
1000.06        67.65527
1000.45        67.68552
1000.83        67.76587
1001.21        67.95737
1001.59        68.49546
1001.97         69.6769
1002.35        71.37548
1002.73         73.2874
1003.12        74.93237
1003.50        75.80014
1003.88        75.81895
1004.26        75.15065
1004.64        74.07426
1005.02        73.20679
1005.40        72.82478
1005.78        72.78529
1006.16        72.93814
1006.54         72.9614
1006.92        72.76989
1007.30        72.58395
1007.69        72.36588
1008.07        72.11137
1008.45        71.81734
1008.83        71.41607
1009.21        71.24252
1009.59        71.96978
1009.97        73.54976
1010.35        75.49413
1010.73         77.1686
1011.11        78.15109
1011.49        78.55194
1011.86        78.24813
1012.24        77.13638
1012.62        78.31236
1013.00        79.01438
1013.38        78.89027
1013.76        76.61853
1014.14        80.59592
1014.52        86.57767
1014.90         79.3229
1015.28        80.61172
1015.66        81.72079
1016.04        77.50276
1016.41        76.74631
1016.79         74.9439
1017.17        74.48576
1017.55        74.85243
1017.93        76.15572
1018.31        78.08511
1018.69         79.3988
1019.06        79.82584
1019.44        79.68309
1019.82         79.1735
1020.20        78.48859
1020.58        77.70247
1020.95         76.5437
1021.33        75.49256
1021.71        75.60211
1022.09        77.16021
1022.46        79.57589
1022.84        81.71416
1023.22        82.82092
1023.60        83.01002
1023.97        82.49652
1024.35        81.76798
1024.73        81.79863
