SpectraSmart Spectrum 2.9.0.0
--------- Device Information -----------
Spectrum Name :  反射率_0
Saving Time :  2024/04/21 00:36:08
Spectro-Module Model Name : SE2030-DUVN
Spectro-Module Serial Number : OS361AC55029948
Wavelength Start : 200
Wavelength End : 1025
Wavelength Unit : Wavelength(nm)
Spectrum Unit : Reflectance(%)
-----------Spectrum Setting ------------
Integration Time : 20ms
Average : 10
Boxcar : 0
Background removal :  enabled
linearity correction :  enabled
SC :  disabled
Intensity correction :  disabled
DWT denoise :  enabled
savitzky-golay :  disabled
FFT :  disabled
Running average :  disabled
Kalman :  disabled
High pass :  disabled
---------------BEGIN--------------------
Wavelength(nm)             Reflectance(%)
200.29               0
200.75       -23.80608
201.21       -2.050698
201.67        8.077162
202.13        13.72831
202.58        17.88578
203.04        22.56688
203.50        26.19623
203.96        24.01485
204.42        14.59715
204.88      -0.8787778
205.34       -15.65411
205.80       -21.45567
206.26       -15.90325
206.72        4.420217
207.18        29.91155
207.64        33.35007
208.10        4.355441
208.55       -47.81166
209.01        -86.3391
209.47       -65.10026
209.93        -19.1295
210.39        19.97264
210.85        45.71807
211.31        57.80395
211.77        60.33723
212.23        56.30004
212.69        41.95397
213.14        9.133439
213.60       -61.09839
214.06       -283.0703
214.52       -822.7991
214.98       -375.8909
215.44       -91.42888
215.90        5.400167
216.36        38.38181
216.81        43.97968
217.27        29.49295
217.73       -53.66454
218.19        960.8471
218.65         420.308
219.11       -831.5048
219.57       -10.67735
220.02        40.62033
220.48        48.49447
220.94        40.78435
221.40        14.65997
221.86       -47.88752
222.32       -92.07694
222.77       -39.99725
223.23        7.971215
223.69        32.64985
224.15        41.05161
224.61         40.9787
225.06        37.05786
225.52        31.10606
225.98        25.45476
226.44        21.36614
226.90          17.025
227.36        15.10217
227.81        19.92129
228.27        28.18843
228.73        36.45826
229.19        41.43071
229.65        41.09846
230.10        36.08323
230.56        27.50269
231.02        16.81285
231.48        10.17422
231.93        11.69203
232.39        18.75478
232.85        26.47641
233.31        30.86242
233.77        32.11639
234.22        31.97173
234.68        30.72652
235.14        28.86545
235.60        27.02022
236.05        24.21475
236.51        20.88604
236.97        24.03168
237.43        34.35817
237.88        41.43247
238.34        41.05802
238.80        62.65099
239.26        52.99747
239.71        50.75082
240.17        42.19073
240.63        33.85848
241.08        30.37052
241.54        34.93744
242.00        46.08766
242.46        51.36959
242.91        47.21738
243.37        33.86643
243.83        14.90312
244.28         6.03186
244.74        15.92008
245.20         35.3704
245.66        54.01464
246.11        62.42262
246.57         59.6616
247.03         48.9607
247.48        32.07079
247.94        10.99981
248.40       -18.99741
248.85       -87.54909
249.31       -301.8335
249.77       -512.8626
250.22       -200.6245
250.68       -56.99032
251.14       -6.074722
251.59        13.70571
252.05        23.28138
252.51        30.21748
252.96        35.03904
253.42         36.8249
253.88        35.10398
254.33        31.19318
254.79        30.99069
255.25        37.02053
255.70        45.21424
256.16        52.48359
256.62        57.57133
257.07        59.91059
257.53         60.6824
257.99        60.62298
258.44        59.71531
258.90        58.56728
259.35          56.932
259.81        55.28061
260.27        53.82282
260.72        52.89904
261.18        52.67357
261.63        52.60243
262.09        52.47318
262.55        51.68373
263.00        50.22545
263.46        48.55901
263.91        46.88246
264.37        45.85846
264.83        45.44135
265.28        45.34063
265.74        45.37068
266.19        45.10701
266.65        44.53426
267.11        43.72816
267.56        42.76925
268.02        41.86425
268.47         41.0205
268.93          40.216
269.38        39.36299
269.84        38.40193
270.30        37.32046
270.75        36.16594
271.21        35.07014
271.66        34.15434
272.12        33.47025
272.57        32.95255
273.03        32.50827
273.48        31.95814
273.94         31.2861
274.39        30.50991
274.85        29.75055
275.31        29.11983
275.76         28.6363
276.22        28.29655
276.67        27.99817
277.13        27.67366
277.58        27.27398
278.04        26.85544
278.49        26.45731
278.95        26.21191
279.40        26.07993
279.86        26.03646
280.31        25.94337
280.77         25.6892
281.22        25.22888
281.68        24.67692
282.13        24.08912
282.59         23.6216
283.04        23.28385
283.50        23.04706
283.95        22.89673
284.41        22.84004
284.86        22.84854
285.32        22.93653
285.77        23.01317
286.22        22.95809
286.68        22.78039
287.13        22.48375
287.59        22.22706
288.04        22.14893
288.50        22.24865
288.95        22.59033
289.41        23.08928
289.86        23.12819
290.32        22.59911
290.77        23.50043
291.22        22.62296
291.68        22.72374
292.13        22.87812
292.59        23.15427
293.04        23.55126
293.50        24.14408
293.95        24.94857
294.40        25.91294
294.86        26.98028
295.31        28.04491
295.77         29.0711
296.22         30.0726
296.68        31.06483
297.13        32.06872
297.58        33.11686
298.04        34.20863
298.49        35.38369
298.95        36.72572
299.40        38.21928
299.85        39.83335
300.31        41.47926
300.76        43.00195
301.21        44.36863
301.67        45.63638
302.12        46.85435
302.58        48.19196
303.03        49.66769
303.48        51.29785
303.94        53.01878
304.39        54.68472
304.84        56.27531
305.30        57.83491
305.75        59.44419
306.20        61.31736
306.66        63.45642
307.11        65.72417
307.57        67.92397
308.02        69.70827
308.47        71.04063
308.93        72.07378
309.38        72.97436
309.83        74.03666
310.29         75.4353
310.74        76.98463
311.19        78.58292
311.65        80.01588
312.10        81.20399
312.55        82.21495
313.00        83.13266
313.46        84.08706
313.91        85.09362
314.36        86.11328
314.82        87.06357
315.27        87.82214
315.72         88.3804
316.18        88.78922
316.63        89.16438
317.08        89.68962
317.53        90.39909
317.99        91.22692
318.44        92.04638
318.89        92.64021
319.35        92.95561
319.80        93.07151
320.25        93.09418
320.70        93.20219
321.16        93.44393
321.61        93.77882
322.06          94.157
322.51        94.50666
322.97        94.78755
323.42        95.06282
323.87         95.3176
324.32        95.53697
324.78        95.70715
325.23         95.8587
325.68        96.01077
326.13        96.23082
326.59        96.50869
327.04        96.87457
327.49        97.26295
327.94        97.59168
328.39         97.8393
328.85        98.00515
329.30        98.17912
329.75        98.39243
330.20        98.66241
330.66        98.92994
331.11        99.25418
331.56        99.60775
332.01         99.9837
332.46        100.3937
332.92        100.7436
333.37        101.0049
333.82        101.1281
334.27         101.144
334.72        101.1775
335.17        101.4382
335.63        101.9477
336.08         102.703
336.53        103.5429
336.98        104.2366
337.43        104.7098
337.88        105.0192
338.34        105.2339
338.79         105.531
339.24        105.9385
339.69        106.4048
340.14        106.8801
340.59        107.2975
341.05        107.6422
341.50        107.9523
341.95        108.2616
342.40        108.6215
342.85        109.0406
343.30        109.4919
343.75        109.9326
344.20        110.3025
344.66        110.5951
345.11        110.8177
345.56        111.0018
346.01        111.1922
346.46        111.4114
346.91         111.642
347.36        111.8724
347.81        112.1253
348.26        112.4014
348.72        112.5525
349.17        112.8314
349.62        113.0524
350.07        113.2901
350.52         113.525
350.97        113.6949
351.42        113.6989
351.87        113.5189
352.32        113.1907
352.77        112.8099
353.22        112.5197
353.67        112.3559
354.13        112.3019
354.58        112.2448
355.03        112.0551
355.48        111.7002
355.93        111.2146
356.38        110.7037
356.83        110.3251
357.28        110.0974
357.73        109.9641
358.18        109.7778
358.63        109.3086
359.08        108.5254
359.53        107.5268
359.98        106.4935
360.43        105.6934
360.88        105.1867
361.33        104.8828
361.78         104.659
362.23        104.3214
362.68        103.8055
363.13        103.1678
363.58        102.4481
364.03        101.7063
364.48        100.9673
364.93        100.2078
365.38        99.42948
365.83          98.647
366.28        97.86829
366.73        97.10126
367.18         96.3623
367.63        95.66759
368.08        95.01933
368.53        94.41827
368.98        93.82093
369.43        93.15013
369.88        92.38726
370.33        91.54652
370.78        90.69677
371.23        89.97343
371.68        89.42155
372.13         89.0091
372.58        88.66433
373.03        88.25998
373.48        87.75587
373.93         87.1863
374.38        86.59647
374.83        86.07028
375.28        85.63268
375.72        85.23034
376.17        84.86062
376.62        84.45327
377.07        83.98205
377.52        83.46094
377.97        82.89692
378.42        82.31592
378.87        81.74898
379.32        81.20605
379.77        80.70033
380.22        80.23571
380.67        79.79874
381.11        79.38428
381.56        78.97735
382.01        78.57488
382.46        78.18145
382.91        77.80367
383.36        77.41957
383.81         76.9944
384.26        76.52283
384.71        76.01375
385.15        75.50137
385.60        75.10145
386.05         74.8083
386.50        74.59853
386.95        74.40327
387.40        74.12089
387.85        73.73864
388.29        73.24827
388.74        72.81803
389.19        72.48856
389.64        72.26646
390.09        72.12198
390.54        71.98543
390.98        71.73447
391.43        71.38811
391.88        70.97581
392.33         70.5898
392.78        70.33482
393.23        70.21873
393.67        70.22706
394.12        70.32106
394.57        70.13544
395.02        69.70189
395.47        69.40203
395.91        69.27749
396.36        69.05248
396.81        68.76679
397.26        68.64133
397.71        68.58675
398.15        68.39454
398.60        68.13676
399.05        67.64723
399.50        67.14027
399.95        67.28786
400.39         67.9319
400.84        68.10383
401.29        67.71344
401.74        67.25661
402.18        66.85506
402.63        66.53111
403.08        66.29714
403.53         65.9861
403.97        65.62265
404.42        65.42962
404.87        65.39463
405.32         65.4074
405.76         65.4441
406.21         65.4679
406.66        65.44859
407.11        65.54553
407.55        65.66716
408.00        65.31255
408.45        64.62662
408.90        64.25146
409.34        64.28455
409.79        64.51476
410.24        64.77617
410.68        64.84437
411.13        64.66736
411.58        64.35178
412.03        64.01033
412.47          63.827
412.92        63.83633
413.37         63.9884
413.81         64.1783
414.26        64.30145
414.71        64.30959
415.15        64.26489
415.60        64.17088
416.05        64.08678
416.49        64.03929
416.94        63.99463
417.39        63.97442
417.83         64.0079
418.28        64.09618
418.73         64.2325
419.17        64.35515
419.62        64.36915
420.07        64.25228
420.51        64.02869
420.96        63.80088
421.41        63.65305
421.85        63.58171
422.30        63.67467
422.74        63.82708
423.19        63.81316
423.64        63.67023
424.08        63.84492
424.53        64.22742
424.98        64.36636
425.42        64.23046
425.87        64.03909
426.31        63.90259
426.76        63.86216
427.21        63.95934
427.65        64.25229
428.10        64.56073
428.54        64.66585
428.99        64.57647
429.44        64.24438
429.88        63.83987
430.33        63.94354
430.77        64.37871
431.22        64.62174
431.66        64.60899
432.11        64.60143
432.56        64.68453
433.00         64.6761
433.45        64.42605
433.89        64.48118
434.34        64.97867
434.78         63.8987
435.23         64.2451
435.67        64.88201
436.12        65.10062
436.57        65.15269
437.01        64.73803
437.46        64.46367
437.90        65.04679
438.35        64.93137
438.79         65.1984
439.24        65.22184
439.68        65.26602
440.13        65.31674
440.57         65.3766
441.02        65.39795
441.46        65.40119
441.91        65.56055
442.35        65.74979
442.80        66.03192
443.24        66.29661
443.69        66.25377
444.13         65.9541
444.58        65.86584
445.02        65.88333
445.47        65.98705
445.91        66.08681
446.36          66.166
446.80        66.19589
447.24        66.18281
447.69        66.15459
448.13        66.24464
448.58        66.26801
449.02        66.25668
449.47        66.17712
449.91        66.18253
450.36        66.27402
450.80        66.21214
451.25        66.06236
451.69        66.11729
452.13        66.33395
452.58        66.32872
453.02         66.0965
453.47        65.95268
453.91        65.89487
454.36         65.7569
454.80        65.55145
455.24        65.39454
455.69        65.31613
456.13        65.25488
456.58         65.1982
457.02        65.18811
457.46        64.89813
457.91        64.83257
458.35        64.95096
458.79        64.89966
459.24        64.73376
459.68        64.55277
460.13        64.42928
460.57        64.29761
461.01        64.18327
461.46        63.90967
461.90        64.23377
462.34        63.55264
462.79        63.84029
463.23         63.7517
463.68        63.83286
464.12        63.63496
464.56        63.28805
465.01        63.41808
465.45        63.84203
465.89        64.00833
466.34        63.90279
466.78        63.79367
467.22        63.68655
467.67        63.59313
468.11        63.01171
468.55        62.82278
468.99        62.84661
469.44        62.74619
469.88        62.51196
470.32        62.36196
470.77        62.31223
471.21        62.25813
471.65        62.18924
472.10        62.13507
472.54        62.08415
472.98        62.01554
473.42        61.92846
473.87        61.90258
474.31        61.89352
474.75        61.78683
475.20        61.62008
475.64        61.68792
476.08        61.96843
476.52        62.02324
476.97        61.76653
477.41        62.01788
477.85        62.22101
478.29        61.61871
478.74        61.24195
479.18        61.66686
479.62        61.85711
480.06         61.9451
480.50        61.85838
480.95        61.82708
481.39        61.92919
481.83        61.61113
482.27        62.09311
482.72        61.59027
483.16        61.66318
483.60        61.91034
484.04        61.89435
484.48        61.66645
484.93        61.65189
485.37        61.49493
485.81        61.80851
486.25        61.30267
486.69        63.35947
487.14        63.53546
487.58        62.20219
488.02        61.91939
488.46        61.12982
488.90        61.46435
489.34        61.28081
489.79        61.11876
490.23        61.31224
490.67        61.35222
491.11        61.42893
491.55        61.28291
491.99        61.01186
492.43        60.89616
492.88        60.96505
493.32        61.12351
493.76        61.25354
494.20        61.31244
494.64        61.29544
495.08        60.88004
495.52        60.70802
495.96         60.6885
496.41        60.91304
496.85        60.99205
497.29        60.85391
497.73         60.8571
498.17        60.70615
498.61        60.76748
499.05        60.87511
499.49        60.73844
499.93         60.4468
500.37         60.3044
500.82         60.3336
501.26        60.61502
501.70        61.00676
502.14        60.64964
502.58        60.15967
503.02        59.92099
503.46        60.07507
503.90        60.21862
504.34        60.26389
504.78        60.29733
505.22         60.2916
505.66        60.21832
506.10        60.14593
506.54        60.09919
506.98        60.06811
507.42        60.08758
507.86         60.5977
508.30        59.86594
508.74        60.33982
509.18        60.13182
509.62        59.97173
510.06        59.88287
510.50        59.87546
510.94        59.84253
511.38        59.75187
511.82        59.68332
512.26        59.63233
512.70        59.56079
513.14        59.48759
513.58        59.47375
514.02        59.52565
514.46        59.59636
514.90        59.63657
515.34        59.74009
515.78        59.69011
516.22        59.63395
516.66        59.38279
517.10        59.58934
517.54         59.3512
517.98        59.37381
518.42        59.38941
518.86        59.42065
519.30        59.46112
519.74        59.47687
520.18        59.48511
520.62        59.58313
521.06        59.72395
521.50        59.68639
521.93        59.49666
522.37        59.38942
522.81        59.38598
523.25        59.36518
523.69        59.30905
524.13         59.2437
524.57        59.16909
525.01        59.08122
525.45        59.01596
525.89        59.02773
526.32        59.11896
526.76        59.27363
527.20        59.43224
527.64         59.5038
528.08        59.46647
528.52        59.34927
528.96        59.20496
529.40        59.10861
529.83        59.08103
530.27        59.13158
530.71         59.2088
531.15        59.22889
531.59        59.17566
532.03        59.07835
532.46        58.98426
532.90         58.9775
533.34        59.06215
533.78        59.21498
534.22        59.36795
534.66        59.39016
535.09        59.24994
535.53        59.12558
535.97           58.87
536.41        58.75023
536.85        58.73445
537.28        58.79407
537.72        58.89326
538.16        58.97835
538.60         59.0276
539.04        59.05694
539.47        59.05306
539.91        59.04356
540.35        59.01812
540.79        58.97347
541.22        58.91876
541.66        58.88528
542.10        58.87619
542.54        58.88731
542.97        58.90019
543.41        58.91361
543.85        58.91544
544.29        58.91569
544.72        58.90835
545.16        58.91217
545.60        58.91595
546.04         58.9197
546.47        58.93329
546.91        58.94831
547.35        58.96692
547.79        59.06192
548.22        59.16798
548.66        59.11343
549.10         58.9404
549.53        58.87521
549.97        58.93232
550.41        58.93128
550.84        58.86803
551.28        58.86063
551.72        58.91192
552.15        58.94702
552.59          58.969
553.03        59.07349
553.46        59.07988
553.90        59.09332
554.34        59.05078
554.77        58.95347
555.21        58.85542
555.65        58.81231
556.08        58.82702
556.52        58.95232
556.96        59.10302
557.39        59.04647
557.83        58.81623
558.27        58.70821
558.70        58.65704
559.14        58.66253
559.57        58.68428
560.01         58.9137
560.45        59.21087
560.88         59.1559
561.32        58.85466
561.75        58.65542
562.19        58.65916
562.63         58.7928
563.06        58.96201
563.50        58.95818
563.93        58.79345
564.37        58.59046
564.80        58.61909
565.24        58.72712
565.68        58.92992
566.11         59.0064
566.55        58.96894
566.98        59.02426
567.42        59.16323
567.85        59.11172
568.29        58.96339
568.72        58.97596
569.16        59.17499
569.60        59.33548
570.03        59.36971
570.47        59.49165
570.90        59.63257
571.34        59.71459
571.77        59.61045
572.21         59.8634
572.64        59.66784
573.08        59.57978
573.51        59.41062
573.95        59.80668
574.38        59.78034
574.82        60.42687
575.25        60.37952
575.69        60.44248
576.12        59.79797
576.56        59.91662
576.99        60.10192
577.42        60.04636
577.86        60.22185
578.29        60.78758
578.73         61.2505
579.16        60.61786
579.60        59.95195
580.03        59.95191
580.47        60.20586
580.90        60.26525
581.33        60.20037
581.77        60.68612
582.20        60.93002
582.64        61.39875
583.07         60.8225
583.51        60.50575
583.94        60.00906
584.37        59.78972
584.81        59.38777
585.24        59.59575
585.68        60.48585
586.11        60.24652
586.54          60.421
586.98        60.14819
587.41        59.64123
587.85        60.11804
588.28        60.57065
588.71        60.22312
589.15        60.03696
589.58        59.92656
590.01        59.42536
590.45        59.30282
590.88        59.78018
591.31         59.5478
591.75        59.39492
592.18        59.24662
592.61        59.40084
593.05         59.6645
593.48        59.75163
593.91        60.39007
594.35        60.06258
594.78        59.95922
595.21        59.55086
595.65        59.51055
596.08        59.73234
596.51        59.93798
596.94        59.54877
597.38        59.49704
597.81        59.69481
598.24        59.38716
598.68        59.26456
599.11        59.47211
599.54        59.87106
599.97        60.01717
600.41        59.60814
600.84        59.94064
601.27        59.84403
601.70         59.8097
602.14         59.3807
602.57        59.32318
603.00        59.58667
603.43        59.64742
603.87        59.79531
604.30        59.66507
604.73        59.84841
605.16        59.31421
605.60         59.5965
606.03        59.61782
606.46        59.73371
606.89        59.66274
607.32         59.1886
607.76        59.72151
608.19        59.53082
608.62        59.59333
609.05        60.05227
609.48        59.63563
609.92         59.9261
610.35        59.32505
610.78        59.71605
611.21        59.44193
611.64        59.42134
612.07        59.20192
612.50        59.22415
612.94         59.1887
613.37        59.19125
613.80         59.2623
614.23        59.35784
614.66        59.35476
615.09        59.25417
615.52        59.20505
615.96        59.22485
616.39        59.18964
616.82        59.09182
617.25        59.19733
617.68        59.18422
618.11        59.10566
618.54        58.84437
618.97        58.79259
619.40        58.92027
619.84        58.83228
620.27        58.86055
620.70        58.74482
621.13         58.6299
621.56        58.63345
621.99        58.76905
622.42        58.84673
622.85        58.81731
623.28        58.79383
623.71        59.05157
624.14        58.73944
624.57        59.03114
625.00        59.15816
625.43        58.79973
625.86        58.73359
626.29        58.78757
626.72        58.68169
627.15        58.60222
627.58        58.60167
628.01        58.79005
628.44        58.55304
628.87        58.57855
629.30        58.94692
629.73        58.80386
630.16        58.73856
630.59        58.52564
631.02        58.65943
631.45        58.34922
631.88        58.33296
632.31        58.39488
632.74        58.31375
633.17         58.4981
633.60        58.46139
634.03         58.3315
634.46          58.179
634.89        57.98561
635.32        57.94509
635.75        58.04597
636.18        58.24957
636.61        58.47603
637.04        58.60147
637.47        58.59263
637.89         58.4951
638.32        58.34328
638.75        58.21895
639.18        58.15178
639.61        58.11856
640.04        58.11639
640.47        58.14191
640.90        58.18711
641.33        58.25573
641.76        58.32841
642.18        58.37507
642.61        58.37336
643.04        58.33527
643.47        58.27596
643.90         58.2277
644.33        58.19921
644.76        58.17807
645.18          58.166
645.61         58.1625
646.04        58.14857
646.47        58.16869
646.90        58.06559
647.33        58.05902
647.75        58.09471
648.18        58.15588
648.61        58.24648
649.04        58.30394
649.47        58.30352
649.89        58.60252
650.32        58.53783
650.75        58.56408
651.18        58.46894
651.61        58.30062
652.03        58.14198
652.46        57.92122
652.89        57.71724
653.32        58.00768
653.74        58.74213
654.17         58.3564
654.60        58.07647
655.03        58.11747
655.46        58.07314
655.88        58.49323
656.31        59.96061
656.74        65.25209
657.16        63.95253
657.59        62.20058
658.02        59.71537
658.45        58.70342
658.87        58.69903
659.30         58.4952
659.73        58.55029
660.15        57.94378
660.58         58.3576
661.01        58.61311
661.44         58.9571
661.86        58.77209
662.29        58.16186
662.72        57.87922
663.14         57.9906
663.57        58.15758
664.00        58.31633
664.42        58.40973
664.85        58.39034
665.27        58.57781
665.70        58.43424
666.13        58.44493
666.55        58.45922
666.98        58.47569
667.41        58.46439
667.83        58.40362
668.26          58.306
668.69        58.12487
669.11        57.91559
669.54        57.94562
669.96        58.27271
670.39        58.10585
670.82        58.73609
671.24        58.71249
671.67        58.47409
672.09        58.37677
672.52         58.4739
672.94        58.46048
673.37         58.3585
673.80        58.40767
674.22        58.58462
674.65        58.66027
675.07        58.62975
675.50        58.57158
675.92        58.51593
676.35        58.47125
676.77        58.44772
677.20        58.45399
677.62        58.50241
678.05        58.52959
678.47        58.51622
678.90        58.76345
679.32        58.72893
679.75        58.81311
680.17        58.84972
680.60        58.86115
681.02        58.85351
681.45        58.82315
681.87         58.7907
682.30        58.78907
682.72        58.82257
683.15        58.80115
683.57        58.71293
684.00        58.77103
684.42        58.61822
684.85        58.61905
685.27        58.65779
685.70        58.72701
686.12        58.79139
686.54        58.83929
686.97        58.85771
687.39        58.87141
687.82        58.88327
688.24        58.88861
688.66        58.86138
689.09        58.99486
689.51        58.86597
689.94        58.93495
690.36        59.05688
690.78        59.15667
691.21        59.19946
691.63        59.13012
692.06        58.98964
692.48         58.9092
692.90        58.90399
693.33        58.86072
693.75         58.7885
694.17        58.76018
694.60        58.79084
695.02        58.81015
695.44        58.93543
695.87        58.97042
696.29         58.9919
696.71        58.93245
697.14        58.87699
697.56        59.26081
697.98        59.93936
698.41        60.00013
698.83        59.99836
699.25        59.74383
699.68        59.49987
700.10        59.28303
700.52        59.14202
700.94        59.07038
701.37        59.03054
701.79        59.01575
702.21        58.99504
702.64        58.98447
703.06        58.98701
703.48        59.00866
703.90        59.05207
704.33        59.10841
704.75        59.16038
705.17        59.16684
705.59        59.12503
706.01        59.04205
706.44        58.97745
706.86        59.04718
707.28        59.25056
707.70        59.54194
708.12        59.83248
708.55        59.98001
708.97         59.9473
709.39        59.78942
709.81        59.56277
710.23        59.37374
710.66        59.27162
711.08        59.24221
711.50        59.26455
711.92        59.31935
712.34        59.39312
712.76        59.48988
713.19        59.59286
713.61        59.71145
714.03        59.81384
714.45        59.90833
714.87        59.97867
715.29        59.96524
715.71        59.86181
716.13        59.83994
716.56        59.65194
716.98        59.63617
717.40        59.71319
717.82        59.87561
718.24         60.0666
718.66        60.15163
719.08        60.20589
719.50        60.13613
719.92        59.99408
720.34        59.98759
720.76        60.17331
721.19        59.84151
721.61        60.16253
722.03        60.15503
722.45        60.16133
722.87        60.16676
723.29        60.19479
723.71        60.25581
724.13        60.34086
724.55        60.44791
724.97        60.56081
725.39        60.65887
725.81        60.73206
726.23        60.78301
726.65        60.80586
727.07        60.79752
727.49        60.76404
727.91        60.69825
728.33        60.62119
728.75        60.60345
729.17        60.64179
729.59        60.64945
730.01        60.64222
730.43         60.7145
730.85        60.86338
731.27        61.01633
731.69        61.15398
732.10        61.22503
732.52          61.398
732.94         61.2834
733.36        61.00561
733.78        60.85298
734.20        60.86909
734.62        60.90146
735.04        60.91557
735.46        60.95084
735.88        61.00849
736.30        61.00262
736.72        60.93745
737.13        61.10334
737.55        61.37314
737.97        61.10021
738.39        60.46256
738.81         60.5004
739.23        61.15587
739.65        61.37835
740.06        61.08981
740.48        61.03609
740.90        61.18494
741.32        61.14725
741.74        60.96559
742.16        60.91971
742.57        61.05014
742.99        61.26081
743.41        61.47951
743.83        61.57001
744.25         61.5032
744.67         61.3298
745.08        61.15044
745.50         61.0814
745.92        61.17172
746.34        61.38282
746.75        61.62152
747.17        61.73313
747.59        61.68083
748.01        61.48259
748.42        61.24058
748.84        61.14111
749.26        61.18873
749.68        61.28933
750.09        61.37251
750.51        61.23959
750.93        60.98186
751.35        61.06073
751.76        61.41565
752.18        61.52758
752.60        61.36773
753.01        61.25203
753.43        61.18608
753.85        61.09076
754.27        60.98481
754.68        60.89446
755.10        60.85684
755.52        60.90479
755.93        61.03495
756.35        61.23132
756.77        61.45141
757.18        61.59318
757.60        61.62003
758.02        61.64574
758.43        61.70015
758.85        61.49127
759.26        61.38352
759.68        61.64485
760.10        61.56845
760.51         61.4728
760.93        61.92363
761.34        61.35706
761.76        61.79692
762.18        61.75346
762.59        61.73003
763.01        61.88298
763.42        61.38437
763.84        61.49555
764.26        61.57769
764.67        61.64182
765.09        61.61934
765.50         62.0103
765.92         62.6492
766.33        62.62791
766.75        62.00064
767.16         61.7649
767.58        61.94676
768.00        62.06074
768.41        62.08357
768.83        61.99766
769.24        61.81227
769.66        62.15847
770.07        62.05502
770.49        62.19866
770.90        62.25564
771.32        62.10121
771.73        61.81973
772.15        61.70799
772.56        61.81691
772.97        61.99166
773.39        62.13533
773.80        62.21979
774.22        62.18618
774.63        62.07194
775.05        61.93126
775.46        61.89729
775.88        61.97887
776.29        62.16024
776.70        62.35121
777.12         62.4164
777.53        62.34174
777.95        62.16653
778.36        61.97042
778.77        61.87417
779.19         61.9132
779.60        62.05285
780.02        62.24047
780.43        62.43488
780.84        62.61528
781.26        62.70679
781.67        62.74611
782.09        62.92096
782.50        63.13241
782.91        62.97732
783.33        62.53735
783.74        62.38353
784.15        62.53587
784.57        62.78951
784.98        63.04173
785.39        63.02795
785.81         62.7999
786.22         62.7988
786.63        63.00835
787.04        63.04411
787.46        62.91307
787.87        62.82094
788.28        62.81279
788.70        62.82834
789.11        62.85443
789.52        62.95834
789.93        63.09355
790.35        63.09476
790.76        62.98834
791.17        62.96167
791.58        63.04325
792.00        63.07183
792.41         63.0671
792.82        63.24137
793.23        63.56329
793.65        63.53654
794.06        63.29382
794.47        63.71217
794.88        64.63332
795.29        64.63812
795.71        64.66603
796.12        64.36472
796.53        64.12334
796.94        63.97535
797.35        63.94951
797.76        63.90171
798.18        63.80118
798.59        63.74584
799.00         63.7221
799.41        63.66925
799.82        63.58442
800.23         63.5019
800.64        63.42945
801.06        63.33785
801.47        63.27893
801.88        63.27322
802.29        63.32401
802.70        63.41143
803.11        63.53368
803.52        63.68386
803.93        63.85806
804.34        64.06355
804.75        64.24151
805.17        64.33625
805.58        64.36942
805.99         64.1964
806.40        63.94803
806.81        64.18005
807.22        64.76475
807.63          64.898
808.04         64.5814
808.45        64.48679
808.86        64.63753
809.27        64.60136
809.68        64.42059
810.09        64.39042
810.50        64.53671
810.91         64.7792
811.32        65.00883
811.73        65.04572
812.14        64.85036
812.55        64.48611
812.96         64.0916
813.37         63.8983
813.78        63.96905
814.19        64.22951
814.60        64.55122
815.01        64.73591
815.42        64.72707
815.83        64.58144
816.24        64.36584
816.65        64.20444
817.05        64.15825
817.46        64.17057
817.87         64.2306
818.28        64.28397
818.69        64.31714
819.10        64.34818
819.51        64.42249
819.92        64.60747
820.33        64.89909
820.74        65.24951
821.14        65.55944
821.55        65.70833
821.96        65.65719
822.37        65.44217
822.78        65.13544
823.19        64.87109
823.60        64.70399
824.00        64.62268
824.41        64.57545
824.82        64.52829
825.23        64.46973
825.64        64.43658
826.04        64.45006
826.45        64.49569
826.86        64.58681
827.27        64.71164
827.68        64.88126
828.08        65.14226
828.49        65.41306
828.90         65.7095
829.31        65.99434
829.72        66.11799
830.12        66.05982
830.53        66.22257
830.94        65.89087
831.35        65.62705
831.75        65.26086
832.16        64.80757
832.57        64.41238
832.97        64.30327
833.38        64.51715
833.79        64.97534
834.20         65.5154
834.60        65.88905
835.01        66.02612
835.42        65.98806
835.82        65.85633
836.23        65.73513
836.64        65.68682
837.04        65.68416
837.45        65.68884
837.86        65.70183
838.26        65.72759
838.67        65.76838
839.08        65.83046
839.48        65.89867
839.89        65.96014
840.29        66.01174
840.70        66.05951
841.11        66.11617
841.51        66.19456
841.92         66.2543
842.33        66.29147
842.73        66.29545
843.14        66.22945
843.54        66.14789
843.95         66.0611
844.35        66.00768
844.76         65.9935
845.17        66.00101
845.57        66.07996
845.98         66.2758
846.38        66.60292
846.79        67.01152
847.19        67.39411
847.60        67.50251
848.00        67.32275
848.41        66.88526
848.81        66.39747
849.22        66.15158
849.62        66.27142
850.03        66.64143
850.43        67.11943
850.84        67.36973
851.24        67.36089
851.65        67.12213
852.05        66.84988
852.46        66.79349
852.86        67.01644
853.27         67.4439
853.67        67.83546
854.07        68.01116
854.48        67.90247
854.88        67.59975
855.29         67.1921
855.69        67.00674
856.10        67.04034
856.50        67.28763
856.90        67.54795
857.31         67.5301
857.71        67.22174
858.12        66.68565
858.52        66.08157
858.92        65.60721
859.33        65.33275
859.73        65.24205
860.13        65.31595
860.54        65.52064
860.94        65.87238
861.34        66.32722
861.75        66.75549
862.15         67.0177
862.55        67.02827
862.96        66.79605
863.36        66.42502
863.76        66.04983
864.17        65.72807
864.57        65.47931
864.97          65.256
865.38        64.95436
865.78        64.60202
866.18        64.23062
866.58        64.00195
866.99        64.15296
867.39        64.73691
867.79         65.6198
868.19        66.51089
868.60        66.93552
869.00        66.88976
869.40        66.66316
869.80        66.36689
870.21        66.03687
870.61        65.81694
871.01        65.73927
871.41        65.73429
871.81        65.61304
872.22        65.35941
872.62        65.05969
873.02         64.7614
873.42        64.70918
873.82        64.76273
874.22         64.3801
874.63        63.84899
875.03        63.76278
875.43        64.17607
875.83        65.74504
876.23        65.66588
876.63        65.30067
877.03        64.34198
877.44        62.26222
877.84        167.5445
878.24        62.92233
878.64        63.58004
879.04        64.99315
879.44        65.47839
879.84        62.32014
880.24        67.40763
880.64         67.8399
881.04        65.80541
881.44        64.26852
881.84        63.71552
882.24        64.26207
882.65        65.27429
883.05        65.36559
883.45        64.27615
883.85        62.86925
884.25        61.70666
884.65         61.2723
885.05        61.71959
885.45        62.80397
885.85        64.05408
886.25        64.81427
886.65        64.92078
887.05        64.56955
887.45        63.99274
887.85        63.58563
888.25        63.49091
888.65        63.57434
889.04        63.76273
889.44        63.95531
889.84        64.09062
890.24        64.20996
890.64        64.30178
891.04        64.32882
891.44        64.29282
891.84        64.20799
892.24        64.06571
892.64         63.8701
893.04        63.64597
893.44        63.40394
893.83        63.25905
894.23        63.34579
894.63        63.69021
895.03        64.25903
895.43        64.87792
895.83        65.24998
896.23        65.30544
896.63        65.11523
897.02        64.86765
897.42        64.91573
897.82        65.28482
898.22        65.85061
898.62          66.396
899.01        66.58022
899.41        66.30264
899.81        65.71331
900.21        64.97826
900.61        64.36414
901.00        63.96539
901.40        63.77522
901.80        63.79155
902.20        63.86863
902.59        63.94299
902.99        64.31068
903.39        65.00478
903.79        64.43038
904.18        65.14905
904.58        65.08795
904.98        64.96664
905.38        64.65852
905.77        64.17798
906.17        63.57854
906.57        63.00086
906.96        62.77541
907.36        62.96791
907.76        63.51905
908.15        64.23863
908.55        64.64739
908.95        64.67028
909.34        64.37483
909.74        64.03394
910.14        64.05507
910.53        64.51498
910.93        65.24941
911.33        65.94468
911.72        66.11109
912.12        65.66515
912.52        64.80212
912.91        63.80886
913.31        63.21075
913.70        63.12001
914.10        63.37007
914.49        63.81757
914.89        64.13433
915.29        64.22943
915.68        64.19658
916.08        64.07642
916.47        63.87377
916.87        63.65246
917.26        63.39409
917.66        63.17818
918.05        63.16871
918.45        63.37082
918.84        63.74376
919.24        64.19061
919.64        64.60026
920.03        64.92046
920.42        65.15614
920.82        65.25697
921.21        65.16898
921.61        64.93051
922.00        64.62553
922.40        64.43318
922.79        64.50223
923.19        64.50244
923.58        65.25842
923.98        67.00346
924.37        67.15925
924.77        64.33826
925.16        72.01094
925.55        65.84015
925.95        66.26423
926.34        66.36189
926.74        65.94219
927.13        64.86308
927.52        64.03783
927.92        63.90859
928.31        63.93322
928.70        64.17606
929.10        64.63438
929.49        65.28287
929.89         66.1378
930.28        66.91193
930.67        67.00199
931.07        66.31663
931.46        64.92939
931.85          63.417
932.24         63.2186
932.64        64.57559
933.03        66.42603
933.42         67.7506
933.82        70.31712
934.21         68.7795
934.60        67.37946
934.99        65.84004
935.39        65.28252
935.78        65.81862
936.17        67.76949
936.56        74.09564
936.96        67.30077
937.35        71.24769
937.74        68.34951
938.13        66.41685
938.53        64.87704
938.92        64.36641
939.31        65.37144
939.70        66.76841
940.09        67.48422
940.49        67.26201
940.88         66.4975
941.27        65.53256
941.66        64.99763
942.05        65.13697
942.44        65.69334
942.84        66.32564
943.23        66.66478
943.62        66.58942
944.01         66.2023
944.40        65.79432
944.79        65.83485
945.18        66.41635
945.57        67.38444
945.97        68.25556
946.36          68.398
946.75         67.6453
947.14        66.19943
947.53         64.6367
947.92         63.9524
948.31        64.40129
948.70        65.66418
949.09        67.12707
949.48        67.83901
949.87        67.57528
950.26        66.65041
950.65        65.49837
951.04        64.82455
951.43        64.85271
951.82        65.34415
952.21        66.06705
952.60        66.64165
952.99        66.89696
953.38        66.94333
953.77        66.85242
954.16        66.70139
954.55        66.53687
954.94        66.35474
955.33        66.10177
955.72        65.72345
956.11        65.24698
956.50        64.70068
956.89        64.34837
957.28        64.57564
957.66        65.44293
958.05        66.74403
958.44        68.01563
958.83        68.56236
959.22        68.23044
959.61        67.14856
960.00        65.79091
960.39        65.09881
960.78        65.36411
961.16        66.34193
961.55        67.35963
961.94        67.58955
962.33        66.87384
962.72        65.43156
963.11        63.81828
963.49        63.16245
963.88        63.81128
964.27        65.35612
964.66         67.0319
965.04        67.80618
965.43        67.41849
965.82        66.23173
966.21        64.76299
966.60        63.92202
966.98        64.00926
967.37        64.72997
967.76        65.71338
968.15        66.35925
968.53         66.4972
968.92        66.31599
969.31        66.00898
969.69        65.86141
970.08        65.93512
970.47        66.08425
970.86        66.27905
971.24        66.50738
971.63        66.71293
972.02        66.94127
972.40        67.06969
972.79        66.79858
973.17         66.1675
973.56        65.27531
973.95        64.42966
974.33        64.18439
974.72        64.67387
975.11        65.68819
975.49        67.01767
975.88        68.22721
976.26        69.19585
976.65        69.93695
977.04        70.35364
977.42        70.28549
977.81        69.69458
978.19        68.54573
978.58        67.35297
978.96        67.03101
979.35        67.77203
979.74        69.26022
980.12        70.81413
980.51        71.37453
980.89        70.90453
981.28        69.57121
981.66         67.8554
982.05         66.9763
982.43        67.38595
982.82        68.77414
983.20        70.44913
983.59        71.34389
983.97        71.24244
984.35        70.39879
984.74        69.27239
985.12        68.75519
985.51        69.05544
985.89        69.93451
986.28        70.86802
986.66        71.18349
987.04        70.79634
987.43        69.84657
987.81        68.53889
988.20         68.7343
988.58        70.79237
988.96        71.67752
989.35        70.44586
989.73        76.41531
990.12        73.09103
990.50        73.13263
990.88        72.27912
991.27        71.32457
991.65        70.32614
992.03        69.37738
992.42        68.72697
992.80         68.2017
993.18        67.81764
993.56        67.72121
993.95        67.80333
994.33        67.78696
994.71        67.63555
995.10        67.38506
995.48        67.24256
995.86          67.567
996.24         68.3853
996.63        69.42993
997.01         70.5454
997.39        71.29995
997.77        71.56111
998.15         71.4742
998.54        71.12403
998.92         70.5313
999.30        69.81329
999.68        68.98917
1000.06        68.29767
1000.45          68.167
1000.83        68.81779
1001.21        70.09302
1001.59        71.68462
1001.97        73.10756
1002.35        74.16761
1002.73        74.90713
1003.12        75.38567
1003.50         75.7805
1003.88        76.12477
1004.26        76.36044
1004.64        76.39784
1005.02        76.08942
1005.40        75.39269
1005.78        74.38851
1006.16        73.26015
1006.54        72.24853
1006.92        71.51025
1007.30        71.16013
1007.69        71.04213
1008.07        70.97587
1008.45        70.89054
1008.83        70.75367
1009.21        71.02006
1009.59        72.49129
1009.97        75.00119
1010.35        77.88114
1010.73        80.20335
1011.11        81.24562
1011.49        81.10136
1011.86         79.7345
1012.24        77.30468
1012.62        77.71182
1013.00        78.51916
1013.38        79.12631
1013.76        77.91574
1014.14        82.15691
1014.52        87.64175
1014.90        80.49562
1015.28        81.13518
1015.66        82.13137
1016.04        78.64864
1016.41        78.99535
1016.79        78.27549
1017.17        77.85638
1017.55        77.13239
1017.93        76.42822
1018.31         76.1625
1018.69        76.41229
1019.06        77.24401
1019.44        78.49367
1019.82        79.61572
1020.20        79.86761
1020.58        79.12074
1020.95        77.32545
1021.33        75.12364
1021.71        74.36008
1022.09        75.81184
1022.46        78.46135
1022.84        80.97617
1023.22        82.48613
1023.60        83.06585
1023.97        83.10306
1024.35        82.76313
1024.73        82.31585
