SpectraSmart Spectrum 2.9.0.0
--------- Device Information -----------
Spectrum Name :  反射率_0
Saving Time :  2024/04/21 00:44:57
Spectro-Module Model Name : SE2030-DUVN
Spectro-Module Serial Number : OS361AC55029948
Wavelength Start : 200
Wavelength End : 1025
Wavelength Unit : Wavelength(nm)
Spectrum Unit : Reflectance(%)
-----------Spectrum Setting ------------
Integration Time : 20ms
Average : 10
Boxcar : 0
Background removal :  enabled
linearity correction :  enabled
SC :  disabled
Intensity correction :  disabled
DWT denoise :  enabled
savitzky-golay :  disabled
FFT :  disabled
Running average :  disabled
Kalman :  disabled
High pass :  disabled
---------------BEGIN--------------------
Wavelength(nm)             Reflectance(%)
200.29               0
200.75        -52.2386
201.21       -15.50125
201.67        2.885531
202.13        10.62879
202.58        12.81417
203.04        11.89717
203.50        8.807205
203.96         5.38129
204.42        2.721123
204.88       0.2354262
205.34       -2.466707
205.80       -6.844916
206.26       -13.32577
206.72       -19.58225
207.18       -25.76004
207.64       -32.57863
208.10        -37.8997
208.55        -42.3421
209.01       -35.59344
209.47       -10.51746
209.93        14.44578
210.39        31.93717
210.85        41.55502
211.31         43.5938
211.77        39.30362
212.23        27.73253
212.69        3.958352
213.14       -37.24173
213.60        -104.382
214.06       -278.3727
214.52       -625.3944
214.98       -256.9243
215.44       -64.95138
215.90       -3.930883
216.36        14.23666
216.81        11.68717
217.27       -11.69713
217.73       -122.4523
218.19        1191.193
218.65        482.2206
219.11       -1058.857
219.57       -50.93819
220.02         13.7708
220.48        28.04803
220.94        28.36039
221.40        17.61671
221.86       -12.11043
222.32       -32.69799
222.77       -6.605361
223.23        15.84856
223.69        26.75737
224.15        29.62288
224.61        28.09518
225.06        24.75039
225.52        19.97597
225.98         13.9329
226.44        7.291735
226.90        -1.03473
227.36       -6.569868
227.81       -1.460706
228.27        10.13881
228.73        22.15372
229.19         29.8698
229.65        30.88701
230.10        26.22215
230.56        17.49908
231.02        6.139303
231.48       -1.758021
231.93       -1.590259
232.39        4.414995
232.85        11.55801
233.31        15.77663
233.77        17.21494
234.22        17.67276
234.68        17.45035
235.14        16.93381
235.60        16.68304
236.05         15.6302
236.51        14.04596
236.97        18.98843
237.43        30.79748
237.88         38.3943
238.34        37.66253
238.80        60.27908
239.26        49.98118
239.71        47.87851
240.17        39.13101
240.63        29.58694
241.08        23.25286
241.54        23.61942
242.00        31.44328
242.46        36.10603
242.91        34.83055
243.37        28.88093
243.83        20.82369
244.28         19.5591
244.74        28.87432
245.20        42.43597
245.66        53.38054
246.11        55.68745
246.57        49.12069
247.03        35.81798
247.48        18.25153
247.94       0.5814984
248.40        -18.7208
248.85       -55.75285
249.31       -154.9285
249.77       -217.5223
250.22       -62.52486
250.68       -1.717317
251.14        17.07314
251.59        21.90259
252.05        21.09805
252.51         16.9317
252.96        9.324599
253.42        3.047065
253.88        3.098689
254.33        8.287622
254.79        18.80391
255.25        32.20335
255.70        44.20456
256.16        53.44387
256.62         59.3631
257.07        61.88367
257.53        62.54139
257.99        62.09235
258.44        60.98261
258.90        60.26503
259.35        59.48853
259.81        58.86466
260.27        58.09399
260.72        56.98689
261.18        55.93821
261.63        54.77845
262.09        53.71733
262.55        52.51621
263.00        51.09322
263.46        49.68233
263.91        48.24949
264.37        47.17562
264.83         46.3952
265.28        45.77101
265.74        45.23018
266.19        44.47236
266.65         43.5189
267.11        42.39947
267.56        41.20412
268.02        40.16632
268.47        39.27748
268.93        38.49048
269.38        37.67488
269.84        36.69123
270.30        35.51352
270.75        34.23615
271.21        32.97003
271.66        31.81519
272.12        30.84421
272.57        29.99456
273.03        29.32785
273.48        28.89228
273.94        28.67956
274.39        28.63766
274.85        28.60768
275.31        28.28732
275.76        27.63527
276.22        26.77721
276.67        25.93837
277.13        25.52053
277.58        25.52399
278.04        25.81102
278.49        26.09237
278.95        26.03653
279.40        25.55259
279.86        24.82078
280.31         23.9833
280.77        23.32147
281.22         22.8776
281.68        22.61602
282.13        22.43762
282.59        22.27638
283.04        22.08017
283.50        21.89448
283.95        21.75707
284.41        21.74036
284.86        21.83835
285.32        22.03293
285.77        22.21226
286.22        22.23698
286.68        22.11235
287.13        21.85012
287.59        21.64081
288.04        21.66528
288.50        21.92425
288.95        22.46932
289.41        23.15522
289.86        23.27799
290.32         22.7234
290.77        23.52077
291.22        22.54836
291.68        22.68934
292.13        23.04506
292.59        23.64886
293.04        24.41848
293.50        25.29722
293.95        26.27082
294.40        27.32931
294.86        28.49246
295.31        29.77653
295.77        31.16612
296.22        32.61764
296.68        34.07293
297.13        35.44574
297.58        36.74141
298.04        37.99807
298.49         39.2879
298.95        40.74566
299.40        42.37743
299.85        44.13984
300.31        45.95582
300.76        47.68177
301.21        49.28907
301.67        50.84224
302.12        52.36134
302.58         53.9806
303.03        55.69944
303.48        57.52244
303.94        59.42059
304.39        61.30098
304.84        63.13844
305.30        64.95672
305.75        66.73512
306.20        68.54704
306.66        70.39605
307.11        72.21066
307.57        73.94151
308.02        75.44679
308.47        76.73173
308.93         77.8718
309.38        78.92789
309.83         80.0447
310.29        81.32601
310.74        82.64796
311.19         83.9355
311.65        85.02105
312.10        85.85638
312.55        86.50954
313.00        87.08266
313.46        87.74004
313.91        88.50861
314.36        89.34108
314.82        90.17511
315.27        90.90893
315.72        91.51954
316.18        92.04271
316.63        92.50388
317.08        92.94444
317.53        93.37729
317.99        93.78325
318.44        94.15645
318.89        94.47736
319.35        94.74443
319.80        94.97961
320.25        95.19872
320.70        95.42941
321.16        95.66748
321.61        95.91118
322.06        96.15084
322.51        96.37889
322.97          96.577
323.42        96.78863
323.87        96.97046
324.32        97.06868
324.78        97.06679
325.23        97.01788
325.68        96.99783
326.13        97.15885
326.59        97.50612
327.04        98.04285
327.49        98.62868
327.94        99.05613
328.39        99.26588
328.85        99.28587
329.30        99.26953
329.75        99.35892
330.20         99.6062
330.66        99.92122
331.11         100.317
331.56         100.686
332.01             101
332.46        101.3026
332.92        101.5383
333.37        101.7426
333.82        101.8818
334.27        101.9552
334.72        102.0642
335.17         102.383
335.63        102.9162
336.08        103.6786
336.53        104.4849
336.98        105.0658
337.43        105.3478
337.88        105.3933
338.34        105.3507
338.79        105.5312
339.24        105.9885
339.69        106.6354
340.14        107.3077
340.59        107.7544
341.05        107.9194
341.50        107.8943
341.95        107.8264
342.40        107.9538
342.85        108.3386
343.30        108.9012
343.75        109.4984
344.20         109.913
344.66         110.092
345.11        110.0793
345.56        109.9993
346.01        110.0413
346.46        110.2538
346.91        110.5755
347.36        110.8687
347.81        110.9609
348.26        110.8304
348.72        110.4323
349.17        110.1459
349.62        110.0799
350.07         110.348
350.52        110.8399
350.97         111.353
351.42        111.5567
351.87        111.3585
352.32         110.864
352.77        110.2275
353.22        109.6828
353.67        109.3031
354.13        109.0404
354.58        108.7986
355.03        108.4808
355.48        108.0621
355.93        107.5867
356.38        107.1243
356.83        106.7672
357.28        106.5171
357.73        106.3205
358.18        106.0737
358.63        105.6245
359.08        104.9456
359.53        104.0987
359.98        103.1816
360.43        102.3379
360.88        101.6097
361.33        100.9589
361.78        100.3497
362.23         99.7248
362.68        99.06368
363.13        98.38681
363.58        97.69797
364.03        96.99557
364.48        96.27968
364.93         95.5472
365.38        94.79452
365.83        94.02474
366.28         93.2439
366.73        92.45124
367.18        91.67685
367.63        90.96774
368.08        90.32943
368.53        89.75224
368.98        89.17308
369.43        88.48122
369.88        87.65327
370.33        86.72078
370.78        85.76402
371.23        84.94103
371.68        84.30476
372.13        83.80596
372.58        83.39195
373.03        82.96404
373.48        82.47881
373.93        81.97025
374.38        81.41171
374.83          80.769
375.28         80.0623
375.72         79.2924
376.17        78.57823
376.62         78.0344
377.07         77.6647
377.52        77.41957
377.97        77.19901
378.42        76.84341
378.87        76.32327
379.32        75.70477
379.77        75.05747
380.22        74.46896
380.67        73.95274
381.11        73.47148
381.56        73.01228
382.01        72.57897
382.46        72.17598
382.91        71.82129
383.36        71.47196
383.81        71.05265
384.26        70.55181
384.71        69.98516
385.15        69.42027
385.60        69.02557
386.05        68.80192
386.50        68.70312
386.95        68.61692
387.40        68.37222
387.85        67.94639
388.29        67.36945
388.74        66.83649
389.19        66.43938
389.64        66.19521
390.09        66.05087
390.54        65.94379
390.98        65.76482
391.43        65.52217
391.88        65.24231
392.33        64.96424
392.78        64.72889
393.23        64.54558
393.67        64.39168
394.12         64.3035
394.57        64.12768
395.02        63.87562
395.47        63.68656
395.91        63.58007
396.36        63.44075
396.81        63.28108
397.26        63.19355
397.71        63.11069
398.15        62.86595
398.60        62.52275
399.05        62.06381
399.50        61.62727
399.95        61.42761
400.39        61.45746
400.84         61.5974
401.29        61.71617
401.74        61.42835
402.18        60.82898
402.63        60.55627
403.08        60.60442
403.53        60.41627
403.97        59.99524
404.42        59.71536
404.87        59.61203
405.32        59.59495
405.76        59.64686
406.21        59.76505
406.66        59.88955
407.11        59.96074
407.55        59.93769
408.00        59.77128
408.45        59.49315
408.90        59.05997
409.34        58.60868
409.79        58.52499
410.24        58.74063
410.68        58.81509
411.13        58.71631
411.58        58.70061
412.03        58.76715
412.47        58.79589
412.92        58.75631
413.37        58.68858
413.81        58.60202
414.26        58.56221
414.71        58.56099
415.15         58.5887
415.60          58.599
416.05         58.5657
416.49        58.48335
416.94        58.36177
417.39         58.2141
417.83        58.05046
418.28        57.88136
418.73        57.69912
419.17        57.53213
419.62        57.43901
420.07        57.42965
420.51        57.48429
420.96        57.56509
421.41        57.59048
421.85        57.52589
422.30        57.37032
422.74        57.17342
423.19        57.24284
423.64          57.514
424.08        57.62943
424.53        57.52167
424.98        57.51451
425.42        57.62476
425.87        57.61099
426.31        57.52373
426.76        57.59129
427.21        57.80098
427.65        57.99542
428.10        58.08606
428.54        58.09408
428.99        58.04342
429.44        57.91299
429.88        57.71766
430.33        57.58043
430.77        57.48732
431.22        57.45953
431.66        57.47526
432.11        57.65405
432.56        57.97183
433.00        57.95065
433.45        57.45061
433.89        57.48881
434.34        58.15557
434.78        57.23808
435.23        56.83633
435.67        57.88692
436.12        58.00008
436.57        58.22844
437.01        57.84958
437.46         57.5596
437.90        57.94027
438.35        58.43697
438.79         58.2791
439.24        58.32754
439.68        58.32481
440.13        58.23525
440.57        58.08543
441.02        58.11887
441.46        58.30431
441.91        58.25958
442.35        58.03627
442.80        58.37003
443.24        59.06484
443.69        59.17995
444.13        58.71174
444.58        58.39592
445.02        58.31116
445.47        58.35867
445.91        58.48385
446.36          58.554
446.80        58.54399
447.24         58.5358
447.69        58.55698
448.13        58.73888
448.58        58.86422
449.02        58.80179
449.47        58.54496
449.91        58.40196
450.36        58.41368
450.80        58.33453
451.25        58.21922
451.69        58.30006
452.13          58.529
452.58        58.59319
453.02        58.46378
453.47        58.35803
453.91        58.27612
454.36        58.10106
454.80        57.84868
455.24        57.68571
455.69        57.66117
456.13        57.54213
456.58        57.38356
457.02         57.6876
457.46        57.98562
457.91        57.86906
458.35        57.42034
458.79        57.18628
459.24        57.21843
459.68        57.21702
460.13        57.21611
460.57         57.0785
461.01        56.77302
461.46        57.21289
461.90        56.91599
462.34        56.80524
462.79        56.88199
463.23        56.90567
463.68        56.97668
464.12        56.81462
464.56        56.52577
465.01        56.79814
465.45        57.36203
465.89        57.23985
466.34        56.56747
466.78        56.23468
467.22        56.35096
467.67         56.3423
468.11        56.47973
468.55         56.4022
468.99        56.21612
469.44        56.11612
469.88        56.10629
470.32        55.99499
470.77        55.80251
471.21         55.6868
471.65        55.66402
472.10        55.68827
472.54        55.71891
472.98        55.73274
473.42        55.73833
473.87        55.68224
474.31        55.55106
474.75        55.63813
475.20         55.9366
475.64        55.54931
476.08        55.71082
476.52        55.58894
476.97        55.50647
477.41        55.58298
477.85        55.82069
478.29        55.27248
478.74        55.16796
479.18        55.25259
479.62         55.1957
480.06        55.30379
480.50        55.39137
480.95        55.53178
481.39        55.59244
481.83        55.83916
482.27        55.98361
482.72        55.45153
483.16        55.42928
483.60        55.57839
484.04        55.53992
484.48        55.43962
484.93        55.71358
485.37        55.21926
485.81        55.73289
486.25        54.86415
486.69        55.73095
487.14        55.26214
487.58         55.3145
488.02        55.91749
488.46        55.27452
488.90        55.35268
489.34        55.31882
489.79        54.78211
490.23        55.19078
490.67        55.24538
491.11        55.35933
491.55        55.30887
491.99        55.15979
492.43        55.12067
492.88        55.18159
493.32        55.36284
493.76        55.28789
494.20         55.2863
494.64        55.30477
495.08        54.84016
495.52        54.61367
495.96        54.75432
496.41         55.2826
496.85         55.1449
497.29        54.43987
497.73        54.44253
498.17        54.81978
498.61         55.0063
499.05        54.82747
499.49        54.61832
499.93        54.49131
500.37        54.48602
500.82          54.591
501.26        54.88002
501.70        55.21005
502.14         54.8588
502.58        54.40063
503.02        54.17563
503.46        54.31794
503.90        54.47116
504.34        54.54911
504.78        54.61674
505.22         54.6551
505.66        54.60905
506.10        54.51947
506.54        54.49904
506.98        54.56849
507.42        54.26501
507.86        54.85872
508.30        54.17257
508.74        54.60139
509.18         54.4768
509.62        54.41983
510.06        54.40826
510.50        54.42851
510.94        54.39796
511.38        54.30321
511.82         54.2422
512.26        54.21609
512.70        54.18448
513.14        54.13953
513.58        54.08504
514.02        54.02215
514.46        53.95128
514.90         53.8791
515.34         53.8653
515.78        53.92177
516.22        53.97656
516.66        53.86587
517.10        54.22238
517.54        54.00623
517.98        54.03413
518.42        54.01698
518.86        54.00824
519.30        54.01277
519.74         53.9935
520.18        53.97319
520.62        54.04692
521.06        54.17445
521.50        54.15744
521.93        54.01362
522.37        53.94264
522.81        53.95812
523.25        53.94852
523.69        53.90068
524.13        53.84504
524.57         53.7822
525.01        53.70722
525.45        53.64157
525.89        53.61792
526.32        53.63895
526.76        53.69896
527.20        53.76962
527.64        53.80696
528.08         53.8003
528.52        53.76633
528.96        53.72491
529.40        53.70074
529.83        53.70029
530.27        53.73862
530.71        53.79473
531.15        53.83487
531.59        53.85004
532.03         53.8512
532.46        53.84067
532.90        53.83339
533.34        53.82854
533.78        53.82499
534.22        53.80983
534.66        53.76356
535.09        53.68035
535.53        53.58873
535.97        53.50659
536.41        53.47584
536.85        53.50346
537.28        53.57302
537.72        53.65979
538.16        53.72392
538.60        53.75031
539.04        53.75145
539.47        53.71919
539.91        53.68707
540.35        53.64914
540.79        53.60334
541.22        53.55952
541.66        53.54686
542.10        53.56533
542.54        53.60717
542.97        53.65007
543.41        53.68583
543.85        53.70328
544.29        53.71291
544.72         53.7049
545.16        53.70912
545.60        53.71587
546.04        53.67116
546.47        53.60765
546.91        53.65623
547.35          53.773
547.79        53.80936
548.22        53.73172
548.66        53.56279
549.10        53.37916
549.53        53.37894
549.97        53.54243
550.41        53.60367
550.84        53.55175
551.28        53.52555
551.72        53.52102
552.15        53.54634
552.59        53.63175
553.03        53.39601
553.46        53.50923
553.90        53.42863
554.34        53.34801
554.77        53.25676
555.21        53.20089
555.65        53.20784
556.08        53.26859
556.52         53.4533
556.96        53.56646
557.39        53.69381
557.83        53.76078
558.27        53.65456
558.70        53.45573
559.14        53.38926
559.57        53.46956
560.01        53.69248
560.45        53.91746
560.88        53.82336
561.32         53.5088
561.75        53.26265
562.19        53.19499
562.63        53.31983
563.06        53.53964
563.50        53.53844
563.93        53.32256
564.37        53.21033
564.80        53.23117
565.24        53.36168
565.68         53.5482
566.11        53.64027
566.55        53.63389
566.98         53.6436
567.42        53.69371
567.85        53.61811
568.29        53.53976
568.72        53.54025
569.16         53.6651
569.60        53.62642
570.03        53.68346
570.47        53.68718
570.90         53.6803
571.34        53.72305
571.77        53.97836
572.21        53.68533
572.64        53.72124
573.08        53.48423
573.51        53.97863
573.95        54.07658
574.38        53.56268
574.82        54.26608
575.25        53.93804
575.69        53.83948
576.12        53.35763
576.56        53.75234
576.99        54.04382
577.42        53.85413
577.86        53.80258
578.29        54.20465
578.73        54.37355
579.16        54.15893
579.60        53.71251
580.03        54.16371
580.47        54.31401
580.90        53.90475
581.33        54.10007
581.77        54.11908
582.20        54.12696
582.64        54.49805
583.07         54.0288
583.51        53.91444
583.94         53.6889
584.37        53.60456
584.81        53.63365
585.24        53.67122
585.68        54.03702
586.11        53.87785
586.54         54.0008
586.98        53.76895
587.41        53.51949
587.85        53.98034
588.28        54.09795
588.71        54.17803
589.15        53.98917
589.58        53.84054
590.01        53.64457
590.45         53.4454
590.88        53.64901
591.31        53.43047
591.75        53.51418
592.18          53.472
592.61        53.45223
593.05        53.88903
593.48        53.66357
593.91        53.96407
594.35        53.53067
594.78        53.54494
595.21        53.54007
595.65        53.59076
596.08        53.60365
596.51        53.78893
596.94        53.64204
597.38        53.69002
597.81        53.85728
598.24        53.69177
598.68        53.58992
599.11         53.7336
599.54        53.98959
599.97        53.39219
600.41        53.64478
600.84        53.74648
601.27         53.7863
601.70        53.77946
602.14        53.71155
602.57        53.63318
603.00        53.59212
603.43        53.52013
603.87        53.94537
604.30        53.80116
604.73        53.53654
605.16        53.75484
605.60        53.72389
606.03         53.8059
606.46        53.69109
606.89        54.00644
607.32        53.68243
607.76        54.01746
608.19        54.08614
608.62         53.7134
609.05        54.41249
609.48        53.77877
609.92        53.79883
610.35         53.9513
610.78        53.82221
611.21        53.61434
611.64        53.74257
612.07        53.74367
612.50        53.78513
612.94        53.77756
613.37        53.73823
613.80        53.80626
614.23         53.7137
614.66        53.70597
615.09        53.69774
615.52        53.67727
615.96        53.65277
616.39        53.62143
616.82        53.57907
617.25        53.64474
617.68        53.66862
618.11        53.53812
618.54        53.42756
618.97        53.40043
619.40        53.47064
619.84        53.60866
620.27        53.61593
620.70        53.45292
621.13        53.16244
621.56        53.21644
621.99        53.59648
622.42        53.70361
622.85        53.47194
623.28        53.56241
623.71        53.65491
624.14         53.5333
624.57        53.50024
625.00        53.77386
625.43        53.41164
625.86        53.43623
626.29        53.50488
626.72        53.55806
627.15         53.4571
627.58        53.29077
628.01        53.48932
628.44        53.21253
628.87        53.22174
629.30        53.62712
629.73        53.26539
630.16        53.63695
630.59        53.22729
631.02        53.46108
631.45         53.2394
631.88        53.25224
632.31         53.2983
632.74        53.11802
633.17        53.25221
633.60         53.2043
634.03        53.14022
634.46          53.106
634.89        53.04012
635.32        53.04437
635.75        53.09126
636.18        53.17144
636.61        53.25778
637.04        53.31108
637.47        53.32042
637.89        53.30348
638.32         53.2577
638.75        53.20296
639.18        53.14979
639.61        53.09595
640.04        53.05592
640.47        53.05337
640.90        53.08995
641.33        53.15739
641.76        53.23553
642.18        53.29464
642.61        53.31261
643.04        53.30597
643.47        53.27912
643.90        53.24668
644.33        53.21629
644.76         53.1671
645.18        53.11946
645.61        53.13468
646.04        53.19946
646.47        53.23288
646.90        53.22039
647.33        53.19936
647.75        53.16294
648.18        53.10846
648.61         53.0655
649.04        53.03846
649.47        53.02475
649.89        53.27337
650.32        53.19687
650.75        53.38525
651.18        53.56832
651.61        53.43456
652.03         53.0876
652.46        52.84382
652.89        52.79066
653.32        53.08823
653.74        53.60068
654.17        53.26686
654.60        53.07223
655.03        52.86588
655.46        52.74271
655.88        53.30899
656.31        54.19038
656.74         55.9733
657.16        54.79953
657.59        53.63077
658.02        52.99879
658.45        53.08514
658.87        53.54946
659.30        53.36903
659.73        53.18626
660.15        52.75797
660.58        52.95913
661.01        53.29757
661.44        53.75766
661.86        53.74172
662.29        53.29221
662.72        52.99929
663.14        52.97663
663.57        53.08704
664.00        53.26159
664.42        53.33489
664.85        53.29217
665.27         53.1786
665.70        53.19659
666.13        53.17715
666.55        53.18462
666.98        53.22422
667.41        53.26723
667.83        53.26927
668.26         53.2298
668.69        53.11245
669.11        52.95512
669.54        53.00348
669.96        53.31208
670.39         53.1128
670.82         53.6075
671.24        53.61169
671.67        53.48656
672.09        53.31197
672.52        53.17333
672.94        53.07822
673.37        53.04386
673.80        53.06784
674.22        53.13475
674.65        53.18153
675.07        53.20786
675.50        53.21849
675.92        53.21801
676.35        53.20117
676.77        53.16864
677.20        53.13726
677.62         53.1455
678.05        53.16273
678.47        53.17628
678.90        53.51012
679.32        53.53188
679.75        53.65974
680.17        53.70008
680.60        53.68417
681.02        53.62788
681.45        53.57188
681.87        53.53893
682.30        53.48784
682.72         53.4415
683.15        53.44446
683.57         53.4503
684.00        53.49818
684.42        53.20073
684.85        53.15324
685.27        53.23454
685.70        53.33303
686.12        53.39696
686.54        53.43291
686.97        53.42406
687.39        53.39045
687.82        53.35657
688.24        53.33824
688.66        53.32784
689.09        53.52837
689.51        53.51223
689.94        53.59776
690.36        53.63861
690.78        53.59143
691.21         53.4944
691.63        53.41509
692.06        53.41119
692.48        53.55076
692.90        53.76571
693.33        53.85014
693.75        53.78585
694.17        53.62999
694.60        53.43866
695.02        53.46265
695.44        53.48083
695.87        53.52481
696.29        53.53614
696.71        53.54847
697.14        53.56945
697.56        53.75242
697.98        54.04883
698.41        53.96434
698.83        54.01859
699.25        53.89397
699.68        53.79215
700.10        53.66298
700.52        53.51304
700.94        53.65619
701.37        53.51941
701.79        53.57522
702.21        53.63443
702.64        53.71362
703.06        53.78771
703.48        53.83323
703.90        53.85188
704.33        53.84002
704.75        53.81449
705.17        53.78685
705.59        53.76616
706.01        53.74828
706.44        53.75023
706.86        53.81395
707.28        53.92891
707.70        54.07924
708.12        54.23147
708.55        54.32587
708.97        54.34238
709.39        54.30577
709.81        54.23096
710.23        54.15139
710.66        54.08697
711.08        54.04064
711.50        54.00861
711.92        53.99802
712.34        54.00755
712.76        54.03465
713.19        54.06493
713.61        54.11139
714.03        54.14885
714.45        54.18887
714.87        54.22262
715.29        54.20134
715.71        54.11714
716.13         54.1203
716.56        53.97205
716.98        53.95867
717.40        54.00412
717.82        54.10175
718.24         54.2115
718.66        54.27019
719.08        54.26448
719.50        54.20993
719.92        54.14699
720.34          54.139
720.76        54.19989
721.19         54.3012
721.61         54.4184
722.03        54.48675
722.45        54.49008
722.87        54.44846
723.29        54.39365
723.71        54.37645
724.13        54.41219
724.55        54.48379
724.97        54.56979
725.39          54.637
725.81        54.67289
726.23        54.68457
726.65        54.68283
727.07        54.68998
727.49        54.71265
727.91        54.72953
728.33        54.72853
728.75        54.73356
729.17        54.72692
729.59        54.62453
730.01        54.47937
730.43        54.46391
730.85        54.59523
731.27        54.76809
731.69        54.93618
732.10         55.0345
732.52        55.19192
732.94        55.02647
733.36        54.67897
733.78        54.50542
734.20        54.55565
734.62        54.63686
735.04        54.71198
735.46        54.79687
735.88        54.87611
736.30        54.96222
736.72          55.016
737.13        55.01141
737.55         54.9195
737.97        54.67438
738.39        54.39647
738.81        54.48903
739.23        54.89391
739.65        55.06499
740.06        54.92867
740.48        54.91074
740.90        54.97881
741.32        54.88409
741.74        54.68109
742.16        54.61565
742.57        54.73302
742.99        54.94067
743.41        55.17463
743.83        55.31963
744.25        55.34299
744.67        55.28027
745.08        55.19843
745.50        55.16735
745.92        55.22425
746.34        55.34617
746.75        55.47595
747.17        55.51907
747.59        55.45737
748.01        55.29575
748.42        55.12078
748.84        55.08888
749.26        55.19693
749.68        55.36518
750.09        55.51579
750.51        55.44535
750.93        55.23178
751.35        55.29438
751.76        55.60032
752.18        55.71772
752.60        55.62714
753.01        55.60305
753.43        55.61836
753.85        55.55242
754.27        55.40794
754.68        55.21836
755.10        55.05592
755.52        55.01012
755.93         55.0971
756.35        55.29385
756.77        55.52237
757.18        55.63058
757.60        55.57869
758.02        55.44621
758.43        55.34092
758.85        55.11683
759.26        55.44426
759.68        55.59925
760.10        55.09845
760.51        55.13569
760.93         55.3788
761.34        55.57736
761.76        55.89011
762.18        55.99965
762.59        55.94344
763.01        55.98046
763.42        55.45578
763.84        55.55665
764.26        55.62661
764.67        56.02571
765.09        56.44423
765.50        56.43219
765.92        56.06861
766.33        55.85903
766.75        55.86942
767.16        55.85097
767.58        55.76344
768.00        55.98857
768.41        56.42142
768.83        56.29119
769.24        55.66677
769.66        55.84148
770.07        55.72901
770.49         55.9222
770.90        56.01537
771.32        55.89408
771.73        55.62274
772.15         55.5433
772.56         55.6967
772.97        55.84658
773.39        55.92587
773.80        56.01044
774.22         56.0574
774.63         56.0658
775.05        56.03967
775.46        56.03477
775.88        56.04613
776.29        56.08246
776.70        56.12205
777.12        56.13872
777.53        56.14354
777.95        56.14442
778.36         56.1456
778.77        56.14786
779.19         56.1474
779.60        56.13972
780.02         56.1384
780.43        56.17136
780.84        56.23941
781.26        56.35867
781.67        56.49546
782.09        56.46228
782.50        56.28053
782.91        56.15751
783.33        56.13091
783.74        56.18648
784.15        56.30616
784.57        56.55421
784.98        56.84806
785.39        56.98021
785.81        56.91505
786.22        56.71206
786.63        56.47282
787.04        56.36374
787.46        56.43618
787.87        56.61522
788.28        56.82375
788.70         56.9355
789.11         56.9013
789.52        56.77435
789.93        56.62936
790.35        56.57506
790.76        56.65926
791.17        56.84979
791.58        57.07681
792.00        57.25246
792.41        57.37738
792.82         57.3521
793.23        57.28009
793.65        57.53764
794.06        58.01962
794.47        58.16711
794.88        58.03548
795.29        57.70213
795.71        58.05536
796.12         58.0386
796.53        57.90686
796.94        57.93051
797.35        58.07453
797.76        58.02311
798.18        57.78985
798.59        57.65824
799.00        57.64594
799.41        57.60761
799.82        57.54193
800.23        57.51633
800.64        57.53167
801.06        57.55266
801.47        57.60071
801.88        57.64104
802.29         57.6648
802.70        57.67495
803.11        57.67875
803.52        57.68879
803.93        57.71256
804.34        57.74862
804.75        57.78847
805.17        57.82742
805.58        57.89061
805.99        57.91075
806.40        57.90873
806.81         58.0574
807.22        58.28624
807.63        58.26693
808.04         58.0538
808.45        58.01882
808.86        58.18905
809.27        58.36045
809.68        58.46455
810.09        58.47618
810.50        58.37566
810.91        58.17851
811.32        57.95566
811.73        57.82418
812.14        57.81623
812.55        57.89693
812.96        58.02528
813.37        58.12549
813.78        58.16676
814.19        58.17582
814.60         58.1475
815.01        58.06924
815.42        57.95127
815.83        57.79884
816.24        57.65965
816.65        57.62706
817.05        57.73104
817.46        57.91628
817.87        58.15902
818.28        58.38646
818.69        58.57155
819.10        58.72734
819.51        58.83906
819.92        58.88342
820.33        58.85883
820.74        58.76791
821.14         58.6451
821.55        58.56676
821.96        58.54394
822.37        58.57081
822.78        58.62064
823.19        58.64129
823.60         58.6128
824.00        58.54988
824.41        58.45815
824.82        58.40347
825.23        58.39471
825.64        58.42008
826.04         58.4318
826.45        58.31549
826.86        58.07531
827.27        57.76339
827.68        57.47922
828.08         57.4124
828.49        57.54817
828.90        57.87148
829.31        58.33614
829.72        58.74696
830.12        59.04395
830.53        59.71248
830.94        59.80238
831.35        59.83829
831.75        59.56145
832.16         59.0106
832.57         58.4135
832.97        58.16467
833.38        58.35593
833.79        58.86822
834.20        59.48013
834.60        59.84643
835.01         59.8747
835.42        59.66766
835.82        59.35495
836.23        59.12196
836.64        59.05355
837.04        59.09441
837.45        59.16615
837.86         59.2036
838.26        59.19228
838.67        59.15718
839.08        59.13422
839.48        59.15532
839.89        59.22181
840.29        59.31042
840.70        59.41121
841.11        59.50519
841.51        59.59656
841.92        59.66444
842.33        59.70499
842.73        59.71097
843.14        59.64474
843.54        59.53393
843.95        59.41521
844.35        59.36977
844.76        59.40386
845.17        59.49751
845.57        59.60525
845.98        59.61626
846.38        59.53664
846.79        59.39001
847.19        59.24557
847.60        59.14104
848.00        59.12769
848.41        59.15295
848.81        59.27237
849.22        59.51899
849.62        59.90559
850.03        60.36885
850.43        60.80771
850.84        60.97068
851.24        60.85192
851.65        60.44187
852.05        59.93369
852.46         59.6096
852.86        59.56293
853.27        59.76057
853.67        59.96487
854.07        59.95325
854.48        59.65668
854.88        59.17027
855.29        58.64814
855.69        58.50986
856.10        58.78366
856.50         59.4243
856.90        60.12722
857.31        60.42788
857.71        60.24952
858.12        59.67831
858.52        58.97001
858.92        58.51609
859.33         58.4339
859.73        58.64772
860.13        59.00207
860.54        59.23503
860.94        59.31801
861.34        59.30219
861.75        59.22978
862.15        59.23288
862.55        59.30635
862.96        59.37092
863.36         59.4132
863.76        59.38019
864.17        59.25732
864.57        59.10698
864.97        58.89772
865.38        58.55393
865.78        58.11901
866.18        57.61541
866.58        57.22741
866.99        57.24619
867.39        57.74675
867.79        58.59833
868.19        59.51736
868.60        60.01502
869.00        60.08882
869.40        60.07046
869.80        59.98844
870.21        59.68154
870.61         59.2469
871.01        58.79941
871.41         58.4092
871.81        58.07219
872.22        57.82795
872.62        57.71854
873.02        57.69047
873.42        57.83419
873.82        57.91561
874.22         57.3454
874.63        56.56716
875.03         56.4558
875.43        57.11268
875.83        59.24487
876.23        59.40839
876.63        59.08419
877.03        57.86624
877.44        55.17138
877.84        180.7741
878.24          55.459
878.64        56.19033
879.04        57.90642
879.44        58.54646
879.84        54.80674
880.24        60.93264
880.64        61.49553
881.04        59.07335
881.44        57.11259
881.84        56.18402
882.24        56.45258
882.65        57.38149
883.05        57.57317
883.45        56.76761
883.85         55.9406
884.25         55.4409
884.65        55.32351
885.05        55.66013
885.45        56.31893
885.85        57.09176
886.25        57.72464
886.65        58.12847
887.05        58.37146
887.45         58.4329
887.85        58.28551
888.25        57.96087
888.65        57.46399
889.04        56.97033
889.44        56.78889
889.84        56.97576
890.24        57.44568
890.64        57.99605
891.04        58.31099
891.44        58.32741
891.84        58.15557
892.24        57.91079
892.64        57.79516
893.04         57.8741
893.44        58.05644
893.83        58.34157
894.23        58.70743
894.63        59.13485
895.03        59.64028
895.43        60.08784
895.83        60.24489
896.23        60.08036
896.63        59.65823
897.02         59.1909
897.42        59.05404
897.82        59.28369
898.22        59.76741
898.62        60.27547
899.01        60.43455
899.41        60.13925
899.81        59.54375
900.21        58.83723
900.61        58.32571
901.00        58.10131
901.40        58.13232
901.80        58.37285
902.20        58.59253
902.59        58.70324
902.99        59.06232
903.39        59.74207
903.79        58.97157
904.18        59.72616
904.58        59.59898
904.98        59.41633
905.38        59.01646
905.77        58.42128
906.17        57.71021
906.57        57.03151
906.96        56.73294
907.36        56.88819
907.76        57.41689
908.15        58.16549
908.55        58.72311
908.95        59.00292
909.34        59.03928
909.74        58.97641
910.14        59.01799
910.53        59.21339
910.93        59.47655
911.33        59.64658
911.72        59.48148
912.12        58.95875
912.52        58.19005
912.91        57.39101
913.31        56.96467
913.70        56.98045
914.10        57.33611
914.49        57.84175
914.89        58.09247
915.29        58.00341
915.68        57.67674
916.08        57.32609
916.47        57.23888
916.87        57.51521
917.26        58.04301
917.66        58.64966
918.05        59.08676
918.45        59.25912
918.84        59.24344
919.24        59.15951
919.64        59.26269
920.03        59.59856
920.42        60.04493
920.82        60.41606
921.21        60.43917
921.61        60.09654
922.00        59.58567
922.40        59.12959
922.79        58.91407
923.19        58.58767
923.58        59.08994
923.98        60.84362
924.37        60.98816
924.77        57.91815
925.16        67.40582
925.55        60.78086
925.95        61.49635
926.34        61.43119
926.74        60.44406
927.13        58.59583
927.52        57.40114
927.92        57.50887
928.31        58.13626
928.70        59.02515
929.10        59.71001
929.49        60.08431
929.89        60.31799
930.28        60.38391
930.67        60.13309
931.07        59.60751
931.46        58.71155
931.85        57.79628
932.24        57.97468
932.64        59.39148
933.03        61.04717
933.42         61.9852
933.82        64.65553
934.21            62.8
934.60        61.31855
934.99        59.84307
935.39        59.62939
935.78        60.70527
936.17          63.416
936.56        70.87381
936.96        63.16588
937.35        67.14379
937.74        62.95301
938.13        59.64241
938.53        57.08542
938.92         56.3061
939.31        57.81889
939.70        60.01661
940.09        61.25656
940.49         61.1622
940.88        60.31466
941.27        59.17484
941.66         58.5826
942.05        58.85352
942.44        59.59565
942.84        60.42817
943.23        60.97443
943.62        61.09448
944.01        60.92646
944.40        60.68518
944.79        60.69673
945.18        61.03327
945.57        61.56873
945.97        61.99455
946.36        61.95742
946.75        61.34354
947.14        60.29082
947.53         59.1445
947.92        58.49603
948.31        58.51402
948.70        59.02037
949.09        59.68765
949.48         59.9991
949.87        59.83027
950.26        59.36323
950.65         58.8033
951.04        58.48048
951.43        58.50289
951.82        58.73682
952.21        59.11609
952.60         59.5439
952.99        59.93124
953.38        60.28556
953.77        60.53105
954.16        60.54498
954.55        60.33115
954.94        59.95293
955.33        59.48183
955.72        59.07425
956.11        58.81816
956.50        58.67093
956.89        58.74603
957.28        59.19947
957.66        60.03062
958.05        61.08966
958.44        62.05616
958.83        62.44442
959.22        62.14947
959.61        61.25456
960.00        60.08443
960.39        59.30929
960.78        59.17459
961.16         59.5646
961.55        60.04247
961.94         60.0854
962.33        59.59518
962.72        58.74022
963.11        57.88414
963.49        57.74015
963.88        58.50549
964.27        59.85722
964.66        61.30949
965.04        62.25495
965.43        62.49574
965.82        62.24357
966.21        61.69189
966.60        61.19661
966.98        60.89869
967.37        60.68306
967.76        60.50615
968.15        60.29615
968.53        60.05873
968.92        59.87455
969.31        59.73659
969.69        59.58048
970.08        59.38279
970.47        59.12494
970.86        58.97509
971.24         59.2368
971.63        59.90007
972.02          60.827
972.40        61.67249
972.79        61.84179
973.17        61.29662
973.56        60.23148
973.95        59.00778
974.33        58.28778
974.72        58.28843
975.11        58.77368
975.49        59.63964
975.88        60.62059
976.26        61.62666
976.65        62.65769
977.04        63.44714
977.42        63.55355
977.81        62.88738
978.19        61.47016
978.58        60.01114
978.96        59.78618
979.35        61.05024
979.74        63.28732
980.12        65.59918
980.51         66.6971
980.89        66.53013
981.28        65.35368
981.66        63.66193
982.05        62.72193
982.43        63.00114
982.82        64.15919
983.20        65.58028
983.59        66.32088
983.97        66.17352
984.35        65.38236
984.74         64.2717
985.12         63.4784
985.51        63.19209
985.89        63.30729
986.28        63.49464
986.66        63.35558
987.04         62.8664
987.43        62.06347
987.81        61.01608
988.20         61.6813
988.58         64.3457
988.96        65.43963
989.35        63.89598
989.73        71.19593
990.12        67.24154
990.50        67.41436
990.88         66.5834
991.27        65.83986
991.65        65.26076
992.03        64.95641
992.42        64.98499
992.80        64.73296
993.18        64.11829
993.56        63.36896
993.95        62.69913
994.33        62.37142
994.71        62.47112
995.10        62.87812
995.48        63.42377
995.86        63.84488
996.24        64.04169
996.63        63.98909
997.01        63.90052
997.39        63.92067
997.77        64.06249
998.15        64.25927
998.54        64.39674
998.92        64.17699
999.30        63.60634
999.68        62.84086
1000.06        62.08006
1000.45        61.67793
1000.83        61.88599
1001.21        62.55268
1001.59        63.67996
1001.97         65.2536
1002.35        67.06155
1002.73        68.92176
1003.12        70.48007
1003.50        71.38344
1003.88        71.58592
1004.26        71.20518
1004.64        70.39232
1005.02        69.51982
1005.40        68.79017
1005.78        68.14282
1006.16        67.65818
1006.54        67.38474
1006.92        67.34335
1007.30        67.65892
1007.69        68.06477
1008.07        68.23553
1008.45        68.07475
1008.83         67.5628
1009.21        67.19114
1009.59        67.94008
1009.97        69.82153
1010.35        72.21355
1010.73        74.21267
1011.11        75.12009
1011.49        75.02839
1011.86        73.79243
1012.24        71.53442
1012.62        72.72301
1013.00         74.0756
1013.38        74.98097
1013.76        73.52063
1014.14        78.44901
1014.52        84.89541
1014.90        75.78321
1015.28        76.27933
1015.66        77.60667
1016.04        73.82594
1016.41         75.1483
1016.79        75.39635
1017.17        75.97878
1017.55        76.12671
1017.93        76.26888
1018.31        76.61234
1018.69        76.88809
1019.06        77.15215
1019.44        77.36777
1019.82        77.45504
1020.20        77.26208
1020.58        76.77251
1020.95        75.91585
1021.33        75.01286
1021.71        74.68642
1022.09        75.23009
1022.46        76.30408
1022.84        77.37332
1023.22        78.16302
1023.60        78.69387
1023.97        79.08099
1024.35        79.32462
1024.73        79.36607
