SpectraSmart Spectrum 2.9.0.0
--------- Device Information -----------
Spectrum Name :  反射率_0
Saving Time :  2024/04/21 00:45:29
Spectro-Module Model Name : SE2030-DUVN
Spectro-Module Serial Number : OS361AC55029948
Wavelength Start : 200
Wavelength End : 1025
Wavelength Unit : Wavelength(nm)
Spectrum Unit : Reflectance(%)
-----------Spectrum Setting ------------
Integration Time : 20ms
Average : 10
Boxcar : 0
Background removal :  enabled
linearity correction :  enabled
SC :  disabled
Intensity correction :  disabled
DWT denoise :  enabled
savitzky-golay :  disabled
FFT :  disabled
Running average :  disabled
Kalman :  disabled
High pass :  disabled
---------------BEGIN--------------------
Wavelength(nm)             Reflectance(%)
200.29               0
200.75        -99.2461
201.21       -39.95607
201.67       -6.718156
202.13        9.433259
202.58        16.91585
203.04        20.55351
203.50        20.69321
203.96        16.53493
204.42        8.434242
204.88       -3.237847
205.34       -16.07489
205.80       -28.33807
206.26       -40.12951
206.72       -48.67139
207.18       -54.99311
207.64       -63.56416
208.10       -72.63719
208.55       -80.70232
209.01       -72.33927
209.47       -36.97467
209.93      -0.9536502
210.39        24.16571
210.85        39.20327
211.31        46.37333
211.77         48.7493
212.23          48.335
212.69        43.36244
213.14        28.94636
213.60       -7.672161
214.06       -136.0412
214.52       -456.6078
214.98       -186.0713
215.44       -15.62062
215.90         40.9837
216.36        58.90677
216.81        58.63283
217.27        41.54067
217.73       -41.31677
218.19        965.8016
218.65        449.0038
219.11       -984.5065
219.57        -35.7223
220.02         25.9627
220.48        38.32631
220.94        35.32201
221.40        18.01796
221.86       -25.95078
222.32       -57.42445
222.77       -20.76399
223.23        12.21433
223.69        28.81211
224.15        34.02855
224.61        33.17076
225.06        29.68728
225.52        24.36674
225.98        17.90091
226.44        11.15135
226.90        2.825043
227.36       -2.793996
227.81        1.916647
228.27        13.03142
228.73        24.75758
229.19        32.38495
229.65        33.49915
230.10        29.11113
230.56        20.77772
231.02        10.05447
231.48        3.180046
231.93        4.430113
232.39        11.27355
232.85        18.75198
233.31        22.70415
233.77        23.36281
234.22        22.57861
234.68        20.93967
235.14        19.45893
235.60        18.96179
236.05        18.28893
236.51        17.54997
236.97        23.10922
237.43        34.97372
237.88        42.81786
238.34        42.97121
238.80        64.20644
239.26        55.51805
239.71         53.9955
240.17        46.40288
240.63        38.35511
241.08        33.67175
241.54         35.1692
242.00        42.93105
242.46        46.98489
242.91        44.58172
243.37        36.67339
243.83        25.16139
244.28        18.46255
244.74        21.87004
245.20        30.19859
245.66        38.28239
246.11        41.66343
246.57        39.75685
247.03        34.44798
247.48        26.17123
247.94        15.50688
248.40      -0.5957639
248.85       -39.91026
249.31       -161.4402
249.77       -265.1735
250.22       -81.66794
250.68       -2.550771
251.14        22.98766
251.59        29.27523
252.05        27.19024
252.51        19.44396
252.96        7.017277
253.42       -1.056548
253.88        2.621857
254.33        14.39554
254.79        28.79393
255.25        39.90892
255.70         46.6942
256.16        50.82932
256.62        53.92156
257.07        57.04348
257.53        60.40674
257.99        63.38227
258.44        64.89914
258.90        64.71189
259.35        62.79129
259.81        60.33036
260.27         58.0116
260.72        56.62957
261.18         56.3661
261.63        56.40623
262.09        56.42044
262.55        55.67857
263.00        54.15491
263.46        52.38619
263.91        50.57238
264.37        49.39849
264.83        48.82104
265.28        48.53358
265.74        48.37422
266.19        47.93291
266.65        47.20123
267.11        46.25705
267.56        45.15019
268.02        44.04419
268.47        42.94435
268.93        41.84245
269.38        40.71912
269.84         39.6211
270.30         38.5497
270.75        37.52018
271.21        36.56332
271.66        35.64115
272.12        34.78323
272.57         33.9838
273.03        33.26391
273.48        32.60838
273.94        32.03063
274.39        31.48395
274.85        30.99924
275.31         30.5554
275.76        30.13292
276.22        29.76788
276.67        29.40368
277.13        29.04269
277.58        28.64602
278.04        28.24234
278.49        27.83472
278.95        27.51375
279.40        27.23593
279.86        27.00466
280.31        26.71798
280.77        26.31387
281.22        25.76247
281.68        25.17197
282.13        24.57417
282.59        24.09128
283.04        23.72549
283.50        23.45555
283.95        23.30044
284.41        23.31586
284.86        23.47474
285.32        23.77312
285.77        24.05775
286.22        24.12211
286.68        23.96506
287.13        23.61523
287.59        23.30944
288.04        23.30405
288.50        23.61574
288.95        24.26022
289.41        25.06018
289.86        25.27354
290.32        24.77441
290.77        25.55399
291.22          24.578
291.68        24.65923
292.13        24.92672
292.59        25.40823
293.04        26.04036
293.50        26.79806
293.95        27.67497
294.40        28.66264
294.86        29.75591
295.31         30.9264
295.77        32.15756
296.22        33.42609
296.68        34.71905
297.13        36.01823
297.58        37.33679
298.04        38.68025
298.49        40.07583
298.95        41.58806
299.40        43.20164
299.85        44.89906
300.31        46.61308
300.76        48.21505
301.21        49.69333
301.67        51.11146
302.12        52.52227
302.58        54.11214
303.03         55.8798
303.48        57.80515
303.94        59.81569
304.39         61.7466
304.84        63.55899
305.30        65.31024
305.75        66.99013
306.20        68.69205
306.66        70.43377
307.11         72.1307
307.57        73.78896
308.02        75.34733
308.47        76.81767
308.93        78.26472
309.38        79.63418
309.83        80.88875
310.29        82.10211
310.74        83.20018
311.19         84.2781
311.65        85.44263
312.10        86.68726
312.55        87.97908
313.00        89.20455
313.46        90.18675
313.91        90.87394
314.36        91.33437
314.82        91.69164
315.27        92.13287
315.72        92.71961
316.18        93.40388
316.63        94.10975
317.08        94.71427
317.53        95.17969
317.99        95.54565
318.44         95.8659
318.89        96.20704
319.35        96.58712
319.80        96.98558
320.25         97.3665
320.70        97.68368
321.16        97.91634
321.61        98.09689
322.06        98.25375
322.51        98.43911
322.97        98.65135
323.42        98.90624
323.87        99.15808
324.32        99.34922
324.78        99.45087
325.23          99.525
325.68        99.59318
326.13        99.71707
326.59        99.89332
327.04        100.1546
327.49         100.465
327.94        100.7968
328.39        101.1367
328.85        101.4636
329.30        101.8252
329.75        102.1768
330.20        102.5069
330.66        102.7668
331.11        103.0388
331.56        103.3336
332.01        103.6645
332.46        104.0425
332.92         104.363
333.37        104.5848
333.82        104.6576
334.27        104.6167
334.72        104.6312
335.17        104.9791
335.63        105.6839
336.08        106.7173
336.53        107.8179
336.98        108.5942
337.43         108.932
337.88        108.9293
338.34        108.7628
338.79        108.7992
339.24        109.1223
339.69         109.631
340.14        110.1925
340.59        110.6038
341.05        110.8134
341.50        110.9083
341.95        110.9818
342.40        111.1758
342.85        111.5294
343.30        111.9887
343.75        112.4706
344.20        112.8553
344.66        113.1192
345.11        113.2844
345.56        113.4197
346.01        113.6283
346.46        113.9345
346.91        114.2838
347.36        114.6028
347.81        114.8337
348.26        114.9615
348.72        114.8424
349.17        114.8283
349.62        114.7675
350.07        114.7759
350.52        114.8157
350.97        114.8249
351.42        114.6984
351.87        114.4158
352.32        114.0246
352.77        113.5979
353.22          113.24
353.67        112.9754
354.13        112.7849
354.58        112.5938
355.03         112.337
355.48        111.9942
355.93        111.5898
356.38        111.1559
356.83        110.7388
357.28        110.3403
357.73        109.9307
358.18        109.4788
358.63        108.9456
359.08        108.3277
359.53        107.6527
359.98        106.9355
360.43          106.19
360.88        105.4256
361.33        104.6389
361.78          103.86
362.23         103.138
362.68        102.4815
363.13         101.881
363.58        101.2805
364.03        100.5868
364.48        99.77962
364.93        98.88358
365.38        97.96836
365.83        97.15086
366.28        96.45882
366.73        95.85506
367.18        95.27483
367.63        94.61516
368.08        93.85447
368.53        93.03719
368.98        92.20503
369.43        91.40935
369.88        90.66402
370.33        89.94703
370.78        89.25919
371.23        88.61909
371.68         88.0341
372.13         87.5034
372.58        87.01288
373.03        86.52559
373.48        86.02032
373.93        85.49856
374.38        84.94832
374.83        84.36438
375.28        83.75963
375.72        83.12795
376.17        82.52565
376.62        81.96441
377.07        81.43722
377.52        80.92752
377.97         80.4219
378.42        79.91216
378.87        79.40697
379.32        78.92139
379.77         78.4479
380.22        77.95996
380.67        77.44325
381.11        76.90002
381.56        76.34649
382.01        75.83703
382.46        75.39539
382.91        75.01562
383.36        74.65908
383.81        74.26054
384.26          73.805
384.71        73.31239
385.15        72.81618
385.60        72.42939
386.05        72.14554
386.50        71.93338
386.95        71.73331
387.40        71.46164
387.85        71.10631
388.29        70.65465
388.74        70.24496
389.19        69.88794
389.64        69.58147
390.09        69.29404
390.54        69.00404
390.98        68.67036
391.43        68.34264
391.88        68.04426
392.33        67.77661
392.78        67.57782
393.23        67.45628
393.67        67.23345
394.12        67.03922
394.57        67.18954
395.02        67.53998
395.47        67.40622
395.91        66.83823
396.36        66.49276
396.81        66.42871
397.26         66.2995
397.71        66.05139
398.15        65.75465
398.60        65.47913
399.05        65.08268
399.50        64.70676
399.95        64.67432
400.39        64.90893
400.84        65.07434
401.29        65.04859
401.74        64.58383
402.18        63.86412
402.63         63.6746
403.08        63.95805
403.53        63.85823
403.97        63.35018
404.42        63.00043
404.87        62.85174
405.32        62.75618
405.76        62.71062
406.21        62.68177
406.66        62.64209
407.11        62.72193
407.55        62.81818
408.00        62.56183
408.45        61.95137
408.90        61.48953
409.34        61.30155
409.79        61.50602
410.24        61.92843
410.68        62.07891
411.13        61.89901
411.58        61.65613
412.03        61.44596
412.47        61.33184
412.92        61.33504
413.37        61.44121
413.81        61.57106
414.26        61.65884
414.71        61.66301
415.15        61.61852
415.60        61.52265
416.05        61.42527
416.49        61.34501
416.94        61.25977
417.39        61.15864
417.83        61.01776
418.28        60.84042
418.73        60.64264
419.17        60.45296
419.62        60.32491
420.07         60.2707
420.51        60.26486
420.96        60.30647
421.41        60.35106
421.85        60.35651
422.30         60.3616
422.74         60.3418
423.19        60.36338
423.64        60.41392
424.08        60.49871
424.53        60.53419
424.98        60.54189
425.42        60.53828
425.87        60.37976
426.31        60.18851
426.76        60.42353
427.21        60.98586
427.65        61.19483
428.10        60.98983
428.54         60.9101
428.99        60.99258
429.44        60.92285
429.88        60.69576
430.33         60.5288
430.77        60.41374
431.22        60.38013
431.66         60.4115
432.11        60.60894
432.56        60.93378
433.00        60.96301
433.45        60.60473
433.89        60.66849
434.34        61.15393
434.78        60.63615
435.23        60.33023
435.67        60.59766
436.12        61.21968
436.57        61.27763
437.01        60.78659
437.46        60.43435
437.90        60.88042
438.35        61.27141
438.79        61.25217
439.24         61.3108
439.68        61.31451
440.13        61.18565
440.57        60.99826
441.02        61.14614
441.46        61.55601
441.91        61.62843
442.35        61.39673
442.80        61.75085
443.24        62.49415
443.69        62.58771
444.13        62.05575
444.58        61.75015
445.02        61.69698
445.47        61.85316
445.91        62.09761
446.36        62.14354
446.80        61.94349
447.24        61.74755
447.69        61.68794
448.13        61.48272
448.58        61.85025
449.02        61.87163
449.47        61.76199
449.91         61.7421
450.36        61.82959
450.80         61.7804
451.25        61.64078
451.69        61.66173
452.13        61.80275
452.58        61.73878
453.02         61.4755
453.47          61.298
453.91        61.21124
454.36        61.07472
454.80        60.88792
455.24        60.74998
455.69        60.68638
456.13        60.60168
456.58        60.52454
457.02        60.63823
457.46        60.57058
457.91        60.65876
458.35        60.59297
458.79        60.54653
459.24        60.46514
459.68         60.3794
460.13        60.33111
460.57        60.14684
461.01        59.82407
461.46        60.10649
461.90        59.54511
462.34        59.78798
462.79        59.58544
463.23        59.74031
463.68        59.91663
464.12        59.67928
464.56        59.16926
465.01        59.31441
465.45        59.86703
465.89        59.75822
466.34        59.12277
466.78         58.7935
467.22        58.88479
467.67        59.06998
468.11        59.38078
468.55        59.29308
468.99        58.89784
469.44        58.72577
469.88        58.80247
470.32        58.75934
470.77        58.59443
471.21        58.50643
471.65        58.50033
472.10        58.51962
472.54        58.53709
472.98        58.52521
473.42        58.47679
473.87        58.43768
474.31        58.38564
474.75        58.33227
475.20        58.27775
475.64        58.26812
476.08        58.32352
476.52        58.29578
476.97        58.13647
477.41         58.2741
477.85        58.58783
478.29        57.81792
478.74        58.01113
479.18        57.88346
479.62        58.04245
480.06        58.00365
480.50        58.04851
480.95        58.01769
481.39        57.90748
481.83        58.24888
482.27        58.46177
482.72        58.19513
483.16        58.41723
483.60        58.71499
484.04        58.63932
484.48        58.35391
484.93        58.36268
485.37        57.91729
485.81        58.04488
486.25         57.7352
486.69        58.65387
487.14        58.62239
487.58        58.40604
488.02        58.28709
488.46        58.38608
488.90         58.2384
489.34        57.94157
489.79        57.51341
490.23        57.82201
490.67        57.87587
491.11        57.87937
491.55         57.8044
491.99        57.69258
492.43        57.67402
492.88        57.74592
493.32        57.81569
493.76        57.80999
494.20        57.80421
494.64        57.82191
495.08        57.44883
495.52         57.3321
495.96        57.37512
496.41         57.6567
496.85        57.59092
497.29          57.207
497.73        57.29689
498.17        57.52111
498.61        57.64345
499.05        57.52419
499.49        57.42024
499.93         57.3971
500.37        57.38641
500.82          57.382
501.26        57.57259
501.70        57.86124
502.14        57.51192
502.58        57.09612
503.02          56.911
503.46        57.10431
503.90        57.09547
504.34        57.30611
504.78        57.34445
505.22        57.33878
505.66        57.25199
506.10        57.13424
506.54        57.14058
506.98        57.29431
507.42        57.25376
507.86        57.48812
508.30        57.55977
508.74        57.48103
509.18         57.3573
509.62        57.19375
510.06         57.0836
510.50        57.02937
510.94        56.95137
511.38        56.85631
511.82        56.81351
512.26        56.82147
512.70        56.83969
513.14        56.85997
513.58         56.8852
514.02        56.90889
514.46        56.92543
514.90        56.91512
515.34        56.89488
515.78        56.87165
516.22        56.79926
516.66        56.55212
517.10        56.80259
517.54        56.58415
517.98        56.65331
518.42        56.70304
518.86        56.72633
519.30        56.71315
519.74         56.6429
520.18        56.56748
520.62        56.63215
521.06        56.80438
521.50        56.85846
521.93        56.78691
522.37        56.76073
522.81         56.7831
523.25        56.74896
523.69        56.66392
524.13        56.58928
524.57        56.53372
525.01         56.4834
525.45        56.44606
525.89        56.43332
526.32         56.4428
526.76        56.47617
527.20        56.51979
527.64        56.55202
528.08        56.56582
528.52        56.56926
528.96        56.56454
529.40        56.54904
529.83         56.5247
530.27        56.51913
530.71        56.52697
531.15        56.53915
531.59        56.55351
532.03        56.57173
532.46        56.58849
532.90        56.60785
533.34        56.62207
533.78         56.6317
534.22        56.61827
534.66        56.55384
535.09        56.43221
535.53        56.28632
535.97        56.14291
536.41        56.05857
536.85        56.04716
537.28        56.09342
537.72        56.17139
538.16        56.23724
538.60        56.27451
539.04        56.29509
539.47         56.2941
539.91        56.31283
540.35        56.34149
540.79        56.37042
541.22         56.3922
541.66        56.41141
542.10        56.42158
542.54        56.42194
542.97        56.40636
543.41        56.39351
543.85        56.38339
544.29        56.38626
544.72        56.38274
545.16        56.39279
545.60        56.40714
546.04        56.35546
546.47        56.28753
546.91        56.41701
547.35        56.66758
547.79        56.74176
548.22         56.6134
548.66        56.42995
549.10        56.27871
549.53         56.3108
549.97        56.49534
550.41        56.55299
550.84        56.47258
551.28        56.40808
551.72        56.35991
552.15        56.34887
552.59         56.4122
553.03        56.10668
553.46         56.2486
553.90        56.16273
554.34        56.06859
554.77          56.078
555.21        56.25044
555.65        55.96984
556.08         56.3074
556.52         56.3789
556.96        56.47117
557.39        56.56887
557.83         56.6545
558.27        56.59566
558.70        56.42288
559.14        56.32833
559.57        56.32304
560.01        56.38842
560.45        56.40052
560.88        56.40639
561.32        56.40966
561.75        56.26075
562.19        56.07676
562.63        56.21255
563.06        56.56511
563.50        56.59468
563.93        56.30571
564.37        56.12925
564.80         56.1053
565.24        56.19051
565.68        56.33499
566.11        56.39937
566.55        56.38655
566.98        56.39049
567.42         56.4332
567.85        56.43947
568.29         56.4511
568.72        56.45559
569.16        56.49306
569.60        56.57573
570.03        56.58696
570.47        56.66193
570.90        56.73143
571.34        56.62662
571.77        57.10185
572.21          56.588
572.64        56.78318
573.08        56.50751
573.51        56.58441
573.95        56.97953
574.38        56.93211
574.82        57.32969
575.25        57.17743
575.69        57.05884
576.12        56.81154
576.56        57.04852
576.99        57.12952
577.42        56.91578
577.86         57.1132
578.29        57.47746
578.73        57.58635
579.16        57.09977
579.60        56.66632
580.03        57.21545
580.47        56.96155
580.90        57.02153
581.33        57.43299
581.77        57.21124
582.20        57.26625
582.64        57.35806
583.07        57.32491
583.51         57.2649
583.94        56.84999
584.37         56.9516
584.81        56.51389
585.24        56.55154
585.68        57.08621
586.11        56.87653
586.54        56.84221
586.98        56.97519
587.41        56.71444
587.85        57.13108
588.28        57.09315
588.71        57.14666
589.15        56.87589
589.58        56.93636
590.01        56.30991
590.45        56.63145
590.88        56.76277
591.31        56.61077
591.75        56.60489
592.18         56.4606
592.61        56.38516
593.05        56.98583
593.48        57.25711
593.91        57.12428
594.35        56.96198
594.78        56.79468
595.21        56.60403
595.65        56.79171
596.08        57.20191
596.51        57.07016
596.94         56.8989
597.38        56.76926
597.81        56.93601
598.24        56.73365
598.68        56.65659
599.11        56.49338
599.54        57.22335
599.97        56.39585
600.41        57.05083
600.84        56.85552
601.27        56.99948
601.70        57.10208
602.14        56.73399
602.57        56.74226
603.00        56.94213
603.43        56.96859
603.87        57.30778
604.30        57.06438
604.73        56.92242
605.16         56.6006
605.60        56.82375
606.03        56.99101
606.46        57.19844
606.89        56.97798
607.32        56.40793
607.76        57.04089
608.19        56.90658
608.62        56.70109
609.05        57.44846
609.48        56.94738
609.92        57.09675
610.35        56.88567
610.78        57.18662
611.21         56.8044
611.64        56.93258
612.07        56.86537
612.50        56.93124
612.94        56.85701
613.37        56.61443
613.80        57.08197
614.23        56.74054
614.66        56.77752
615.09        56.80616
615.52        56.77863
615.96         56.7352
616.39        56.65289
616.82        56.52908
617.25        56.76886
617.68         56.6428
618.11        56.56556
618.54        56.51432
618.97        56.46996
619.40        56.46245
619.84        56.51258
620.27        56.44699
620.70        56.38958
621.13        56.32461
621.56        56.28484
621.99        56.29078
622.42        56.50418
622.85        56.84648
623.28        56.82183
623.71        56.65725
624.14        56.96881
624.57        56.59036
625.00        56.88888
625.43        56.43858
625.86        56.50096
626.29        56.77542
626.72         56.3861
627.15        56.53083
627.58        56.45807
628.01        56.59184
628.44        56.30709
628.87        56.27542
629.30           56.75
629.73        56.33915
630.16        56.61641
630.59        56.28411
631.02        56.54108
631.45        56.34766
631.88        56.31128
632.31        56.18177
632.74        56.37926
633.17        56.22311
633.60        56.22375
634.03        56.18367
634.46        56.17592
634.89        56.11566
635.32        56.10432
635.75        56.12432
636.18        56.16146
636.61         56.2063
637.04        56.24541
637.47        56.27319
637.89         56.2977
638.32        56.30664
638.75        56.30491
639.18         56.2947
639.61         56.2765
640.04         56.2574
640.47        56.24968
640.90        56.25571
641.33        56.27149
641.76        56.29225
642.18        56.31525
642.61        56.32442
643.04        56.32845
643.47        56.32377
643.90         56.3091
644.33        56.28658
644.76        56.24468
645.18         56.1968
645.61        56.18985
646.04        56.21324
646.47        56.19327
646.90        56.13936
647.33        56.12444
647.75        56.14426
648.18        56.18502
648.61        56.24126
649.04        56.24221
649.47        56.16621
649.89        56.34237
650.32        56.17572
650.75        56.22169
651.18        56.27216
651.61        56.24228
652.03        56.15096
652.46        56.02148
652.89        55.90497
653.32        56.00993
653.74        56.32783
654.17        56.24331
654.60         55.8881
655.03        56.17326
655.46        56.27955
655.88        56.30946
656.31        57.24275
656.74        60.10022
657.16        58.82355
657.59        57.37035
658.02        56.32026
658.45         56.1805
658.87         56.7036
659.30        56.63517
659.73         56.1502
660.15        55.86879
660.58        56.30925
661.01        56.57582
661.44        56.67221
661.86        56.69011
662.29        56.61563
662.72        56.36208
663.14        56.06673
663.57        56.13953
664.00        56.50609
664.42        56.61192
664.85        56.42813
665.27        56.21918
665.70        56.23505
666.13          56.049
666.55        56.13175
666.98         56.1665
667.41        56.23496
667.83        56.27462
668.26        56.28391
668.69        56.22559
669.11        56.11254
669.54         56.1801
669.96        56.48124
670.39        56.18628
670.82         56.6258
671.24        56.67307
671.67        56.69749
672.09        56.69635
672.52        56.69047
672.94        56.56876
673.37        56.37664
673.80         56.3083
674.22        56.36728
674.65        56.35773
675.07        56.29062
675.50        56.27143
675.92        56.30183
676.35        56.31135
676.77        56.29234
677.20        56.28026
677.62         56.3043
678.05        56.32188
678.47        56.31936
678.90        56.59934
679.32        56.58155
679.75        56.67758
680.17        56.71212
680.60        56.70996
681.02        56.67918
681.45        56.64613
681.87        56.62983
682.30        56.59019
682.72        56.55578
683.15        56.58867
683.57         56.6424
684.00        56.72055
684.42        56.46011
684.85        56.43829
685.27        56.53971
685.70        56.64338
686.12         56.6964
686.54        56.72691
686.97        56.73284
687.39        56.68514
687.82        56.58434
688.24        56.64909
688.66        56.65557
689.09        56.62921
689.51        56.72722
689.94        56.84062
690.36        57.00302
690.78        57.10846
691.21        57.14581
691.63        57.11134
692.06        57.04205
692.48         57.0294
692.90        57.07095
693.33        57.07222
693.75        57.04611
694.17        57.01693
694.60        56.97396
695.02        57.09188
695.44        57.10956
695.87        57.02485
696.29        56.84317
696.71        56.87271
697.14        57.06915
697.56        57.18372
697.98        57.21495
698.41        57.04848
698.83        57.25316
699.25        57.24583
699.68        57.18626
700.10        57.11641
700.52        57.04468
700.94        56.95565
701.37        56.85244
701.79        56.79689
702.21        56.78212
702.64        56.80722
703.06        56.85592
703.48        56.90426
703.90         56.9458
704.33        56.98135
704.75        57.01406
705.17        57.03057
705.59         57.0313
706.01        57.01604
706.44        57.00111
706.86        57.03164
707.28         57.1027
707.70        57.20154
708.12        57.30786
708.55        57.38123
708.97        57.40339
709.39        57.39174
709.81        57.35393
710.23        57.30836
710.66        57.26781
711.08         57.2429
711.50        57.21815
711.92        57.18275
712.34        57.13965
712.76        57.09531
713.19        57.07063
713.61        57.14059
714.03        57.28722
714.45        57.49386
714.87        57.71384
715.29        57.83854
715.71        57.84018
716.13         57.8964
716.56        57.74391
716.98        57.67875
717.40        57.62733
717.82        57.58483
718.24        57.55708
718.66        57.56094
719.08        57.60487
719.50        57.66615
719.92        57.72144
720.34        57.79305
720.76        57.88528
721.19        57.73092
721.61        57.81528
722.03        57.78593
722.45        57.78892
722.87        57.80907
723.29        57.84671
723.71        57.89229
724.13        57.93929
724.55        57.99301
724.97        58.05905
725.39        58.14469
725.81        58.24453
726.23         58.3511
726.65        58.44423
727.07        58.47487
727.49        58.48032
727.91         58.4301
728.33        58.35035
728.75        58.30392
729.17        58.28822
729.59        58.20818
730.01        58.11139
730.43        58.15309
730.85          58.339
731.27        58.57772
731.69        58.79446
732.10        58.85781
732.52        58.91265
732.94        58.59949
733.36        58.10786
733.78        57.85929
734.20        57.93038
734.62        58.10244
735.04        58.28828
735.46        58.46417
735.88        58.60217
736.30        58.54478
736.72        58.61299
737.13        58.56242
737.55        58.47507
737.97        58.28341
738.39        58.08272
738.81         58.1823
739.23        58.53685
739.65        58.74117
740.06         58.7184
740.48        58.78962
740.90        58.91863
741.32        58.91255
741.74        58.80411
742.16        58.77155
742.57        58.84914
742.99        58.96634
743.41        59.07833
743.83        59.09741
744.25        59.00576
744.67        58.83564
745.08        58.67062
745.50        58.60411
745.92        58.67701
746.34        58.86037
746.75        59.06995
747.17        59.16566
747.59        59.11546
748.01        58.93008
748.42        58.71444
748.84        58.66001
749.26        58.77024
749.68        58.95113
750.09         59.1123
750.51         59.0257
750.93        58.77365
751.35        58.81234
751.76        59.11093
752.18         59.2155
752.60        59.10766
753.01        59.07317
753.43        59.09204
753.85        59.04898
754.27        58.94526
754.68        58.81352
755.10        58.70191
755.52        58.65896
755.93        58.69793
756.35         58.8168
756.77        58.97385
757.18        59.05504
757.60        59.02199
758.02         58.9774
758.43         59.0299
758.85        58.79847
759.26        59.17813
759.68        59.53583
760.10        59.32935
760.51        59.14949
760.93        59.21515
761.34        59.10128
761.76        59.22053
762.18        59.36746
762.59        59.53649
763.01        59.71181
763.42        59.13677
763.84        59.26809
764.26        59.46133
764.67        59.79284
765.09        60.02249
765.50        60.06594
765.92        59.99072
766.33        59.89201
766.75        59.71221
767.16        60.09394
767.58        59.40769
768.00        59.58913
768.41        60.08633
768.83        59.97186
769.24        59.31871
769.66        59.64266
770.07        59.87278
770.49          60.091
770.90        59.96387
771.32        59.82567
771.73        59.74645
772.15        59.73327
772.56        59.82348
772.97        59.97898
773.39        60.11659
773.80        60.18882
774.22        60.14385
774.63        60.02094
775.05        59.86374
775.46        59.79134
775.88        59.81276
776.29        59.91578
776.70        60.03667
777.12        60.08324
777.53         60.0482
777.95        59.95736
778.36        59.85328
778.77        59.79675
779.19        59.80741
779.60        59.86967
780.02        59.96347
780.43        60.08622
780.84        60.22653
781.26        60.33864
781.67        60.44216
782.09        60.57748
782.50        60.69826
782.91        60.67989
783.33         60.5304
783.74        60.46418
784.15        60.47426
784.57        60.47372
784.98        60.47231
785.39        60.49993
785.81         60.5528
786.22        60.61874
786.63         60.6858
787.04        60.73547
787.46        60.77476
787.87        60.79051
788.28         60.7929
788.70        60.79092
789.11         60.7704
789.52        60.73485
789.93         60.7146
790.35        60.74943
790.76        60.86232
791.17        61.05005
791.58        61.24637
792.00        61.35503
792.41        61.38647
792.82        61.26496
793.23        61.12312
793.65        61.32568
794.06        61.80289
794.47        62.11395
794.88        62.24298
795.29        62.02258
795.71        62.38431
796.12        62.30745
796.53        62.09021
796.94        62.02059
797.35        62.08173
797.76        61.94175
798.18        61.62508
798.59         61.4507
799.00        61.43867
799.41        61.42889
799.82        61.41535
800.23         61.4586
800.64        61.54765
801.06        61.64208
801.47        61.73756
801.88         61.7563
802.29        61.68671
802.70        61.54975
803.11        61.39536
803.52        61.31124
803.93        61.32758
804.34        61.41924
804.75        61.56139
805.17         61.7144
805.58         61.8838
805.99         62.0209
806.40        62.11057
806.81        62.24098
807.22        62.34972
807.63        62.18027
808.04        61.83971
808.45        61.74893
808.86        61.96022
809.27        62.27466
809.68        62.57356
810.09        62.72479
810.50        62.67463
810.91        62.46333
811.32        62.19276
811.73        62.03322
812.14        62.03439
812.55        62.14445
812.96        62.29604
813.37        62.37415
813.78        62.34068
814.19        62.23862
814.60         62.1031
815.01        61.97888
815.42         61.8866
815.83        61.81648
816.24        61.76932
816.65        61.75039
817.05        61.77081
817.46        61.81229
817.87        61.91012
818.28        62.07676
818.69        62.30859
819.10        62.58896
819.51        62.88719
819.92        63.14658
820.33        63.33477
820.74        63.45293
821.14        63.49704
821.55        63.49035
821.96        63.43463
822.37        63.32876
822.78        63.19406
823.19        63.07026
823.60        62.97206
824.00         62.9102
824.41        62.84537
824.82        62.76318
825.23        62.65996
825.64        62.55754
826.04        62.47337
826.45        62.39455
826.86        62.33611
827.27        62.29412
827.68        62.29599
828.08         62.4095
828.49        62.57151
828.90        62.81165
829.31        63.08179
829.72        63.19987
830.12        63.13728
830.53        63.33201
830.94         63.0447
831.35        62.95419
831.75        62.86968
832.16         62.7741
832.57        62.71041
832.97        62.74342
833.38        62.87521
833.79        63.08375
834.20        63.31083
834.60        63.46679
835.01        63.52667
835.42         63.5101
835.82        63.46132
836.23        63.41862
836.64        63.41416
837.04        63.44366
837.45        63.46431
837.86         63.4639
838.26         63.4471
838.67         63.4125
839.08        63.38336
839.48        63.37898
839.89        63.39908
840.29        63.43817
840.70        63.49504
841.11        63.56305
841.51        63.65055
841.92        63.72499
842.33        63.79171
842.73        63.85578
843.14        63.87809
843.54        63.89338
843.95        63.89313
844.35        63.88947
844.76        63.87726
845.17         63.8456
845.57         63.8386
845.98        63.89518
846.38        64.03984
846.79         64.2383
847.19        64.42013
847.60        64.39211
848.00        64.15988
848.41        63.75286
848.81        63.35453
849.22         63.2168
849.62        63.43538
850.03        63.87892
850.43        64.42194
850.84         64.7643
851.24        64.87157
851.65        64.76785
852.05        64.55289
852.46        64.32242
852.86         64.1395
853.27        64.01241
853.67        63.89098
854.07        63.84099
854.48        63.82868
854.88        63.86625
855.29        63.90467
855.69        63.99494
856.10        64.04573
856.50        64.13886
856.90        64.15608
857.31        63.95296
857.71        63.57464
858.12        63.02013
858.52        62.49278
858.92         62.2771
859.33        62.43122
859.73        62.91881
860.13        63.53088
860.54        63.91253
860.94        64.00964
861.34        63.85656
861.75        63.56538
862.15        63.41233
862.55        63.43152
862.96        63.52885
863.36        63.59554
863.76         63.4095
864.17        62.93336
864.57        62.29779
864.97        61.64147
865.38        61.16484
865.78        60.98453
866.18        61.04308
866.58        61.33796
866.99        61.81288
867.39        62.42184
867.79        63.12097
868.19        63.77888
868.60        64.13268
869.00        64.22608
869.40        64.29932
869.80        64.32166
870.21        64.05216
870.61        63.56384
871.01        63.01337
871.41        62.51577
871.81        62.12272
872.22        61.88636
872.62        61.82689
873.02        61.89936
873.42        62.19032
873.82        62.46395
874.22        62.17357
874.63         61.6743
875.03        61.67183
875.43        62.23723
875.83        64.02273
876.23        64.00296
876.63        63.49861
877.03         62.1608
877.44        59.44036
877.84        173.5242
878.24        59.39549
878.64        60.19651
879.04        62.03769
879.44        62.91078
879.84        59.69012
880.24        65.06131
880.64        65.32838
881.04        62.86865
881.44        60.99527
881.84        60.31318
882.24        60.89474
882.65        62.10547
883.05        62.50757
883.45        61.81608
883.85        60.94882
884.25        60.28403
884.65        59.98747
885.05        60.16543
885.45        60.66864
885.85        61.28408
886.25        61.74282
886.65        61.96321
887.05         62.0432
887.45        61.99146
887.85        61.82102
888.25        61.56961
888.65        61.21109
889.04        60.90692
889.44        60.94229
889.84        61.34165
890.24        62.00783
890.64        62.67199
891.04        62.92971
891.44        62.71147
891.84        62.15471
892.24        61.47987
892.64        61.07101
893.04        61.06078
893.44        61.33807
893.83        61.80004
894.23        62.26075
894.63        62.65911
895.03        63.03934
895.43        63.39678
895.83        63.70831
896.23        63.96141
896.63        64.13511
897.02        64.20467
897.42        64.21389
897.82        64.15354
898.22         64.0224
898.62         63.8652
899.01        63.75924
899.41        63.70082
899.81        63.69788
900.21        63.67463
900.61        63.49463
901.00        63.13119
901.40        62.70818
901.80        62.36213
902.20        62.15812
902.59        62.10904
902.99        62.45568
903.39        63.22823
903.79        62.75476
904.18        63.69929
904.58        63.89655
904.98        64.04572
905.38        63.92072
905.77        63.51889
906.17        62.91488
906.57        62.28246
906.96        62.02094
907.36        62.21177
907.76        62.75757
908.15        63.47303
908.55        63.88875
908.95         63.9202
909.34        63.64746
909.74        63.26669
910.14         63.0559
910.53         63.0928
910.93        63.27276
911.33        63.44322
911.72         63.3667
912.12        63.00872
912.52        62.47915
912.91        61.91941
913.31         61.6227
913.70        61.63066
914.10        61.84118
914.49        62.17085
914.89         62.3996
915.29        62.47961
915.68        62.46713
916.08         62.4001
916.47        62.28342
916.87         62.1808
917.26        62.09125
917.66        62.07499
918.05         62.2587
918.45        62.62603
918.84        63.11043
919.24         63.6433
919.64        64.16888
920.03          64.631
920.42        65.02111
920.82        65.17764
921.21        64.86792
921.61        64.12584
922.00        63.12523
922.40        62.25549
922.79        61.99037
923.19        62.04762
923.58        63.19997
923.98        65.52415
924.37          66.077
924.77        63.39283
925.16        71.34943
925.55        65.00903
925.95        65.31046
926.34        65.19495
926.74        64.43776
927.13        62.98245
927.52        61.98364
927.92        61.96506
928.31        62.31878
928.70        62.93557
929.10        63.55364
929.49        64.10023
929.89        64.64925
930.28        65.08062
930.67        65.08932
931.07        64.65047
931.46        63.73314
931.85        62.69216
932.24         62.5995
932.64        63.63481
933.03        64.89748
933.42        65.55514
933.82        67.88196
934.21        66.20802
934.60        64.98947
934.99        63.83724
935.39        63.77074
935.78        64.77384
936.17        67.16309
936.56        73.81615
936.96        66.94636
937.35        70.68375
937.74        67.21305
938.13        64.51763
938.53        62.22977
938.92        61.18356
939.31         61.9566
939.70        63.36464
940.09        64.21429
940.49        64.20258
940.88        63.77891
941.27        63.25371
941.66        63.15674
942.05        63.66102
942.44        64.46958
942.84         65.2677
943.23        65.76765
943.62        65.86398
944.01        65.63692
944.40         65.3101
944.79        65.24532
945.18        65.52381
945.57        66.04276
945.97        66.44656
946.36        66.28635
946.75        65.44501
947.14         64.0967
947.53        62.69689
947.92        62.02678
948.31        62.28543
948.70        63.20558
949.09        64.32969
949.48        64.94921
949.87        64.87627
950.26        64.34234
950.65        63.57744
951.04        62.95659
951.43        62.63079
951.82        62.47334
952.21        62.48417
952.60        62.68249
952.99        63.01982
953.38        63.48359
953.77        63.95728
954.16        64.25121
954.55        64.33155
954.94        64.25269
955.33        64.04149
955.72        63.77934
956.11        63.52202
956.50        63.23943
956.89        63.06372
957.28        63.19107
957.66        63.67186
958.05        64.39716
958.44        65.10547
958.83        65.38484
959.22        65.14086
959.61        64.42063
960.00        63.55152
960.39        63.17658
960.78        63.47206
961.16        64.28886
961.55         65.0526
961.94        65.06507
962.33        64.21536
962.72        62.69286
963.11        61.05595
963.49        60.45161
963.88        61.22118
964.27        62.92382
964.66        64.81439
965.04        65.89008
965.43        65.87917
965.82        65.14285
966.21        64.02502
966.60        63.14694
966.98        62.75417
967.37        62.62233
967.76        62.70905
968.15        62.95003
968.53        63.30633
968.92        63.85733
969.31        64.39433
969.69        64.52728
970.08        64.15229
970.47         63.2977
970.86        62.40779
971.24        62.28247
971.63        63.05038
972.02        64.47034
972.40         65.8703
972.79        66.15748
973.17        65.20975
973.56        63.37171
973.95        61.39679
974.33         60.6301
974.72        61.45039
975.11        63.38013
975.49        65.82403
975.88        67.71754
976.26        68.75394
976.65        69.17896
977.04        69.11032
977.42         68.6846
977.81        67.97137
978.19        66.82237
978.58        65.75955
978.96        65.71812
979.35        66.81776
979.74        68.69312
980.12        70.56219
980.51        71.23702
980.89        70.67434
981.28        69.09211
981.66         66.9381
982.05        65.44228
982.43        65.13621
982.82        65.72837
983.20        66.79182
983.59        67.61874
983.97         68.0061
984.35        68.11665
984.74         67.9631
985.12        67.63375
985.51        67.17056
985.89        66.63485
986.28        66.01791
986.66        65.37925
987.04        64.80766
987.43        64.21502
987.81        63.55443
988.20        64.42923
988.58        67.00201
988.96        68.04946
989.35        66.62505
989.73        73.38191
990.12        69.75848
990.50        69.94407
990.88        69.18906
991.27        68.50267
991.65        67.95956
992.03        67.66578
992.42         67.6985
992.80        67.53139
993.18        67.09998
993.56        66.62424
993.95        66.25054
994.33        66.13795
994.71        66.34846
995.10        66.77714
995.48        67.37561
995.86        68.07011
996.24        68.78645
996.63        69.43954
997.01        70.03717
997.39        70.40578
997.77        70.49444
998.15        70.31599
998.54        70.00149
998.92        69.65862
999.30        69.38893
999.68        69.24566
1000.06        69.13443
1000.45        68.82405
1000.83        68.39999
1001.21        67.93102
1001.59        67.79515
1001.97        68.51149
1002.35         70.0023
1002.73        71.91682
1003.12        73.71497
1003.50         74.7919
1003.88        75.04524
1004.26        74.67683
1004.64        73.90063
1005.02        73.19685
1005.40         72.7835
1005.78        72.49416
1006.16        72.33849
1006.54        72.29017
1006.92        72.32237
1007.30        72.58189
1007.69        72.75704
1008.07        72.43528
1008.45        71.52599
1008.83        70.03622
1009.21        68.64571
1009.59        68.77039
1009.97        70.59267
1010.35        73.36296
1010.73         75.9008
1011.11        77.17751
1011.49        77.22304
1011.86        75.99759
1012.24        73.75333
1012.62        74.93916
1013.00        76.56776
1013.38        77.91658
1013.76        77.14363
1014.14        81.49314
1014.52        86.80614
1014.90        78.14604
1015.28        77.72068
1015.66        78.18914
1016.04        73.79562
1016.41        74.62978
1016.79        74.59158
1017.17        75.10329
1017.55        75.31947
1017.93        75.60771
1018.31        76.23853
1018.69        76.98542
1019.06        77.85589
1019.44        78.82962
1019.82        79.41316
1020.20        78.91114
1020.58        77.17674
1020.95        73.94309
1021.33        70.33063
1021.71        69.59627
1022.09        72.86139
1022.46        78.29423
1022.84         83.0312
1023.22        84.96636
1023.60         84.3074
1023.97        81.81336
1024.35        78.50858
1024.73        76.57612
