SpectraSmart Spectrum 2.9.0.0
--------- Device Information -----------
Spectrum Name :  反射率_0
Saving Time :  2024/04/21 00:08:27
Spectro-Module Model Name : SE2030-DUVN
Spectro-Module Serial Number : OS361AC55029948
Wavelength Start : 200
Wavelength End : 1025
Wavelength Unit : Wavelength(nm)
Spectrum Unit : Reflectance(%)
-----------Spectrum Setting ------------
Integration Time : 20ms
Average : 10
Boxcar : 0
Background removal :  enabled
linearity correction :  enabled
SC :  disabled
Intensity correction :  disabled
DWT denoise :  enabled
savitzky-golay :  disabled
FFT :  disabled
Running average :  disabled
Kalman :  disabled
High pass :  disabled
---------------BEGIN--------------------
Wavelength(nm)             Reflectance(%)
200.29               0
200.75        5.379257
201.21        24.46021
201.67          30.785
202.13        31.31021
202.58        28.44966
203.04        22.64521
203.50        14.89227
203.96        9.076189
204.42        7.291183
204.88        8.206151
205.34        9.814786
205.80        8.455484
206.26        3.142883
206.72       -3.476758
207.18       -12.06351
207.64       -23.58093
208.10       -34.96363
208.55        -46.2087
209.01       -42.69433
209.47        -13.0336
209.93        18.88251
210.39        42.09743
210.85        55.66906
211.31        60.17078
211.77        57.71032
212.23        48.25029
212.69        27.54672
213.14       -8.767128
213.60       -68.78703
214.06       -226.7688
214.52       -542.4115
214.98        -202.412
215.44       -26.78666
215.90        28.14722
216.36        44.50577
216.81        42.79528
217.27        23.39275
217.73       -69.52086
218.19        1048.933
218.65        462.9831
219.11        -1015.97
219.57       -40.93528
220.02        22.13929
220.48        34.99329
220.94        32.62603
221.40        16.47716
221.86       -24.47116
222.32       -51.38895
222.77       -14.42283
223.23        17.37317
223.69        33.18669
224.15        38.28577
224.61        37.80883
225.06        34.95372
225.52        30.49486
225.98        25.10878
226.44        19.52317
226.90        12.43491
227.36        7.657004
227.81         11.9384
228.27        21.75315
228.73        32.01918
229.19        38.40013
229.65        38.45222
230.10         32.9405
230.56        23.18254
231.02        10.80773
231.48         2.86071
231.93        4.212197
232.39        11.97287
232.85        20.71104
233.31        26.00289
233.77        28.07369
234.22        28.81307
234.68        28.65487
235.14        28.22117
235.60         28.1035
236.05        27.27419
236.51        25.90191
236.97        30.00024
237.43        39.93834
237.88        46.33127
238.34        45.60178
238.80        65.51942
239.26        57.26762
239.71        56.60001
240.17        51.21771
240.63        47.01597
241.08        47.86702
241.54        55.88493
242.00         68.5091
242.46        75.58938
242.91        74.42382
243.37         64.1334
243.83        46.84013
244.28        34.76746
244.74        36.21282
245.20        46.04519
245.66         55.9711
246.11        57.15592
246.57        48.48886
247.03        32.94255
247.48        13.05032
247.94       -7.250227
248.40       -29.97967
248.85       -74.60346
249.31       -193.8553
249.77         -255.91
250.22       -63.22057
250.68        8.230075
251.14        30.35077
251.59        38.19999
252.05        41.66948
252.51        43.37967
252.96        43.16819
253.42         41.5786
253.88        39.93681
254.33        39.47982
254.79        43.07182
255.25        50.35802
255.70        58.06363
256.16        64.55178
256.62        69.22848
257.07        71.99688
257.53        73.75542
257.99        74.61528
258.44        74.36863
258.90        73.58044
259.35        71.95849
259.81        70.30353
260.27        68.58711
260.72         66.9167
261.18        65.74699
261.63        64.62949
262.09        63.84189
262.55        63.15296
263.00        62.38899
263.46        61.78167
263.91        61.02856
264.37        60.23203
264.83        59.31425
265.28        58.25642
265.74        57.28628
266.19        56.43523
266.65        55.77006
267.11        55.17167
267.56        54.49107
268.02        53.61331
268.47         52.4646
268.93        51.16094
269.38        49.75834
269.84        48.41788
270.30        47.18322
270.75        46.01493
271.21        44.96498
271.66        44.03212
272.12        43.23536
272.57        42.54566
273.03        41.90969
273.48        41.17715
273.94        40.35442
274.39        39.43926
274.85        38.54558
275.31        37.76743
275.76        37.11703
276.22        36.60046
276.67        36.13604
277.13        35.70926
277.58        35.25254
278.04        34.80913
278.49         34.3442
278.95         33.9115
279.40         33.4605
279.86        33.02458
280.31        32.52774
280.77        31.96803
281.22        31.32046
281.68        30.67607
282.13        30.05766
282.59        29.58804
283.04        29.25227
283.50        29.03551
283.95        28.91042
284.41        28.87562
284.86        28.89573
285.32        28.99189
285.77        29.07002
286.22        29.02257
286.68        28.86252
287.13          28.581
287.59        28.35219
288.04        28.33066
288.50        28.52056
288.95        28.96298
289.41        29.53963
289.86        29.60986
290.32        29.07795
290.77        29.80591
291.22        28.91166
291.68        29.01309
292.13         29.2799
292.59        29.75106
293.04        30.39886
293.50        31.25127
293.95        32.30384
294.40        33.52564
294.86        34.85079
295.31        36.15842
295.77        37.41245
296.22        38.61422
296.68        39.81588
297.13        41.09666
297.58        42.49497
298.04         43.9898
298.49        45.54937
298.95        47.14722
299.40        48.74554
299.85        50.35586
300.31        51.97422
300.76         53.5624
301.21        55.12514
301.67        56.69455
302.12        58.25531
302.58        59.89973
303.03        61.61477
303.48        63.43421
303.94        65.34955
304.39        67.28625
304.84          69.228
305.30        71.18848
305.75        73.13445
306.20          75.136
306.66        77.18434
307.11        79.18519
307.57        81.09271
308.02        82.75864
308.47        84.19435
308.93        85.49559
309.38        86.68289
309.83        87.85736
310.29        89.11027
310.74        90.35998
311.19        91.65247
311.65        93.01803
312.10        94.42845
312.55        95.87544
313.00        97.27525
313.46        98.49818
313.91        99.48878
314.36        100.2743
314.82        100.9381
315.27        101.6113
315.72        102.3408
316.18        103.1016
316.63        103.8193
317.08        104.3725
317.53        104.7417
317.99        104.9753
318.44        105.1851
318.89        105.5275
319.35        106.0338
319.80        106.6557
320.25        107.2877
320.70        107.7665
321.16        108.0346
321.61        108.1562
322.06        108.1972
322.51        108.2729
322.97        108.4109
323.42        108.6244
323.87        108.8633
324.32        109.0659
324.78        109.1987
325.23        109.3215
325.68        109.4805
326.13        109.7763
326.59         110.195
327.04        110.7548
327.49        111.3176
327.94        111.6924
328.39        111.8354
328.85        111.7718
329.30        111.6981
329.75        111.8093
330.20        112.1707
330.66        112.6784
331.11        113.3067
331.56        113.8619
332.01        114.2865
332.46        114.6346
332.92        114.8817
333.37        115.1378
333.82        115.3867
334.27        115.6179
334.72         115.887
335.17        116.2932
335.63        116.8253
336.08        117.5263
336.53        118.2968
336.98        119.0143
337.43        119.6278
337.88        120.1443
338.34        120.5737
338.79        121.0063
339.24        121.4387
339.69        121.8664
340.14        122.2453
340.59        122.5129
341.05        122.6779
341.50        122.7813
341.95        122.9482
342.40        123.3796
342.85        124.0991
343.30        125.0252
343.75        125.9652
344.20        126.6191
344.66        126.9167
345.11        126.9237
345.56        126.7825
346.01         126.727
346.46        126.8386
346.91        127.0311
347.36        127.2275
347.81         127.396
348.26        127.5283
348.72        127.3461
349.17        127.4713
349.62        127.5254
350.07        127.6971
350.52        127.9293
350.97         128.151
351.42        128.2467
351.87        128.1711
352.32        127.9497
352.77        127.6382
353.22        127.3215
353.67        127.0251
354.13         126.754
354.58        126.4242
355.03        125.9573
355.48        125.3567
355.93        124.6693
356.38        124.0208
356.83        123.5914
357.28        123.3991
357.73        123.3695
358.18        123.3478
358.63        123.0897
359.08        122.5328
359.53        121.7527
359.98        120.8605
360.43        120.0281
360.88        119.3042
361.33        118.6347
361.78        117.9777
362.23        117.2703
362.68        116.4989
363.13        115.7041
363.58        114.8954
364.03        114.0772
364.48        113.2498
364.93        112.3934
365.38         111.537
365.83        110.7336
366.28        109.9904
366.73        109.3035
367.18        108.5992
367.63         107.758
368.08        106.7748
368.53        105.7038
368.98        104.6634
369.43        103.8247
369.88        103.2171
370.33        102.7794
370.78        102.4111
371.23        101.9525
371.68        101.3523
372.13        100.6509
372.58        99.90765
373.03        99.20784
373.48        98.56922
373.93        97.96175
374.38        97.34061
374.83        96.64809
375.28        95.89199
375.72        95.09909
376.17        94.37014
376.62        93.75562
377.07        93.25504
377.52        92.82934
377.97        92.44112
378.42        92.04376
378.87         91.6244
379.32        91.20079
379.77         90.7609
380.22        90.27682
380.67         89.7352
381.11        89.13571
381.56        88.50359
382.01        87.91566
382.46        87.40775
382.91        86.98172
383.36         86.5848
383.81          86.126
384.26        85.58742
384.71        84.99211
385.15        84.41183
385.60        84.02538
386.05        83.82588
386.50        83.75623
386.95        83.68082
387.40        83.39561
387.85        82.87772
388.29        82.16821
388.74        81.50497
389.19        80.99749
389.64        80.66911
390.09        80.45514
390.54        80.29903
390.98        80.09699
391.43        79.85571
391.88        79.59512
392.33        79.32322
392.78        79.01437
393.23        78.67426
393.67        78.35957
394.12        78.15251
394.57        77.79472
395.02        77.37496
395.47         77.3359
395.91        77.60967
396.36        77.64116
396.81        77.40292
397.26         77.2096
397.71        77.04816
398.15        76.78008
398.60        76.50926
399.05        76.08585
399.50        75.64094
399.95        75.63503
400.39        75.94894
400.84        75.86611
401.29        75.37122
401.74        74.91168
402.18        74.59826
402.63        74.41248
403.08         74.3134
403.53        74.09664
403.97        73.74731
404.42        73.45488
404.87        73.25179
405.32        73.10584
405.76        73.01196
406.21        73.00903
406.66        73.02025
407.11        72.91873
407.55        72.71613
408.00         72.4203
408.45        72.13035
408.90        72.00928
409.34        72.04063
409.79         72.0639
410.24        72.02858
410.68         71.9928
411.13        71.94137
411.58        71.80996
412.03        71.62966
412.47         71.5231
412.92        71.48543
413.37        71.48962
413.81         71.4979
414.26         71.5132
414.71        71.50496
415.15        71.49799
415.60        71.44849
416.05         71.3438
416.49         71.1906
416.94        70.99164
417.39        70.78695
417.83        70.62737
418.28        70.52832
418.73        70.47305
419.17         70.4373
419.62         70.3894
420.07        70.31895
420.51        70.22887
420.96        70.15087
421.41        70.08984
421.85        70.02196
422.30        69.95992
422.74        69.88112
423.19        69.91988
423.64         70.0309
424.08        70.09613
424.53        70.04052
424.98        70.01409
425.42        70.04354
425.87        69.93926
426.31        69.76526
426.76        69.90678
427.21        70.29008
427.65        70.30778
428.10        69.93791
428.54        70.09805
428.99        70.02902
429.44        70.21078
429.88        70.28358
430.33        70.10143
430.77        69.73245
431.22        69.61243
431.66         69.7254
432.11        70.03204
432.56        70.47988
433.00        70.17582
433.45         69.5248
433.89        69.39244
434.34        70.12273
434.78        68.86137
435.23        68.70706
435.67        69.72803
436.12        69.97726
436.57        70.19866
437.01        69.71004
437.46        69.44891
437.90        70.16409
438.35        70.04565
438.79        70.25868
439.24        70.22701
439.68        70.22668
440.13        70.36728
440.57         70.5518
441.02        70.26112
441.46        69.66047
441.91        69.69283
442.35        70.16978
442.80        70.60295
443.24         70.9026
443.69        70.99076
444.13        70.75604
444.58        71.17178
445.02        70.52415
445.47        70.41643
445.91        70.61505
446.36        70.60435
446.80        70.44551
447.24        70.41357
447.69        70.57564
448.13         70.5365
448.58        70.80092
449.02        70.87276
449.47        70.88975
449.91        70.86772
450.36        70.82504
450.80        70.67424
451.25         70.4824
451.69         70.3877
452.13        70.39956
452.58        70.38649
453.02        70.31176
453.47        70.23375
453.91        70.13641
454.36        69.99486
454.80        69.80135
455.24        69.62627
455.69        69.51086
456.13        69.27666
456.58        68.99574
457.02        69.12966
457.46        69.20405
457.91         69.0558
458.35        68.72514
458.79        68.53561
459.24        68.55568
459.68        68.48624
460.13        68.37481
460.57        68.32797
461.01         68.1063
461.46        67.96388
461.90        68.39469
462.34        67.39415
462.79        67.58244
463.23        67.48231
463.68        67.72966
464.12        67.62402
464.56        67.22918
465.01        67.30621
465.45        67.62395
465.89        67.60289
466.34        67.33659
466.78        67.07435
467.22        66.77552
467.67         67.4164
468.11        66.59718
468.55        66.52442
468.99        66.48574
469.44        66.40605
469.88        66.26913
470.32        66.15266
470.77        66.07968
471.21        65.99481
471.65        65.90067
472.10        65.81575
472.54        65.72916
472.98        65.65643
473.42        65.60558
473.87        65.55533
474.31         65.4866
474.75        65.54697
475.20        65.67526
475.64        65.63464
476.08        65.46892
476.52        65.36722
476.97        65.29449
477.41        65.39538
477.85         65.6281
478.29        65.12398
478.74        64.62022
479.18         64.9925
479.62        65.09003
480.06         65.3238
480.50        65.30239
480.95        65.33537
481.39        65.34058
481.83         65.5508
482.27        65.75307
482.72        65.32606
483.16        65.45243
483.60         65.6729
484.04        65.47046
484.48        65.49592
484.93         65.0435
485.37        65.13668
485.81        65.55381
486.25        64.98273
486.69        66.22098
487.14        65.58518
487.58        65.16202
488.02        65.78941
488.46        64.83858
488.90        65.27943
489.34        64.91391
489.79        64.34617
490.23        64.94723
490.67        65.02372
491.11        65.08252
491.55        65.00532
491.99        64.86614
492.43        64.81657
492.88        64.85197
493.32        64.88256
493.76        64.85062
494.20        64.84502
494.64        64.88368
495.08        64.61795
495.52        64.57635
495.96        64.62103
496.41        64.80087
496.85        64.75334
497.29        64.46339
497.73        64.37379
498.17        64.18188
498.61        64.27859
499.05        64.47907
499.49         64.3476
499.93        63.99599
500.37        64.02499
500.82        64.40306
501.26        64.61084
501.70        64.91072
502.14         64.4614
502.58        64.04282
503.02        63.80539
503.46        63.90388
503.90         64.0435
504.34        64.13655
504.78        64.22485
505.22        64.27708
505.66        64.27666
506.10        64.23724
506.54        64.19975
506.98        64.17239
507.42        64.01814
507.86        64.12529
508.30        63.94469
508.74        64.11485
509.18        64.16769
509.62        64.23151
510.06        64.26955
510.50        64.24958
510.94        64.11562
511.38        63.88712
511.82        63.68005
512.26        63.51707
512.70        63.34464
513.14        63.20775
513.58        63.19836
514.02        63.32152
514.46        63.54987
514.90        63.78722
515.34        63.90692
515.78        63.87829
516.22        63.71935
516.66        63.35301
517.10        63.47928
517.54        63.30031
517.98        63.41748
518.42        63.53832
518.86        63.60913
519.30         63.6049
519.74        63.52182
520.18        63.40667
520.62        63.40569
521.06        63.48812
521.50        63.40952
521.93         63.2069
522.37        63.14507
522.81        63.24044
523.25        63.35067
523.69        63.43224
524.13        63.47523
524.57        63.46526
525.01        63.40517
525.45        63.32558
525.89          63.277
526.32        63.27049
526.76        63.29689
527.20        63.33236
527.64        63.34235
528.08        63.31772
528.52         63.2719
528.96        63.22185
529.40        63.18968
529.83         63.1755
530.27        63.18924
530.71        63.20632
531.15        63.19778
531.59        63.15944
532.03         63.1036
532.46        63.04479
532.90        63.02334
533.34        63.04055
533.78        63.08158
534.22        63.12901
534.66        63.15637
535.09          63.148
535.53        63.13655
535.97        63.11181
536.41        63.07519
536.85        63.03152
537.28        62.97841
537.72        62.93911
538.16        62.95338
538.60        63.02208
539.04        63.13108
539.47         63.2224
539.91         63.2608
540.35        63.21955
540.79        63.12025
541.22        62.99649
541.66        62.91859
542.10        62.89962
542.54        62.91652
542.97        62.94412
543.41        62.97497
543.85        62.99734
544.29        63.03194
544.72        63.05369
545.16        63.07832
545.60        63.09501
546.04        63.02095
546.47        62.92102
546.91        63.05536
547.35        63.34182
547.79        63.43703
548.22        63.29803
548.66        63.08136
549.10        62.87542
549.53        62.83231
549.97         62.9504
550.41        62.96596
550.84        62.86108
551.28        62.86948
551.72        63.00325
552.15        62.90231
552.59        62.98365
553.03        62.98881
553.46        62.99829
553.90        62.92132
554.34         62.7085
554.77        62.87012
555.21         62.7821
555.65        62.48429
556.08        62.70794
556.52        62.71255
556.96        62.75554
557.39        62.86827
557.83        63.03253
558.27        63.07151
558.70         62.9984
559.14        62.96798
559.57        62.97163
560.01        63.04614
560.45        63.10581
560.88        62.89878
561.32        62.56908
561.75        62.40891
562.19        62.48759
562.63         62.7514
563.06        63.05887
563.50        63.01208
563.93        62.66315
564.37        62.54258
564.80        62.65676
565.24         62.7816
565.68        62.87731
566.11          62.891
566.55        62.90918
566.98         62.9495
567.42        63.02156
567.85        62.84368
568.29         62.5561
568.72        62.54644
569.16        62.81996
569.60        62.99104
570.03        62.90755
570.47        62.97931
570.90        63.16529
571.34        63.06218
571.77         63.4342
572.21        63.34366
572.64        63.44884
573.08        63.10887
573.51        63.06138
573.95        63.46832
574.38        63.60864
574.82        63.85793
575.25        63.78804
575.69        63.65802
576.12        63.19426
576.56        63.29588
576.99         63.7838
577.42        63.53408
577.86        63.69174
578.29        63.99081
578.73         64.2268
579.16        63.83257
579.60        63.09999
580.03         63.6184
580.47        63.55839
580.90        63.49321
581.33        63.65379
581.77        63.82985
582.20        64.20043
582.64        64.33987
583.07        63.97768
583.51        63.57094
583.94        63.47632
584.37        63.30347
584.81        63.02731
585.24        63.09249
585.68        63.79069
586.11        63.45547
586.54        63.59106
586.98        63.49049
587.41        63.12348
587.85        63.65235
588.28         63.9296
588.71        63.50925
589.15        63.64933
589.58        63.51568
590.01        63.38668
590.45        63.04058
590.88        63.31018
591.31        62.98237
591.75         63.0419
592.18        62.94706
592.61         62.9085
593.05         63.5154
593.48        63.51292
593.91        63.66188
594.35        63.59427
594.78        63.11898
595.21        63.15251
595.65        63.15163
596.08        63.37377
596.51        63.20256
596.94        63.02474
597.38        62.95781
597.81        63.19596
598.24        62.96242
598.68        62.92643
599.11        63.23899
599.54        63.38717
599.97         63.4468
600.41        62.92615
600.84        63.31499
601.27        63.33952
601.70        63.22247
602.14        63.25677
602.57        63.05688
603.00        62.82364
603.43        63.27359
603.87         63.5198
604.30         63.3971
604.73        63.17317
605.16        62.93151
605.60        62.97372
606.03        63.11422
606.46        63.35509
606.89        63.09402
607.32        62.59262
607.76        63.24342
608.19        63.12688
608.62        62.86267
609.05        63.67947
609.48        63.17268
609.92        63.09751
610.35        63.25523
610.78        63.36728
611.21         63.2567
611.64        63.11995
612.07        63.00345
612.50        63.02893
612.94        62.99966
613.37        62.94208
613.80        62.99065
614.23        63.13838
614.66        62.95671
615.09        63.08123
615.52        62.93748
615.96        62.76084
616.39        62.68791
616.82        62.75063
617.25        62.69894
617.68        62.87998
618.11        62.77715
618.54         62.7261
618.97        62.60342
619.40         62.4548
619.84        62.69202
620.27        62.66952
620.70        62.53985
621.13        62.20747
621.56        62.29377
621.99        62.76129
622.42        62.87248
622.85        62.59127
623.28         62.6727
623.71        62.70383
624.14        62.66938
624.57        62.95438
625.00         62.7594
625.43        62.58627
625.86        62.60186
626.29        62.80966
626.72        62.38776
627.15        62.50547
627.58        62.40444
628.01        62.50563
628.44        62.21192
628.87         62.2811
629.30        62.55381
629.73        62.59887
630.16        62.46179
630.59         62.4367
631.02        62.70639
631.45        62.50172
631.88        62.54093
632.31        62.58308
632.74         62.3295
633.17        62.41726
633.60        62.32177
634.03        62.24691
634.46        62.23114
634.89        62.19753
635.32        62.25553
635.75        62.36512
636.18        62.51915
636.61        62.66746
637.04        62.73429
637.47        62.70303
637.89        62.60049
638.32        62.45585
638.75        62.34605
639.18        62.29563
639.61        62.28776
640.04        62.30614
640.47        62.32221
640.90        62.32557
641.33        62.32711
641.76        62.33232
642.18        62.35353
642.61        62.37782
643.04        62.40567
643.47         62.4282
643.90        62.43867
644.33        62.43475
644.76        62.40663
645.18         62.3695
645.61         62.3654
646.04        62.38958
646.47        62.38756
646.90        62.35519
647.33        62.33315
647.75        62.30843
648.18         62.2747
648.61        62.27643
649.04        62.27629
649.47        62.25188
649.89        62.65731
650.32        62.72966
650.75        62.67728
651.18        62.36677
651.61        62.28613
652.03        62.42683
652.46        62.43601
652.89        62.33998
653.32        62.30973
653.74        62.31076
654.17        62.73991
654.60        61.91403
655.03        62.35142
655.46        62.40744
655.88        62.56511
656.31        63.61182
656.74        67.02261
657.16        65.48476
657.59        63.74167
658.02        62.57096
658.45        62.28635
658.87        62.47262
659.30        62.41925
659.73        62.75482
660.15        62.12217
660.58        62.18848
661.01        62.39248
661.44        62.95765
661.86        62.94851
662.29        62.40255
662.72        62.08807
663.14        62.09615
663.57        62.15831
664.00        62.22387
664.42        62.25092
664.85        62.23241
665.27        62.13042
665.70        62.16839
666.13        62.17302
666.55        62.21129
666.98        62.27529
667.41        62.33436
667.83        62.34547
668.26        62.30999
668.69        62.18637
669.11        62.00525
669.54        62.03754
669.96        62.35112
670.39        62.03688
670.82        62.53696
671.24        62.58746
671.67        62.59787
672.09        62.49217
672.52        62.35058
672.94        62.33673
673.37        62.41966
673.80        62.35046
674.22          62.168
674.65        62.10943
675.07        62.20826
675.50         62.3131
675.92        62.39906
676.35        62.46843
676.77         62.5063
677.20        62.52525
677.62          62.551
678.05        62.54823
678.47        62.50808
678.90        62.69529
679.32        62.62983
679.75        62.68658
680.17        62.71748
680.60        62.76484
681.02        62.80906
681.45        62.76165
681.87        62.65588
682.30        62.61487
682.72        62.66016
683.15        62.68374
683.57        62.63917
684.00        62.72556
684.42        62.44456
684.85        62.41047
685.27         62.4665
685.70        62.53287
686.12        62.56433
686.54        62.57419
686.97        62.54977
687.39         62.5173
687.82        62.49252
688.24        62.47218
688.66        62.44323
689.09        62.65327
689.51        62.62523
689.94        62.76488
690.36        62.90982
690.78        63.01156
691.21        63.06001
691.63        63.05468
692.06        63.02893
692.48        63.03621
692.90        63.07037
693.33         63.0663
693.75        63.03288
694.17        62.95903
694.60        62.85809
695.02        62.95456
695.44        62.95966
695.87        62.95404
696.29        62.88626
696.71        62.77837
697.14        62.67551
697.56        62.84894
697.98        63.23326
698.41        63.15604
698.83        63.22663
699.25        63.10116
699.68        63.00534
700.10        62.92745
700.52        62.88937
700.94        62.88714
701.37        62.88905
701.79        62.90469
702.21         62.9079
702.64        62.90695
703.06        62.90723
703.48        62.92327
703.90        62.95993
704.33        63.00851
704.75        63.05317
705.17        63.05013
705.59        62.99637
706.01        62.90414
706.44         62.8245
706.86        62.86004
707.28        63.01163
707.70        63.24115
708.12          63.484
708.55        63.63366
708.97        63.65659
709.39        63.59408
709.81         63.4758
710.23        63.36076
710.66        63.28051
711.08        63.23325
711.50        63.20944
711.92        63.21037
712.34         63.2332
712.76        63.27895
713.19        63.33652
713.61        63.42799
714.03        63.52318
714.45         63.6291
714.87        63.72662
715.29        63.74657
715.71        63.67682
716.13        63.69811
716.56        63.53047
716.98        63.51406
717.40        63.56064
717.82        63.65847
718.24         63.7688
718.66         63.8308
719.08        63.83099
719.50        63.78799
719.92        63.72858
720.34        63.69312
720.76        63.69418
721.19        63.70921
721.61        63.74752
722.03        63.79487
722.45         63.8474
722.87        63.91403
723.29        63.98571
723.71        64.04565
724.13        64.09061
724.55        64.11649
724.97        64.14764
725.39        64.22761
725.81        64.35808
726.23        64.52022
726.65        64.66309
727.07        64.71162
727.49        64.65476
727.91        64.51014
728.33        64.33195
728.75        64.24412
729.17        64.26167
729.59        64.28207
730.01        64.30178
730.43        64.39229
730.85        64.54302
731.27        64.67352
731.69        64.74879
732.10        64.83474
732.52        64.85881
732.94        64.66235
733.36        64.32354
733.78        64.17053
734.20        64.24969
734.62        64.39909
735.04        64.56133
735.46        64.69912
735.88        64.78956
736.30        64.84879
736.72        64.86021
737.13        64.86736
737.55        64.84063
737.97        64.63617
738.39        64.36357
738.81         64.5106
739.23        64.98806
739.65        65.08547
740.06        64.77596
740.48        64.70341
740.90        64.84358
741.32        64.84573
741.74        64.72693
742.16        64.71188
742.57        64.82676
742.99         64.9841
743.41        65.13365
743.83        65.17612
744.25        65.09229
744.67        64.92197
745.08         64.7506
745.50        64.67115
745.92        64.73061
746.34        64.89885
746.75        65.11285
747.17        65.26539
747.59          65.325
748.01        65.28707
748.42          65.212
748.84        65.22125
749.26        65.29802
749.68        65.36341
750.09        65.37513
750.51        65.17672
750.93        64.88354
751.35         64.9701
751.76        65.36014
752.18        65.48329
752.60        65.30254
753.01        65.16351
753.43        65.07587
753.85        64.95607
754.27        64.82639
754.68        64.71513
755.10         64.6618
755.52        64.70236
755.93        64.83341
756.35        65.04173
756.77        65.29365
757.18        65.45338
757.60        65.47851
758.02        65.54422
758.43        65.69367
758.85        65.23367
759.26        65.33573
759.68        65.26772
760.10        65.41957
760.51        65.02959
760.93        65.00748
761.34        65.14853
761.76        65.65987
762.18        65.83935
762.59        65.64251
763.01        65.69917
763.42        65.18385
763.84        65.22826
764.26        65.24466
764.67        65.39546
765.09        65.55173
765.50        65.77361
765.92        66.02424
766.33        66.10069
766.75        65.98057
767.16         65.9044
767.58        65.85866
768.00        65.80402
768.41        65.77725
768.83        65.75595
769.24        65.68885
769.66        65.85794
770.07        65.45592
770.49         65.5319
770.90        65.79964
771.32        65.87424
771.73        65.75568
772.15        65.74809
772.56        65.87593
772.97        65.95835
773.39        65.96376
773.80        65.99577
774.22        66.02309
774.63        66.04984
775.05        66.05279
775.46         66.0404
775.88        65.99552
776.29        65.95277
776.70        65.90472
777.12        65.84842
777.53        65.80923
777.95        65.78391
778.36        65.78688
778.77        65.83126
779.19        65.91216
779.60        66.02628
780.02        66.15376
780.43        66.26731
780.84         66.3529
781.26        66.43874
781.67        66.54202
782.09        66.52195
782.50        66.42477
782.91         66.5109
783.33        66.71922
783.74        66.79172
784.15        66.66757
784.57        66.54324
784.98        66.46609
785.39        66.38699
785.81        66.33859
786.22        66.39165
786.63        66.52351
787.04        66.63507
787.46        66.72233
787.87        66.80942
788.28         66.8947
788.70        66.94776
789.11        66.94867
789.52        66.91431
789.93        66.87718
790.35        66.88197
790.76        66.95325
791.17        67.08354
791.58        67.23344
792.00        67.31096
792.41        67.32562
792.82        67.31368
793.23        67.34897
793.65        67.41216
794.06        67.54728
794.47        67.98007
794.88        68.59231
795.29        68.48675
795.71        68.66916
796.12         68.4109
796.53        68.09873
796.94         67.9371
797.35         67.9409
797.76        67.82959
798.18        67.60271
798.59        67.50848
799.00        67.54846
799.41        67.59061
799.82        67.61701
800.23        67.66231
800.64        67.71667
801.06        67.74378
801.47        67.77602
801.88        67.79399
802.29        67.80206
802.70        67.80743
803.11        67.82496
803.52        67.87859
803.93        67.96803
804.34        68.07516
804.75         68.1984
805.17        68.30532
805.58        68.40597
805.99        68.54871
806.40        68.67947
806.81        68.57163
807.22        68.28248
807.63        68.14272
808.04        68.19489
808.45        68.23879
808.86         68.2742
809.27        68.44435
809.68        68.70152
810.09        68.86918
810.50        68.90979
810.91        68.87515
811.32        68.77737
811.73        68.63993
812.14        68.48557
812.55        68.30535
812.96        68.15061
813.37        68.11311
813.78        68.20702
814.19        68.40523
814.60        68.63228
815.01        68.76647
815.42        68.77866
815.83        68.70238
816.24        68.58014
816.65        68.49858
817.05        68.49742
817.46        68.51772
817.87        68.58125
818.28        68.67984
818.69        68.80515
819.10        68.96812
819.51        69.13383
819.92        69.23168
820.33        69.24355
820.74        69.18008
821.14         69.0939
821.55        69.09457
821.96        69.19212
822.37        69.35663
822.78         69.5263
823.19        69.59144
823.60        69.51927
824.00        69.36018
824.41        69.13178
824.82        68.93769
825.23        68.81277
825.64        68.73877
826.04         68.7216
826.45        68.72549
826.86        68.75716
827.27        68.84216
827.68        68.96605
828.08        69.11969
828.49        69.22303
828.90        69.30499
829.31        69.42743
829.72        69.61183
830.12          69.865
830.53        70.48421
830.94        70.69662
831.35        70.74014
831.75        70.39898
832.16         69.7486
832.57        69.04794
832.97        68.72589
833.38        68.88354
833.79        69.37498
834.20        69.99329
834.60        70.42299
835.01        70.56773
835.42        70.52528
835.82         70.3537
836.23        70.10297
836.64        69.84077
837.04        69.55677
837.45        69.29276
837.86        69.18513
838.26        69.27026
838.67        69.51582
839.08        69.84872
839.48        70.11993
839.89        70.27334
840.29        70.33656
840.70        70.36514
841.11        70.46022
841.51        70.65925
841.92          70.889
842.33        71.09133
842.73        71.17396
843.14        71.07439
843.54        70.86858
843.95        70.63341
844.35        70.51389
844.76        70.53989
845.17        70.67265
845.57         70.8712
845.98        71.02885
846.38        71.13759
846.79         71.2014
847.19        71.24936
847.60        71.24705
848.00        71.23223
848.41        71.16801
848.81        71.12809
849.22        71.16715
849.62        71.33207
850.03        71.56147
850.43        71.81581
850.84        71.92487
851.24        71.90266
851.65        71.72022
852.05        71.49818
852.46        71.35049
852.86        71.32239
853.27        71.41991
853.67        71.48689
854.07        71.44644
854.48        71.25097
854.88        70.96081
855.29        70.64122
855.69        70.58344
856.10        70.75975
856.50        71.18102
856.90        71.62701
857.31        71.78049
857.71        71.61538
858.12        71.15975
858.52        70.60172
858.92        70.19293
859.33        70.00953
859.73        70.03904
860.13        70.16657
860.54        70.19797
860.94        70.14347
861.34         70.0256
861.75        69.91648
862.15        70.00663
862.55        70.28499
862.96        70.65748
863.36        71.01593
863.76        71.14619
864.17        70.98755
864.57        70.63255
864.97         70.1573
865.38        69.67725
865.78        69.30048
866.18        69.00204
866.58        68.83092
866.99        68.84579
867.39        69.07639
867.79        69.46861
868.19        69.92313
868.60        70.20565
869.00        70.33593
869.40        70.52842
869.80        70.68308
870.21        70.45888
870.61        69.90466
871.01        69.17527
871.41         68.4947
871.81        68.10247
872.22        68.06657
872.62         68.3378
873.02        68.77346
873.42        69.24289
873.82         69.4836
874.22        69.13064
874.63        68.50532
875.03        68.23982
875.43        68.44992
875.83        69.68999
876.23        69.51015
876.63        69.17038
877.03        68.40858
877.44         66.7498
877.84        159.0515
878.24        67.85299
878.64        68.65247
879.04        70.05308
879.44        70.53508
879.84        67.66707
880.24        71.68106
880.64        71.56199
881.04        69.22238
881.44        67.50802
881.84        66.97948
882.24        67.68695
882.65        68.94987
883.05        69.36842
883.45         68.6491
883.85        67.59427
884.25        66.65747
884.65          66.212
885.05        66.40408
885.45        67.03431
885.85        67.78462
886.25        68.23041
886.65         68.2564
887.05        67.99622
887.45        67.58778
887.85        67.25654
888.25        67.09129
888.65        67.01894
889.04        67.00936
889.44        67.02628
889.84        67.04903
890.24         67.1077
890.64        67.20262
891.04        67.32045
891.44        67.46028
891.84         67.6205
892.24        67.78466
892.64        67.93201
893.04         68.0514
893.44         68.1351
893.83        68.22981
894.23        68.38452
894.63        68.61601
895.03        68.91581
895.43        69.19729
895.83        69.31734
896.23        69.25066
896.63        69.03088
897.02        68.78217
897.42        68.75503
897.82        68.95289
898.22        69.30329
898.62        69.62451
899.01        69.62714
899.41        69.23826
899.81        68.59299
900.21         67.8793
900.61        67.40245
901.00        67.24712
901.40        67.37576
901.80        67.72137
902.20        68.05922
902.59        68.30169
902.99        68.72106
903.39        69.35002
903.79        68.80552
904.18        69.35046
904.58        69.17403
904.98        68.94123
905.38        68.58839
905.77        68.14314
906.17        67.66093
906.57        67.24825
906.96        67.16891
907.36        67.46159
907.76        68.06148
908.15        68.81635
908.55        69.31165
908.95        69.47771
909.34         69.3616
909.74        69.13195
910.14        69.03552
910.53        69.14028
910.93        69.35616
911.33        69.54137
911.72        69.47494
912.12        69.12562
912.52        68.58819
912.91        68.00914
913.31        67.68841
913.70        67.67268
914.10        67.87839
914.49        68.18685
914.89         68.3107
915.29        68.20302
915.68        67.93269
916.08        67.65428
916.47        67.56111
916.87        67.72903
917.26        68.07982
917.66        68.48784
918.05        68.77686
918.45        68.87425
918.84        68.84296
919.24        68.76654
919.64        68.84392
920.03        69.11319
920.42         69.4766
920.82        69.79502
921.21        69.86768
921.61        69.68147
922.00        69.39204
922.40        69.15665
922.79        69.09718
923.19        68.94647
923.58        69.41049
923.98        70.82173
924.37        71.09672
924.77        69.06747
925.16        76.25953
925.55        71.67139
925.95        72.30031
926.34        72.22666
926.74        71.39198
927.13        69.86021
927.52        68.76758
927.92        68.63655
928.31        68.88741
928.70        69.41171
929.10        69.96937
929.49        70.48352
929.89        71.03954
930.28        71.48872
930.67        71.45237
931.07        70.89629
931.46        69.83292
931.85        68.67377
932.24         68.5272
932.64         69.5734
933.03         70.9669
933.42        71.90762
933.82        74.06634
934.21        72.80399
934.60        71.76922
934.99        70.65901
935.39         70.3286
935.78        70.82857
936.17        72.47387
936.56        77.80518
936.96        71.80707
937.35        74.99445
937.74        72.16158
938.13        70.14021
938.53        68.61016
938.92        68.20672
939.31        69.33692
939.70        70.83967
940.09         71.5411
940.49        71.19168
940.88        70.22011
941.27        69.06154
941.66        68.53762
942.05        68.93426
942.44        69.89105
942.84        71.00546
943.23        71.82512
943.62        72.19154
944.01        72.24239
944.40         72.1334
944.79        72.10911
945.18        72.23897
945.57         72.4282
945.97        72.49167
946.36        72.26919
946.75        71.69299
947.14        70.85752
947.53        70.00444
947.92        69.52918
948.31         69.5462
948.70        69.94849
949.09         70.4783
949.48        70.72987
949.87        70.60604
950.26        70.22395
950.65        69.78864
951.04        69.64002
951.43        69.86378
951.82        70.33219
952.21        70.86481
952.60        71.16528
952.99        71.13782
953.38        70.88848
953.77        70.54053
954.16        70.25616
954.55        70.09531
954.94        70.02802
955.33        70.02165
955.72        70.02644
956.11        70.02538
956.50        70.02431
956.89        70.09496
957.28        70.33944
957.66         70.7796
958.05        71.29354
958.44        71.70835
958.83        71.75808
959.22        71.39069
959.61        70.66204
960.00        69.78565
960.39        69.19762
960.78        69.05873
961.16        69.29414
961.55        69.60908
961.94        69.66289
962.33        69.38007
962.72        68.86471
963.11        68.31239
963.49        68.12302
963.88        68.41412
964.27        69.03227
964.66        69.73319
965.04        70.22288
965.43        70.37373
965.82        70.29482
966.21         70.1167
966.60        70.06548
966.98        70.21449
967.37        70.49799
967.76        70.77289
968.15        70.80513
968.53         70.5762
968.92        70.14659
969.31         69.7365
969.69        69.68893
970.08        70.03464
970.47        70.63473
970.86        71.28496
971.24        71.64264
971.63        71.58349
972.02        71.26187
972.40        70.73778
972.79        69.99606
973.17        69.14798
973.56        68.20161
973.95        67.43521
974.33        67.33978
974.72        68.00855
975.11        69.27969
975.49        70.84568
975.88        72.10447
976.26        72.90648
976.65        73.27737
977.04        73.32688
977.42        73.21535
977.81        72.97729
978.19        72.55486
978.58        72.15401
978.96        72.07424
979.35        72.35786
979.74        72.90369
980.12        73.56433
980.51        73.94542
980.89        74.09436
981.28        74.05087
981.66        73.82161
982.05        73.50151
982.43        73.13569
982.82        72.74583
983.20        72.45378
983.59        72.38033
983.97        72.58092
984.35         72.9733
984.74        73.44108
985.12        73.85002
985.51        74.08829
985.89        74.26989
986.28        74.31166
986.66         74.1436
987.04         73.8285
987.43         73.2833
987.81        72.55848
988.20        73.04773
988.58        74.95111
988.96        75.77599
989.35        74.71864
989.73        79.73898
990.12        76.70322
990.50        76.47507
990.88         75.4942
991.27        74.67369
991.65        74.13471
992.03        73.93035
992.42        74.06843
992.80        74.05057
993.18        73.77728
993.56        73.45044
993.95        73.19153
994.33        73.13628
994.71           73.34
995.10        73.69638
995.48        74.18454
995.86        74.78127
996.24        75.41839
996.63        75.98582
997.01        76.47898
997.39        76.69691
997.77        76.59233
998.15        76.22884
998.54        75.69644
998.92        75.02751
999.30        74.32087
999.68         73.6269
1000.06        73.05365
1000.45        72.76588
1000.83        72.93266
1001.21         73.4558
1001.59        74.29816
1001.97        75.38082
1002.35        76.54536
1002.73        77.67672
1003.12        78.55394
1003.50        78.96196
1003.88         78.8773
1004.26        78.36976
1004.64        77.55168
1005.02        76.71249
1005.40        76.02161
1005.78        75.44904
1006.16        75.05745
1006.54         74.8754
1006.92        74.89617
1007.30        75.18696
1007.69        75.53744
1008.07        75.70679
1008.45        75.62974
1008.83        75.34422
1009.21        75.14958
1009.59        75.65645
1009.97        76.87569
1010.35        78.36062
1010.73        79.70132
1011.11        80.72488
1011.49        81.53561
1011.86        82.02026
1012.24        81.89654
1012.62        83.07371
1013.00        83.24637
1013.38        82.36456
1013.76        79.51768
1014.14        82.53399
1014.52        87.87988
1014.90        81.59352
1015.28        83.26778
1015.66        84.84977
1016.04         82.0366
1016.41        81.98761
1016.79        80.92554
1017.17        80.58453
1017.55        80.57226
1017.93        81.03907
1018.31        81.79638
1018.69        82.02067
1019.06        81.65788
1019.44        80.96893
1019.82        80.32584
1020.20        80.14335
1020.58        80.56355
1020.95        81.50253
1021.33        83.04266
1021.71        84.58508
1022.09        85.51351
1022.46        85.85745
1022.84        85.82458
1023.22        85.73303
1023.60        85.66703
1023.97        85.53753
1024.35        85.33002
1024.73        85.06615
