SpectraSmart Spectrum 2.9.0.0
--------- Device Information -----------
Spectrum Name :  反射率_0
Saving Time :  2024/04/21 00:33:49
Spectro-Module Model Name : SE2030-DUVN
Spectro-Module Serial Number : OS361AC55029948
Wavelength Start : 200
Wavelength End : 1025
Wavelength Unit : Wavelength(nm)
Spectrum Unit : Reflectance(%)
-----------Spectrum Setting ------------
Integration Time : 20ms
Average : 10
Boxcar : 0
Background removal :  enabled
linearity correction :  enabled
SC :  disabled
Intensity correction :  disabled
DWT denoise :  enabled
savitzky-golay :  disabled
FFT :  disabled
Running average :  disabled
Kalman :  disabled
High pass :  disabled
---------------BEGIN--------------------
Wavelength(nm)             Reflectance(%)
200.29               0
200.75       -56.18475
201.21        8.268833
201.67        41.43631
202.13        52.40337
202.58        50.53936
203.04        40.38682
203.50         24.4757
203.96        11.61579
204.42        7.091586
204.88        7.339915
205.34        10.18882
205.80        12.01761
206.26        11.97964
206.72        14.88048
207.18        16.60435
207.64        6.348637
208.10       -16.89645
208.55       -50.48677
209.01       -65.88136
209.47       -32.86495
209.93        13.51609
210.39        50.42788
210.85        73.16764
211.31        81.28217
211.77        78.01386
212.23        63.42472
212.69        31.99038
213.14       -19.08173
213.60       -93.01394
214.06       -263.0597
214.52       -554.3201
214.98       -183.6138
215.44       -15.29547
215.90        35.10986
216.36        50.03577
216.81        49.38486
217.27        34.55313
217.73        -39.3327
218.19        851.7031
218.65        379.9548
219.11       -752.8644
219.57       -8.260592
220.02        39.09688
220.48        47.58158
220.94        43.08125
221.40        24.72421
221.86       -21.46921
222.32       -58.52843
222.77       -24.66013
223.23        8.834421
223.69        26.52297
224.15        32.70797
224.61        32.85694
225.06        30.54985
225.52        26.72445
225.98        22.20745
226.44        17.73687
226.90        12.03379
227.36         8.29484
227.81        12.18221
228.27        20.63216
228.73        29.41711
229.19         34.9064
229.65         35.0015
230.10        30.36209
230.56        22.28464
231.02        12.00673
231.48        4.900118
231.93        5.032128
232.39        10.52012
232.85        16.91048
233.31        20.28491
233.77        20.78152
234.22        20.06339
234.68        18.68709
235.14        17.63355
235.60        17.65177
236.05        17.58751
236.51         17.2935
236.97        22.63997
237.43        33.62878
237.88         39.9802
238.34        37.78949
238.80        59.61204
239.26        48.96989
239.71        47.42057
240.17        39.95703
240.63        32.19479
241.08        27.76297
241.54        30.05881
242.00        39.22477
242.46        45.03093
242.91        44.95432
243.37        39.44428
243.83        31.29066
244.28         30.5567
244.74        41.22096
245.20        57.00778
245.66        69.05267
246.11        68.67074
246.57        55.56693
247.03        32.34361
247.48        3.744261
247.94       -22.07614
248.40       -44.83629
248.85       -78.48271
249.31       -147.3102
249.77       -148.4502
250.22       -28.54817
250.68        7.328825
251.14        16.77642
251.59        20.15414
252.05         21.9895
252.51        22.80059
252.96        21.58869
253.42        18.17549
253.88        13.99638
254.33        11.59295
254.79         14.1464
255.25         21.3134
255.70        29.55205
256.16        36.53954
256.62        41.82616
257.07        45.39724
257.53        47.91446
257.99        49.63212
258.44        50.20387
258.90        49.88205
259.35        48.52854
259.81        46.79229
260.27        45.02981
260.72        43.70709
261.18        43.04427
261.63        42.61683
262.09        42.17212
262.55        41.14647
263.00        39.55505
263.46        37.80386
263.91        36.18121
264.37        35.39594
264.83        35.37144
265.28        35.74531
265.74        36.19036
266.19        36.15332
266.65        35.59285
267.11        34.66595
267.56        33.51164
268.02        32.41109
268.47        31.42705
268.93        30.52501
269.38        29.67873
269.84        28.90863
270.30        28.20532
270.75         27.5834
271.21        27.07429
271.66        26.64909
272.12        26.30241
272.57        25.99581
273.03         25.6775
273.48        25.25475
273.94        24.73242
274.39        24.12016
274.85         23.5004
275.31        22.93937
275.76        22.46169
276.22          22.084
276.67        21.77912
277.13        21.56501
277.58         21.3947
278.04        21.25889
278.49        21.11657
278.95        20.97033
279.40        20.77245
279.86        20.55113
280.31        20.22653
280.77        19.75319
281.22        19.13006
281.68        18.45626
282.13        17.82043
282.59        17.40727
283.04        17.22835
283.50        17.23265
283.95        17.36518
284.41        17.55594
284.86        17.75597
285.32        17.98314
285.77        18.16729
286.22        18.21538
286.68        18.14445
287.13        17.95383
287.59        17.78929
288.04        17.77613
288.50        17.90972
288.95        18.27739
289.41        18.81576
289.86        18.91931
290.32        18.47437
290.77        19.56542
291.22        18.78445
291.68        18.98578
292.13        19.18779
292.59        19.47687
293.04        19.85911
293.50        20.41959
293.95        21.18915
294.40        22.11851
294.86        23.17049
295.31        24.27247
295.77        25.38795
296.22        26.50998
296.68        27.63665
297.13        28.76487
297.58        29.91269
298.04        31.08899
298.49        32.30414
298.95        33.59465
299.40        34.95594
299.85        36.38821
300.31        37.88316
300.76        39.40846
301.21        40.95389
301.67        42.53389
302.12        44.13062
302.58        45.80875
303.03        47.54964
303.48        49.38078
303.94        51.25903
304.39        53.07438
304.84        54.81326
305.30        56.50979
305.75        58.20794
306.20        60.07108
306.66        62.10583
307.11        64.20374
307.57        66.25392
308.02        68.03262
308.47        69.52097
308.93        70.83545
309.38        72.03794
309.83        73.25595
310.29        74.62824
310.74        76.01006
311.19        77.40972
311.65        78.78566
312.10         80.0988
312.55        81.37025
313.00        82.56153
313.46         83.6101
313.91        84.49323
314.36        85.23194
314.82        85.89474
315.27        86.59283
315.72        87.35893
316.18        88.16316
316.63         88.9489
317.08        89.62389
317.53        90.15889
317.99          90.583
318.44        90.93135
318.89        91.24306
319.35        91.54138
319.80        91.83089
320.25        92.11398
320.70        92.40162
321.16        92.68551
321.61        92.97064
322.06        93.27076
322.51        93.61134
322.97        93.97491
323.42        94.38735
323.87        94.75459
324.32        94.94078
324.78        94.90917
325.23        94.73367
325.68        94.54481
326.13        94.58653
326.59        94.89212
327.04        95.44075
327.49        96.05474
327.94        96.46027
328.39        96.57866
328.85        96.46336
329.30        96.29707
329.75        96.26987
330.20        96.45338
330.66        96.75005
331.11        97.15249
331.56        97.52364
332.01        97.82689
332.46        98.11346
332.92        98.35917
333.37        98.64516
333.82        98.94571
334.27        99.24062
334.72        99.57262
335.17        100.0237
335.63        100.5722
336.08        101.2478
336.53        101.9315
336.98         102.466
337.43        102.8112
337.88        103.0095
338.34        103.1312
338.79        103.3534
339.24        103.7042
339.69         104.139
340.14         104.611
340.59         105.049
341.05        105.4324
341.50         105.798
341.95        106.1544
342.40        106.5142
342.85        106.8837
343.30        107.2507
343.75        107.6142
344.20        107.9851
344.66         108.366
345.11        108.7284
345.56        109.0676
346.01          109.37
346.46         109.636
346.91        109.8738
347.36        110.0563
347.81        110.1756
348.26         110.245
348.72        110.1596
349.17        110.1995
349.62        110.3411
350.07        110.6619
350.52        111.1023
350.97        111.5175
351.42        111.6666
351.87        111.4902
352.32        111.0675
352.77        110.5326
353.22        110.0913
353.67        109.8049
354.13         109.634
354.58        109.4881
355.03        109.2741
355.48         108.963
355.93        108.5905
356.38         108.205
356.83        107.8714
357.28        107.5896
357.73        107.3175
358.18        106.9856
358.63        106.4957
359.08        105.8363
359.53        105.0595
359.98        104.2318
360.43        103.4466
360.88        102.7346
361.33        102.0711
361.78        101.4535
362.23        100.8772
362.68        100.3299
363.13        99.81277
363.58        99.28419
364.03         98.6739
364.48        97.96726
364.93        97.18207
365.38        96.36335
365.83        95.59173
366.28        94.89208
366.73        94.24023
367.18        93.61765
367.63        92.99484
368.08        92.35749
368.53        91.71642
368.98         91.0535
369.43        90.32868
369.88        89.53158
370.33        88.66921
370.78        87.77457
371.23        86.92436
371.68        86.16011
372.13        85.47881
372.58        84.87621
373.03        84.32502
373.48        83.80344
373.93        83.31123
374.38        82.83256
374.83        82.35002
375.28        81.85938
375.72        81.34293
376.17        80.82565
376.62        80.28252
377.07        79.70312
377.52        79.08514
377.97        78.44798
378.42        77.84057
378.87        77.29776
379.32        76.83064
379.77        76.41992
380.22        76.01868
380.67        75.60571
381.11        75.18438
381.56        74.78015
382.01        74.45813
382.46        74.22849
382.91        74.06425
383.36        73.88431
383.81        73.56657
384.26        73.08962
384.71        72.49675
385.15        71.86328
385.60        71.36844
386.05        71.02751
386.50        70.79292
386.95         70.5996
387.40        70.34892
387.85        70.02122
388.29        69.61571
388.74        69.24655
389.19        68.89077
389.64        68.54305
390.09        68.17301
390.54        67.79737
390.98        67.44167
391.43        67.15399
391.88         66.9288
392.33        66.70793
392.78        66.41138
393.23        66.03933
393.67        65.56046
394.12        65.14449
394.57          64.953
395.02        64.96039
395.47        64.94559
395.91        64.85976
396.36        64.75058
396.81        64.61852
397.26        64.43935
397.71        64.20384
398.15         63.9303
398.60        63.69781
399.05        63.34666
399.50        63.02108
399.95        63.07357
400.39        63.41807
400.84        63.68398
401.29        63.69587
401.74        63.16185
402.18        62.25566
402.63        61.74536
403.08        61.68729
403.53        61.45914
403.97        61.07829
404.42        61.02391
404.87        61.20666
405.32        61.27782
405.76        61.18989
406.21        60.97365
406.66         60.6955
407.11        60.65659
407.55        60.80618
408.00        60.62936
408.45        60.17767
408.90        59.90051
409.34        59.85913
409.79        59.93759
410.24        60.04622
410.68        60.04433
411.13        59.90594
411.58        59.71402
412.03        59.52898
412.47        59.43389
412.92        59.43655
413.37        59.52497
413.81        59.63389
414.26        59.71123
414.71        59.72374
415.15        59.70559
415.60        59.65401
416.05         59.6168
416.49        59.60699
416.94        59.59348
417.39        59.57135
417.83        59.52699
418.28        59.45977
418.73        59.38255
419.17        59.27957
419.62        59.13354
420.07        58.94827
420.51        58.72929
420.96        58.55499
421.41        58.47788
421.85        58.47829
422.30        58.63051
422.74        58.82822
423.19        58.86814
423.64        58.77813
424.08        58.93414
424.53        59.24212
424.98        59.35713
425.42        59.27311
425.87        59.10558
426.31         58.9448
426.76        59.05435
427.21         59.4115
427.65         59.5271
428.10        59.29779
428.54        59.71159
428.99         59.4644
429.44        59.52618
429.88         59.4777
430.33        59.33704
430.77        59.12615
431.22        59.15948
431.66        59.40304
432.11        59.60406
432.56        59.77917
433.00        59.86104
433.45        59.60532
433.89        59.57818
434.34         60.0186
434.78        58.38745
435.23        58.55642
435.67        59.55962
436.12         59.6815
436.57        59.89315
437.01        59.44399
437.46         59.3389
437.90        60.27439
438.35        59.42969
438.79         60.0259
439.24        59.82175
439.68        59.76005
440.13        59.57486
440.57        59.35541
441.02        59.63119
441.46        60.20848
441.91        60.12455
442.35        59.52872
442.80        59.80439
443.24        60.72123
443.69        60.82158
444.13         60.1268
444.58        59.74297
445.02        59.75878
445.47        59.92577
445.91        60.14261
446.36        60.25185
446.80        60.21428
447.24        60.12724
447.69         60.0587
448.13        60.20316
448.58        60.35012
449.02        60.34332
449.47        60.14509
449.91        60.02284
450.36        60.00394
450.80        59.85651
451.25        59.64889
451.69        59.63152
452.13        59.77063
452.58        59.75656
453.02        59.56734
453.47        59.43435
453.91        59.35035
454.36        59.18037
454.80        58.96518
455.24        58.86213
455.69        58.89188
456.13        58.97457
456.58        59.06846
457.02        59.14581
457.46        58.82144
457.91        58.88182
458.35        58.46242
458.79        58.34629
459.24        58.31337
459.68         58.3644
460.13        58.48681
460.57        58.41773
461.01        58.13153
461.46        58.27556
461.90        57.96341
462.34        57.67472
462.79        57.65042
463.23        57.64146
463.68        57.72834
464.12        57.59002
464.56        57.29833
465.01        57.42542
465.45        57.76938
465.89        57.74413
466.34           57.44
466.78         57.2242
467.22         57.0671
467.67        57.48805
468.11        56.78605
468.55        56.68853
468.99        56.67291
469.44        56.55445
469.88        56.31775
470.32        56.08506
470.77        55.90329
471.21        55.75548
471.65        55.65611
472.10        55.60851
472.54        55.58882
472.98        55.59585
473.42        55.64372
473.87        55.65655
474.31        55.58831
474.75        55.71532
475.20        56.03614
475.64        55.53376
476.08        55.71223
476.52        55.57021
476.97        55.53198
477.41        55.61157
477.85        55.76024
478.29        55.44483
478.74         55.2694
479.18        55.09697
479.62        55.31133
480.06        55.39037
480.50        55.42075
480.95        55.48951
481.39        55.48842
481.83        55.81614
482.27        55.93523
482.72        55.46755
483.16        55.53574
483.60        55.72493
484.04         55.7492
484.48        55.45641
484.93        55.25771
485.37         55.6179
485.81         55.7496
486.25        55.52859
486.69        57.72394
487.14        57.61431
487.58        56.36865
488.02        55.68196
488.46        55.15782
488.90        54.99456
489.34        54.80279
489.79        54.81745
490.23        55.03347
490.67        55.16017
491.11        55.18872
491.55        55.00408
491.99        54.70087
492.43        54.53036
492.88        54.53873
493.32        54.64408
493.76        54.73317
494.20        54.77383
494.64        54.76399
495.08        54.31499
495.52        54.16415
495.96        54.18961
496.41        54.49202
496.85        54.61016
497.29        54.46416
497.73        54.40617
498.17        54.19588
498.61        54.22986
499.05        54.36459
499.49        54.26367
499.93        53.99873
500.37        53.89412
500.82        53.95683
501.26        54.19619
501.70        54.48703
502.14        54.14402
502.58        53.71928
503.02        53.50954
503.46        53.64175
503.90         53.7846
504.34        53.86123
504.78        53.92749
505.22        53.94636
505.66         53.9276
506.10        53.90215
506.54        53.83352
506.98        53.70591
507.42        53.85173
507.86        53.74031
508.30        53.66698
508.74         53.6931
509.18        53.65441
509.62         53.6059
510.06        53.56361
510.50        53.52015
510.94        53.40197
511.38        53.24984
511.82        53.19267
512.26        53.23967
512.70        53.32877
513.14        53.40522
513.58        53.41813
514.02        53.35347
514.46        53.19522
514.90        52.96194
515.34         52.9311
515.78        52.82456
516.22        52.80433
516.66          52.628
517.10        52.96622
517.54        52.75187
517.98        52.82764
518.42        52.87225
518.86        52.88895
519.30         52.8708
519.74        52.78856
520.18        52.69937
520.62        52.75244
521.06        52.91794
521.50        52.98518
521.93        52.92411
522.37        52.85381
522.81        52.77676
523.25        52.61681
523.69        52.41955
524.13        52.30239
524.57        52.28692
525.01         52.3381
525.45        52.43758
525.89        52.55523
526.32        52.66814
526.76        52.78217
527.20        52.87613
527.64        52.91881
528.08        52.90471
528.52        52.84507
528.96        52.75536
529.40        52.65684
529.83        52.56127
530.27        52.49289
530.71        52.45266
531.15        52.43761
531.59        52.44532
532.03        52.47797
532.46        52.51654
532.90        52.54033
533.34        52.53799
533.78        52.51701
534.22        52.47692
534.66        52.41874
535.09        52.34222
535.53        52.26802
535.97         52.2064
536.41        52.18812
536.85        52.21766
537.28        52.28333
537.72        52.36708
538.16        52.43907
538.60        52.48476
539.04        52.50984
539.47        52.49936
539.91        52.47645
540.35        52.43279
540.79         52.3711
541.22        52.30121
541.66        52.25201
542.10        52.22729
542.54         52.2219
542.97        52.22556
543.41         52.2464
543.85         52.2762
544.29        52.32346
544.72        52.36588
545.16        52.40401
545.60        52.42471
546.04        52.40082
546.47        52.37099
546.91        52.44256
547.35        52.58748
547.79        52.70611
548.22        52.73643
548.66        52.63126
549.10        52.44077
549.53        52.34109
549.97        52.34173
550.41        52.27267
550.84        52.13268
551.28        52.05228
551.72         52.0533
552.15        52.05919
552.59         52.0682
553.03        52.26624
553.46        52.29649
553.90        52.32227
554.34        52.27332
554.77        52.13848
555.21        52.00178
555.65        51.97635
556.08        52.07989
556.52        52.26942
556.96        52.45918
557.39        52.57842
557.83        52.58715
558.27        52.39293
558.70        52.10137
559.14        51.98401
559.57        52.07014
560.01        52.30076
560.45        52.53522
560.88        52.55757
561.32        52.41608
561.75        52.16017
562.19        51.93642
562.63        52.08867
563.06        52.49651
563.50        52.46565
563.93        52.04394
564.37        51.96366
564.80        52.19598
565.24        52.28716
565.68         52.2178
566.11        52.20191
566.55          52.255
566.98        52.30649
567.42         52.3667
567.85        52.35286
568.29        52.32786
568.72        52.42825
569.16        52.68803
569.60        52.79731
570.03        52.96766
570.47        53.13118
570.90        53.34759
571.34        53.39357
571.77        53.39931
572.21        53.71445
572.64        53.58201
573.08        53.16985
573.51        53.04007
573.95        53.57624
574.38        53.91682
574.82        54.49803
575.25        54.10275
575.69        53.70644
576.12        53.58817
576.56        53.55385
576.99        54.00393
577.42        53.84764
577.86        54.14684
578.29        54.54491
578.73        54.92543
579.16        54.78051
579.60        53.80577
580.03        54.06902
580.47        53.85839
580.90        54.11817
581.33         54.2317
581.77        54.62471
582.20        55.10212
582.64        55.49948
583.07        54.95266
583.51        54.39508
583.94        53.64632
584.37         53.1867
584.81        53.11975
585.24        53.44241
585.68        54.19389
586.11         54.5186
586.54        54.21144
586.98        54.09975
587.41        53.46244
587.85        53.81287
588.28        54.19058
588.71        54.22316
589.15        53.84406
589.58        53.52949
590.01        53.24416
590.45        53.19456
590.88        52.95677
591.31        52.74052
591.75        52.55358
592.18        52.63693
592.61        52.98237
593.05        53.49884
593.48        53.75953
593.91        53.85676
594.35        53.89984
594.78        53.51456
595.21        53.20836
595.65        53.15479
596.08        53.38164
596.51        53.57411
596.94        53.26673
597.38        53.12788
597.81        52.99017
598.24         53.3297
598.68        53.30212
599.11        52.78961
599.54        53.23234
599.97        53.48034
600.41        53.57889
600.84        53.46237
601.27        53.58211
601.70        53.54205
602.14        53.20092
602.57        52.94069
603.00        52.94331
603.43        53.46572
603.87        53.65717
604.30        53.64939
604.73        53.65195
605.16        52.98898
605.60        53.18658
606.03        53.18764
606.46        53.30929
606.89        53.47035
607.32        52.88779
607.76        53.37212
608.19        53.19347
608.62        53.20399
609.05        53.71941
609.48         53.0551
609.92        53.02064
610.35        53.04452
610.78        53.41191
611.21        53.07801
611.64        53.18941
612.07        52.94676
612.50        52.90942
612.94        52.84727
613.37        52.82976
613.80        53.08224
614.23        53.18483
614.66        53.12046
615.09        52.96157
615.52        52.83834
615.96        52.80838
616.39         52.7225
616.82        52.59383
617.25        52.48618
617.68        52.44396
618.11         52.4534
618.54        52.61244
618.97        52.64327
619.40         52.5747
619.84        52.33702
620.27        52.19608
620.70        52.18966
621.13        52.33428
621.56        52.32069
621.99         52.1718
622.42         52.1991
622.85        52.36412
623.28        52.47128
623.71        52.42284
624.14        52.47674
624.57        52.53479
625.00        52.80359
625.43        52.41439
625.86        52.41871
626.29        52.60631
626.72        52.18309
627.15        52.35985
627.58        52.25621
628.01        52.23389
628.44        52.20151
628.87        51.69651
629.30        52.07459
629.73        51.79892
630.16        51.65424
630.59        51.58156
631.02        51.83069
631.45        51.73766
631.88         51.8351
632.31         51.9164
632.74        51.73722
633.17        51.82193
633.60        51.72754
634.03        51.62438
634.46        51.54477
634.89        51.43715
635.32        51.41661
635.75        51.45977
636.18        51.55602
636.61        51.66494
637.04        51.73018
637.47        51.73147
637.89        51.67266
638.32        51.57535
638.75        51.51619
639.18         51.5126
639.61        51.53724
640.04        51.57315
640.47        51.59906
640.90        51.60606
641.33        51.60229
641.76        51.59512
642.18        51.60019
642.61        51.60878
643.04        51.62095
643.47        51.63002
643.90        51.63154
644.33         51.6254
644.76        51.60126
645.18        51.56832
645.61        51.56988
646.04        51.59221
646.47        51.55337
646.90        51.47441
647.33        51.45531
647.75        51.49956
648.18        51.58523
648.61        51.68618
649.04        51.71898
649.47        51.66197
649.89        51.78509
650.32        51.57362
650.75        51.69107
651.18        51.90847
651.61        51.89592
652.03        51.66408
652.46        51.52592
652.89         51.5842
653.32        51.67328
653.74        51.71463
654.17        52.12524
654.60        51.53227
655.03        51.35308
655.46        51.53321
655.88        52.15625
656.31        53.66502
656.74         59.8499
657.16        59.13956
657.59        57.17935
658.02        53.77427
658.45        52.59742
658.87        52.05444
659.30        51.99541
659.73        51.95593
660.15        51.12444
660.58        51.81523
661.01        51.97989
661.44        52.15696
661.86         52.1847
662.29        52.04073
662.72        51.70449
663.14        51.31577
663.57        51.33629
664.00        51.70383
664.42        51.86159
664.85        51.77921
665.27        51.68775
665.70        51.77525
666.13        51.79398
666.55        51.79935
666.98        51.80423
667.41        51.79689
667.83        51.77295
668.26        51.74138
668.69        51.65378
669.11        51.53008
669.54        51.58673
669.96          51.872
670.39        51.64285
670.82        52.09087
671.24        52.10782
671.67        52.04497
672.09        51.94902
672.52         51.8819
672.94        51.82621
673.37        51.79656
673.80        51.81415
674.22        51.87177
674.65        51.90771
675.07        51.92725
675.50        51.93705
675.92        51.95044
676.35        51.97161
676.77        51.99759
677.20        52.04307
677.62        52.11605
678.05        52.13185
678.47        52.07348
678.90        52.29893
679.32        52.19678
679.75        52.25285
680.17        52.27945
680.60        52.28676
681.02        52.28996
681.45        52.29169
681.87        52.29498
682.30        52.37479
682.72        52.49862
683.15        52.36265
683.57        52.03172
684.00         52.1594
684.42        52.28112
684.85        52.38707
685.27        52.32315
685.70        52.32031
686.12        52.37246
686.54        52.40652
686.97        52.42392
687.39        52.44688
687.82        52.45242
688.24        52.45197
688.66        52.44279
689.09        52.34068
689.51        52.30086
689.94        52.32012
690.36        52.42627
690.78        52.52684
691.21        52.59759
691.63        52.59776
692.06        52.55243
692.48        52.56596
692.90        52.62632
693.33        52.62135
693.75        52.55931
694.17        52.47009
694.60        52.37046
695.02        52.44234
695.44        52.45213
695.87         52.4584
696.29        52.43457
696.71        52.44993
697.14         52.5258
697.56        52.80905
697.98        53.21807
698.41        53.20943
698.83        53.28998
699.25        53.14706
699.68        52.97893
700.10        52.80732
700.52        52.66583
700.94        52.54792
701.37        52.45434
701.79        52.43638
702.21        52.47766
702.64        52.57321
703.06        52.68943
703.48        52.77348
703.90        52.81389
704.33        52.82323
704.75         52.8075
705.17        52.76302
705.59        52.69629
706.01        52.60161
706.44        52.53431
706.86        52.58086
707.28        52.73813
707.70        53.03388
708.12        53.36385
708.55        53.43375
708.97        53.26648
709.39        53.20155
709.81        53.27429
710.23         53.2829
710.66        53.24189
711.08        53.31035
711.50        53.44004
711.92        53.48861
712.34        53.44032
712.76        53.33423
713.19         53.2211
713.61        53.22343
714.03        53.34024
714.45          53.541
714.87        53.74585
715.29        53.79858
715.71        53.66693
716.13        53.53914
716.56         53.2271
716.98        53.09541
717.40        53.09988
717.82        53.20787
718.24        53.37098
718.66        53.51239
719.08        53.60409
719.50        53.66403
719.92        53.70519
720.34        53.74612
720.76        53.79094
721.19        53.81855
721.61        53.83358
722.03        53.82341
722.45        53.79144
722.87        53.75341
723.29         53.7215
723.71        53.71103
724.13        53.72958
724.55        53.76925
724.97        53.84312
725.39        53.97183
725.81        54.14682
726.23        54.35101
726.65        54.53241
727.07        54.61807
727.49        54.59552
727.91        54.47319
728.33        54.30337
728.75        54.21785
729.17        54.23068
729.59        54.22755
730.01        54.21494
730.43         54.2876
730.85        54.43751
731.27         54.5816
731.69         54.7031
732.10        54.78693
732.52        54.97678
732.94        54.85476
733.36        54.52976
733.78        54.36673
734.20        54.42243
734.62        54.29004
735.04        54.36668
735.46        54.39547
735.88        54.49419
736.30        54.62203
736.72        54.73226
737.13        54.83747
737.55        54.85975
737.97        54.60812
738.39        54.22656
738.81        54.24567
739.23        54.64475
739.65        54.89034
740.06        54.86111
740.48        54.87049
740.90        54.87281
741.32        54.66019
741.74        54.35561
742.16         54.2007
742.57        54.26951
742.99        54.47339
743.41        54.71322
743.83        54.81489
744.25        54.73541
744.67         54.5244
745.08        54.31073
745.50        54.26702
745.92        54.44693
746.34        54.79219
746.75         55.1496
747.17         55.2733
747.59        55.11336
748.01        54.72181
748.42        54.28462
748.84        54.12409
749.26        54.28042
749.68        54.61242
750.09        54.96517
750.51        55.03131
750.93        54.84272
751.35        54.81695
751.76        54.97134
752.18        54.99548
752.60        54.89607
753.01        54.88748
753.43        54.93136
753.85        54.90594
754.27        54.80482
754.68        54.67076
755.10        54.55522
755.52        54.50851
755.93        54.54512
756.35        54.65566
756.77        54.80732
757.18         54.9093
757.60        54.93316
758.02        54.94498
758.43        55.02072
758.85        54.81927
759.26        55.24358
759.68        55.26642
760.10        55.13953
760.51        54.80143
760.93        54.98882
761.34          55.007
761.76        55.03697
762.18        55.24972
762.59         55.5522
763.01        55.30837
763.42        54.67029
763.84        54.67786
764.26        54.94054
764.67        55.33616
765.09        55.60681
765.50        55.86118
765.92        56.00474
766.33        55.71019
766.75        55.09536
767.16        54.78504
767.58        54.82281
768.00        54.99564
768.41        55.24718
768.83        55.29757
769.24         55.0981
769.66        55.51349
770.07        55.40173
770.49        55.38633
770.90        55.19652
771.32        55.19264
771.73        55.33584
772.15         55.3421
772.56        55.22568
772.97         55.0731
773.39        54.90919
773.80        55.05477
774.22         55.1032
774.63        55.19009
775.05        55.17784
775.46        55.21811
775.88        55.28689
776.29        55.31455
776.70        55.28679
777.12        55.23558
777.53        55.18307
777.95        55.11538
778.36        55.05478
778.77        55.03621
779.19        55.07242
779.60        55.16187
780.02        55.28815
780.43        55.47483
780.84        55.71873
781.26         55.8829
781.67         55.9835
782.09        56.27711
782.50        56.60486
782.91        56.36868
783.33        55.70169
783.74        55.44658
784.15        55.66558
784.57        55.98766
784.98        56.26845
785.39        56.29182
785.81        56.06762
786.22        55.90981
786.63        55.89139
787.04        55.88021
787.46        55.91003
787.87        56.07813
788.28        56.30977
788.70        56.40775
789.11        56.32476
789.52        56.12967
789.93        55.92144
790.35          55.845
790.76        55.95226
791.17        56.20754
791.58        56.49529
792.00        56.62694
792.41        56.58601
792.82        56.37524
793.23        56.17134
793.65        56.29444
794.06        56.74919
794.47        57.31733
794.88        57.83937
795.29        57.82658
795.71        58.00712
796.12        57.69606
796.53        57.23246
796.94        56.98779
797.35        56.99848
797.76        56.92553
798.18        56.74278
798.59        56.65545
799.00        56.65213
799.41        56.62195
799.82        56.55071
800.23        56.47614
800.64        56.39933
801.06        56.28429
801.47        56.19647
801.88        56.18344
802.29        56.25724
802.70        56.40497
803.11        56.58457
803.52        56.71857
803.93        56.78644
804.34        56.80864
804.75         56.8232
805.17        56.89592
805.58         57.0649
805.99        57.25834
806.40        57.44707
806.81        57.65175
807.22        57.81488
807.63        57.79952
808.04         57.6517
808.45        57.58413
808.86        57.62229
809.27        57.64987
809.68        57.64931
810.09        57.63614
810.50          57.606
810.91        57.57402
811.32        57.52403
811.73        57.42384
812.14        57.27545
812.55         57.0826
812.96        56.92598
813.37         56.9411
813.78        57.14624
814.19        57.49551
814.60        57.84838
815.01        57.98981
815.42        57.87227
815.83        57.54838
816.24        57.15252
816.65        56.94229
817.05         57.0112
817.46        57.26769
817.87        57.60246
818.28        57.81067
818.69        57.84107
819.10        57.75204
819.51        57.64533
819.92        57.69476
820.33        57.93728
820.74        58.29306
821.14        58.63705
821.55        58.80929
821.96        58.75786
822.37        58.53893
822.78        58.23141
823.19        57.97347
823.60        57.82342
824.00        57.76123
824.41         57.7396
824.82        57.72659
825.23        57.70721
825.64        57.70958
826.04        57.75121
826.45        57.81578
826.86        57.91193
827.27        58.02932
827.68        58.16371
828.08        58.33274
828.49        58.46273
828.90        58.59472
829.31         58.7336
829.72        58.76965
830.12         58.6929
830.53        58.98704
830.94        58.76423
831.35        58.68034
831.75        58.49504
832.16        58.22733
832.57        57.99542
832.97        57.99467
833.38        58.25056
833.79        58.68113
834.20        59.14244
834.60        59.41828
835.01        59.45438
835.42        59.32264
835.82         59.0987
836.23        58.88071
836.64          58.735
837.04        58.63686
837.45        58.59507
837.86        58.67843
838.26         58.8886
838.67         59.1951
839.08        59.50718
839.48        59.65469
839.89        59.59694
840.29        59.38642
840.70        59.12013
841.11           58.96
841.51        58.97104
841.92        59.07055
842.33         59.2398
842.73        59.44205
843.14        59.60632
843.54        59.77624
843.95        59.89265
844.35        59.87691
844.76         59.7161
845.17        59.43273
845.57        59.13821
845.98        58.98987
846.38        59.05735
846.79        59.28444
847.19        59.59304
847.60        59.77689
848.00        59.81134
848.41         59.7103
848.81        59.61116
849.22        59.68835
849.62        60.01048
850.03        60.47676
850.43        60.94677
850.84        61.10976
851.24         60.9496
851.65        60.48954
852.05        59.97701
852.46        59.77362
852.86         59.9739
853.27        60.48703
853.67        60.99995
854.07        61.20399
854.48        61.01125
854.88        60.54263
855.29         59.9664
855.69        59.73433
856.10        59.89515
856.50          60.401
856.90        60.97113
857.31        61.18144
857.71        60.96419
858.12        60.39972
858.52        59.72597
858.92        59.28901
859.33        59.19543
859.73        59.39562
860.13        59.72128
860.54        59.89365
860.94        59.88798
861.34        59.74276
861.75        59.58345
862.15        59.68229
862.55          60.048
862.96        60.56233
863.36         61.0381
863.76        61.13785
864.17        60.78814
864.57        60.13016
864.97        59.34737
865.38        58.73458
865.78        58.43717
866.18        58.37386
866.58        58.53496
866.99        58.84699
867.39        59.27533
867.79        59.82811
868.19        60.36119
868.60        60.56511
869.00         60.4788
869.40        60.35073
869.80        60.23141
870.21        60.00549
870.61        59.76712
871.01        59.64989
871.41        59.57188
871.81        59.30359
872.22        58.84747
872.62        58.26405
873.02        57.75092
873.42        57.85843
873.82         58.4408
874.22         58.7833
874.63        58.93065
875.03        59.05787
875.43        59.12694
875.83        60.07604
876.23        59.02102
876.63        58.07373
877.03        57.03133
877.44        55.16046
877.84        178.8095
878.24        57.12477
878.64        57.69986
879.04        58.81379
879.44        58.77564
879.84        54.62321
880.24        60.75449
880.64         61.5136
881.04        59.43508
881.44        57.85975
881.84        57.25882
882.24        57.80732
882.65        58.93774
883.05        59.25132
883.45        58.48753
883.85        57.56773
884.25        56.84716
884.65        56.43716
885.05        56.44536
885.45        56.76915
885.85        57.22009
886.25         57.5499
886.65        57.68626
887.05        57.71726
887.45        57.66365
887.85        57.55982
888.25        57.43833
888.65        57.25867
889.04        57.13389
889.44        57.27446
889.84        57.67939
890.24         58.2629
890.64        58.80048
891.04        58.95547
891.44        58.68037
891.84        58.10859
892.24        57.42018
892.64         56.9343
893.04        56.77212
893.44        56.83626
893.83        57.11874
894.23         57.5665
894.63        58.13972
895.03        58.85807
895.43        59.55062
895.83        59.92234
896.23        59.91787
896.63        59.60026
897.02         59.1965
897.42        59.12164
897.82         59.4152
898.22        59.93584
898.62        60.45085
899.01        60.58548
899.41        60.22721
899.81        59.54227
900.21        58.68089
900.61        57.88035
901.00        57.24726
901.40        56.80543
901.80        56.61901
902.20        56.60798
902.59         56.7236
902.99        57.30255
903.39        58.35509
903.79        57.94426
904.18        59.07177
904.58        59.27334
904.98         59.3788
905.38        59.21803
905.77        58.80333
906.17        58.18641
906.57        57.52155
906.96        57.17765
907.36        57.23767
907.76         57.6384
908.15        58.20167
908.55        58.47013
908.95        58.37111
909.34          57.974
909.74        57.53665
910.14        57.42929
910.53        57.73092
910.93        58.30653
911.33        58.85752
911.72        58.91923
912.12        58.41534
912.52        57.51919
912.91        56.55927
913.31        56.12403
913.70        56.32494
914.10         56.9873
914.49        57.83158
914.89        58.30777
915.29        58.27657
915.68        57.88303
916.08        57.37683
916.47         57.1016
916.87        57.18425
917.26        57.49909
917.66        57.88298
918.05        58.10428
918.45        58.07955
918.84          57.904
919.24        57.70386
919.64        57.72845
920.03        58.03181
920.42         58.5049
920.82        58.96579
921.21        59.15031
921.61        59.02894
922.00        58.75874
922.40        58.56285
922.79        58.63497
923.19        58.59508
923.58         59.3659
923.98        61.24642
924.37        61.24568
924.77        57.72187
925.16        66.69923
925.55        59.22081
925.95        59.53244
926.34        59.39528
926.74        58.58235
927.13        57.06371
927.52        56.22124
927.92        56.62006
928.31        57.48877
928.70        58.57668
929.10        59.44468
929.49        59.99314
929.89        60.35643
930.28        60.49852
930.67        60.27083
931.07        59.71642
931.46        58.75875
931.85        57.74133
932.24        57.76196
932.64        58.98288
933.03        60.41282
933.42        61.13983
933.82         63.7673
934.21        61.89201
934.60        60.50915
934.99        59.14098
935.39        58.88985
935.78        59.75276
936.17        62.17346
936.56        69.56981
936.96        61.26265
937.35        65.40601
937.74        61.11412
938.13         57.8656
938.53        55.40277
938.92        54.72716
939.31        56.37793
939.70        58.73653
940.09        60.18789
940.49        60.35404
940.88        59.79584
941.27        58.89408
941.66        58.33948
942.05        58.41788
942.44        58.81517
942.84        59.26281
943.23        59.53493
943.62        59.54071
944.01        59.39142
944.40        59.29814
944.79        59.56664
945.18        60.24025
945.57        61.18287
945.97        62.03807
946.36        62.38538
946.75        62.08213
947.14         61.2543
947.53        60.24115
947.92        59.64162
948.31        59.63328
948.70        60.04849
949.09        60.57143
949.48        60.70127
949.87         60.3279
950.26          59.638
950.65        58.88105
951.04        58.44995
951.43        58.46216
951.82          58.773
952.21        59.23676
952.60        59.61674
952.99        59.80087
953.38        59.85025
953.77        59.79207
954.16        59.65188
954.55        59.46525
954.94        59.24973
955.33        59.01251
955.72        58.79179
956.11        58.62137
956.50        58.48111
956.89        58.51423
957.28        58.92515
957.66        59.73611
958.05        60.79404
958.44          61.751
958.83        62.08271
959.22        61.68391
959.61        60.64756
960.00         59.3899
960.39        58.73747
960.78        58.94913
961.16        59.83208
961.55         60.7724
961.94         61.0296
962.33        60.46447
962.72        59.27662
963.11        57.95696
963.49        57.49823
963.88        58.19906
964.27        59.66849
964.66        61.23889
965.04        62.02552
965.43        61.78989
965.82        60.85493
966.21        59.61972
966.60        58.78837
966.98        58.61874
967.37        58.90026
967.76        59.41582
968.15        59.81479
968.53        59.99239
968.92        60.06153
969.31        60.11303
969.69        60.25571
970.08        60.49827
970.47        60.76464
970.86        61.02333
971.24        61.26061
971.63        61.43684
972.02        61.56303
972.40        61.63524
972.79          61.541
973.17        61.33793
973.56        61.08972
973.95        60.86938
974.33        60.80454
974.72        60.92667
975.11        61.14574
975.49         61.5758
975.88        62.32233
976.26         63.4064
976.65        64.68981
977.04        65.77917
977.42        66.06527
977.81        65.40215
978.19        63.87304
978.58        62.21878
978.96        61.78485
979.35        62.86942
979.74        64.93964
980.12        67.07101
980.51        67.92898
980.89        67.44169
981.28        65.87962
981.66         63.7766
982.05        62.51105
982.43        62.63258
982.82        63.79515
983.20        65.35611
983.59        66.32119
983.97        66.45238
984.35        65.98745
984.74        65.23048
985.12        64.77707
985.51        64.78091
985.89        65.12525
986.28        65.45251
986.66        65.33552
987.04        64.76229
987.43        63.78949
987.81        62.57685
988.20        63.17355
988.58        65.88452
988.96         67.2139
989.35        66.09361
989.73        73.13072
990.12        69.49127
990.50        69.59715
990.88        68.69026
991.27        67.83891
991.65        67.15305
992.03        66.71729
992.42        66.64584
992.80        66.46812
993.18        66.11518
993.56        65.77161
993.95        65.53162
994.33        65.45403
994.71        65.58142
995.10        65.88001
995.48        66.25426
995.86        66.56416
996.24        66.76585
996.63        66.77888
997.01        66.89027
997.39        67.36356
997.77        68.18544
998.15         69.2309
998.54        70.15163
998.92        70.28944
999.30        69.54253
999.68        68.09572
1000.06        66.35316
1000.45        65.14441
1000.83        64.94364
1001.21        65.53806
1001.59        66.69695
1001.97        68.01971
1002.35        69.26138
1002.73        70.42075
1003.12        71.40509
1003.50        72.18575
1003.88          72.758
1004.26         73.1306
1004.64        73.22315
1005.02        72.92249
1005.40        72.22209
1005.78        71.16609
1006.16        70.07191
1006.54        69.42586
1006.92        69.37123
1007.30        69.87447
1007.69        70.52796
1008.07        70.78657
1008.45        70.52002
1008.83        69.87499
1009.21        69.33375
1009.59        69.85926
1009.97        71.51794
1010.35        73.63279
1010.73        75.59005
1011.11        77.07944
1011.49        78.21163
1011.86        78.90038
1012.24        78.80707
1012.62        80.10075
1013.00        80.10703
1013.38        78.77898
1013.76        75.08336
1014.14        78.69623
1014.52        85.28885
1014.90        77.89363
1015.28        80.17267
1015.66        82.14174
1016.04        78.69305
1016.41        78.45145
1016.79        76.93929
1017.17        76.19645
1017.55        75.76865
1017.93        75.71509
1018.31        76.30504
1018.69         77.3669
1019.06        78.78223
1019.44        80.44389
1019.82        81.70022
1020.20        81.63446
1020.58        80.05301
1020.95        76.78693
1021.33        72.57782
1021.71        70.15805
1022.09        71.04153
1022.46        74.08156
1022.84        77.34008
1023.22        79.36031
1023.60        80.16324
1023.97        80.28819
1024.35        80.07652
1024.73        80.10381
