SpectraSmart Spectrum 2.9.0.0
--------- Device Information -----------
Spectrum Name :  反射率_0
Saving Time :  2024/04/21 00:40:04
Spectro-Module Model Name : SE2030-DUVN
Spectro-Module Serial Number : OS361AC55029948
Wavelength Start : 200
Wavelength End : 1025
Wavelength Unit : Wavelength(nm)
Spectrum Unit : Reflectance(%)
-----------Spectrum Setting ------------
Integration Time : 20ms
Average : 10
Boxcar : 0
Background removal :  enabled
linearity correction :  enabled
SC :  disabled
Intensity correction :  disabled
DWT denoise :  enabled
savitzky-golay :  disabled
FFT :  disabled
Running average :  disabled
Kalman :  disabled
High pass :  disabled
---------------BEGIN--------------------
Wavelength(nm)             Reflectance(%)
200.29               0
200.75        4.275392
201.21         10.0294
201.67        8.616154
202.13        3.434094
202.58        -4.98357
203.04       -17.27036
203.50       -29.96684
203.96       -32.46455
204.42       -21.34628
204.88        -1.70626
205.34        18.22073
205.80        27.58186
206.26        23.88888
206.72        9.719895
207.18       -14.28073
207.64       -41.69887
208.10       -63.47488
208.55        -80.5921
209.01       -74.64717
209.47       -34.03415
209.93        8.632998
210.39        40.05015
210.85        58.64608
211.31         64.9919
211.77        62.00672
212.23           49.37
212.69        22.10169
213.14       -22.43684
213.60       -87.82948
214.06       -243.2277
214.52       -516.8215
214.98       -175.3533
215.44        -17.9258
215.90        29.49191
216.36        42.45425
216.81        38.17819
217.27        14.85082
217.73       -92.99371
218.19        1191.898
218.65        509.9067
219.11       -1107.414
219.57       -44.27441
220.02        24.16181
220.48        38.40559
220.94        36.47238
221.40        19.97988
221.86       -22.71657
222.32       -51.88235
222.77       -14.53412
223.23        18.30215
223.69        34.40895
224.15        38.75776
224.61        36.64985
225.06        31.43921
225.52        24.44657
225.98        17.40998
226.44        11.51465
226.90         5.25966
227.36        1.879213
227.81        6.787012
228.27        16.26059
228.73        25.89841
229.19        31.97896
229.65        32.44394
230.10        28.09683
230.56        20.36464
231.02        10.40763
231.48         3.31987
231.93        3.093021
232.39        7.967633
232.85        13.91767
233.31        17.37328
233.77        18.39361
234.22        18.52102
234.68         17.8396
235.14        16.41471
235.60        14.70907
236.05        11.74934
236.51        7.836458
236.97        10.70702
237.43        21.34733
237.88        27.45436
238.34         23.8007
238.80         49.9598
239.26        36.09247
239.71        33.74795
240.17        24.44136
240.63        15.47739
241.08        11.50816
241.54        16.39783
242.00         29.6379
242.46        38.63169
242.91        40.47704
243.37         36.3231
243.83        27.91834
244.28         23.4776
244.74        27.56017
245.20         34.8819
245.66        40.92851
246.11        41.61768
246.57        36.44794
247.03        27.68761
247.48        14.89817
247.94        -3.85569
248.40       -35.91539
248.85       -116.9692
249.31       -374.0405
249.77       -602.1509
250.22        -216.728
250.68       -48.97719
251.14        5.048497
251.59        17.65813
252.05        11.58537
252.51       -7.832532
252.96       -39.54327
253.42       -65.69252
253.88       -68.50507
254.33       -53.75522
254.79       -30.75083
255.25       -9.678837
255.70        5.434535
256.16        15.75118
256.62        22.71272
257.07        27.31097
257.53        30.50089
257.99        32.68404
258.44        33.63321
258.90        33.58326
259.35        32.58739
259.81         31.2367
260.27        30.06401
260.72        29.66971
261.18        30.04165
261.63        30.66447
262.09        31.07699
262.55        30.64996
263.00        29.45685
263.46        27.96009
263.91        26.52106
264.37        25.85817
264.83        25.93785
265.28        26.40857
265.74        26.97351
266.19         27.1744
266.65        26.95392
267.11         26.4462
267.56        25.72477
268.02        24.95459
268.47        24.17404
268.93        23.37274
269.38        22.56747
269.84        21.84229
270.30        21.20949
270.75         20.6656
271.21        20.22297
271.66        19.83056
272.12        19.48108
272.57         19.1668
273.03        18.84969
273.48        18.46573
273.94        18.01781
274.39        17.50306
274.85        16.99745
275.31        16.57171
275.76        16.23868
276.22        15.99818
276.67        15.79461
277.13        15.58649
277.58        15.34278
278.04        15.08519
278.49        14.82462
278.95        14.61549
279.40        14.43375
279.86        14.27322
280.31        14.06839
280.77        13.77467
281.22         13.3794
281.68        12.96146
282.13        12.54489
282.59         12.2099
283.04        11.95845
283.50        11.75651
283.95        11.63654
284.41        11.65338
284.86        11.78631
285.32        12.01186
285.77        12.17776
286.22        12.05416
286.68        11.64482
287.13        11.01702
287.59         10.4184
288.04        10.13275
288.50        10.18002
288.95        10.61243
289.41         11.2839
289.86        11.43567
290.32        10.90259
290.77        11.98896
291.22        10.98573
291.68        11.05127
292.13        11.11224
292.59        11.22339
293.04        11.35832
293.50        11.56378
293.95        11.86395
294.40        12.22297
294.86         12.6186
295.31        13.00214
295.77        13.35774
296.22        13.69541
296.68         14.0254
297.13        14.36364
297.58        14.72481
298.04        15.10661
298.49        15.52822
298.95        16.03432
299.40         16.6197
299.85        17.27605
300.31        17.94382
300.76        18.53376
301.21        19.02478
301.67        19.44753
302.12        19.86177
302.58        20.40585
303.03        21.09373
303.48        21.92344
303.94        22.79804
304.39        23.55076
304.84        24.16491
305.30        24.70996
305.75        25.32109
306.20        26.24711
306.66        27.50171
307.11        28.97079
307.57         30.4679
308.02         31.7131
308.47        32.64336
308.93         33.3973
309.38        34.07964
309.83         34.7803
310.29        35.76895
310.74        36.81779
311.19        37.94287
311.65        39.06408
312.10        40.15177
312.55        41.23869
313.00        42.35588
313.46         43.5433
313.91         44.7921
314.36        46.07755
314.82        47.34931
315.27         48.5538
315.72         49.6773
316.18        50.73417
316.63        51.76549
317.08        52.84291
317.53        53.97496
317.99        55.13381
318.44        56.25539
318.89        57.23083
319.35        58.04013
319.80        58.71945
320.25         59.3475
320.70        60.05479
321.16        60.86418
321.61        61.74342
322.06        62.62063
322.51        63.38622
322.97        64.00518
323.42        64.53919
323.87        65.01976
324.32        65.50754
324.78        66.01225
325.23        66.53417
325.68        67.06588
326.13        67.61893
326.59        68.17316
327.04        68.76383
327.49        69.34004
327.94        69.83512
328.39        70.23381
328.85        70.53221
329.30        70.81516
329.75         71.1434
330.20        71.53999
330.66        71.96044
331.11        72.42019
331.56        72.84841
332.01         73.2345
332.46        73.60992
332.92        73.94973
333.37        74.30801
333.82        74.66344
334.27        75.00264
334.72        75.38322
335.17        75.90415
335.63        76.55379
336.08        77.34927
336.53        78.14312
336.98        78.72055
337.43        79.03422
337.88        79.14397
338.34        79.19121
338.79        79.45535
339.24        79.98875
339.69        80.70191
340.14        81.46505
340.59         82.0787
341.05        82.49097
341.50        82.77807
341.95        82.99273
342.40        83.22142
342.85        83.50269
343.30        83.80367
343.75        84.13509
344.20        84.52406
344.66        84.97175
345.11        85.45907
345.56        85.94199
346.01        86.33627
346.46        86.62075
346.91        86.83586
347.36        87.01577
347.81        87.17937
348.26        87.34219
348.72        87.65241
349.17        87.82577
349.62        88.10702
350.07        88.40881
350.52        88.72613
350.97        89.00171
351.42        89.14435
351.87         89.1375
352.32        89.01157
352.77        88.82358
353.22        88.66183
353.67        88.55983
354.13        88.51512
354.58        88.49393
355.03        88.48794
355.48        88.48176
355.93        88.46784
356.38        88.44626
356.83        88.41534
357.28        88.36238
357.73        88.27975
358.18        88.11395
358.63        87.78876
359.08        87.30561
359.53        86.70202
359.98        86.07909
360.43        85.58753
360.88        85.25766
361.33        85.04569
361.78          84.869
362.23        84.59007
362.68        84.17536
363.13        83.67508
363.58        83.13641
364.03        82.63286
364.48        82.18788
364.93        81.76888
365.38        81.37612
365.83        81.01638
366.28        80.67967
366.73        80.36481
367.18        80.03089
367.63        79.60957
368.08        79.09313
368.53        78.50813
368.98        77.90053
369.43        77.33738
369.88        76.83631
370.33        76.37832
370.78        75.95138
371.23        75.54152
371.68        75.14576
372.13        74.77217
372.58        74.41905
373.03        74.07351
373.48        73.72557
373.93        73.37189
374.38        73.00441
374.83         72.6196
375.28        72.22704
375.72        71.82479
376.17        71.44971
376.62        71.10393
377.07         70.7804
377.52        70.46281
377.97        70.15194
378.42        69.85744
378.87         69.5844
379.32        69.34052
379.77        69.08824
380.22        68.76415
380.67        68.35527
381.11        67.87521
381.56         67.3911
382.01        67.03407
382.46        66.83846
382.91        66.77155
383.36        66.72659
383.81        66.53564
384.26        66.16609
384.71        65.67139
385.15        65.15234
385.60          64.825
386.05        64.70629
386.50        64.72631
386.95        64.77242
387.40        64.67341
387.85        64.39515
388.29        63.96949
388.74        63.55717
389.19        63.21156
389.64        62.95246
390.09        62.74453
390.54        62.57241
390.98        62.40474
391.43          62.267
391.88        62.15862
392.33        62.07294
392.78        62.00415
393.23        61.94622
393.67        61.83666
394.12        61.74389
394.57        61.68266
395.02        61.62063
395.47        61.42457
395.91        61.13647
396.36        60.92094
396.81        60.81828
397.26        60.77356
397.71        60.72766
398.15        60.60811
398.60        60.46587
399.05        60.19724
399.50        59.93029
399.95        59.96124
400.39        60.22643
400.84        60.42277
401.29        60.43064
401.74        60.00492
402.18         59.3196
402.63        59.11531
403.08        59.36651
403.53        59.31775
403.97        58.94918
404.42        58.77433
404.87        58.79488
405.32        58.79638
405.76         58.7585
406.21        58.71451
406.66        58.67015
407.11        58.68172
407.55        58.72275
408.00         58.6869
408.45        58.56898
408.90        58.25129
409.34        57.86585
409.79        57.90096
410.24        58.25599
410.68        58.36231
411.13        58.18858
411.58        58.05473
412.03        58.02977
412.47         58.0907
412.92        58.22814
413.37        58.44463
413.81        58.65772
414.26        58.79733
414.71        58.82921
415.15        58.78846
415.60        58.68311
416.05        58.58464
416.49        58.52232
416.94         58.4705
417.39        58.43167
417.83        58.40147
418.28        58.37779
418.73        58.36316
419.17        58.34673
419.62        58.31623
420.07        58.26821
420.51        58.20552
420.96        58.15439
421.41        58.10481
421.85        58.03824
422.30        58.01523
422.74        58.02432
423.19        58.08947
423.64        58.22002
424.08        58.54176
424.53        58.91324
424.98        59.10108
425.42        59.07574
425.87        58.88427
426.31        58.66048
426.76        58.64862
427.21        58.85376
427.65        59.07993
428.10        59.22151
428.54        59.29059
428.99        59.30064
429.44         59.2681
429.88        59.18206
430.33        59.03941
430.77        58.86699
431.22        58.88885
431.66        59.08968
432.11        59.37706
432.56        59.70255
433.00        59.86996
433.45         59.6739
433.89        59.47774
434.34        59.55132
434.78        58.63879
435.23        59.17992
435.67         59.8821
436.12        60.34832
436.57        60.38295
437.01        59.88237
437.46        59.59716
437.90        60.19519
438.35        60.31515
438.79        60.44097
439.24        60.46612
439.68        60.50616
440.13        60.43158
440.57        60.29058
441.02        60.41953
441.46        60.72549
441.91        60.67133
442.35        60.33116
442.80        60.55106
443.24        61.17763
443.69         61.3694
444.13        61.09337
444.58         60.9038
445.02        60.86971
445.47        61.01629
445.91        61.25304
446.36        61.32568
446.80        61.20578
447.24        61.02242
447.69        60.87746
448.13        61.00676
448.58         61.2121
449.02        61.35029
449.47        61.32899
449.91        61.30259
450.36        61.27904
450.80        61.06979
451.25         60.7804
451.69        60.71708
452.13        60.86041
452.58        60.86911
453.02        60.72007
453.47        60.65041
453.91        60.64937
454.36        60.58657
454.80        60.45572
455.24        60.36675
455.69        60.35473
456.13        60.25552
456.58        60.11207
457.02         60.2944
457.46        60.39942
457.91        60.27854
458.35        60.00692
458.79        59.90291
459.24        60.03706
459.68        60.15678
460.13         60.2236
460.57        60.18799
461.01        60.06228
461.46        59.65328
461.90        59.62504
462.34         59.1592
462.79        59.36888
463.23        59.37422
463.68        59.92273
464.12        59.77108
464.56         59.2184
465.01        59.30958
465.45         59.8663
465.89        59.82752
466.34        59.25779
466.78          59.115
467.22        59.46944
467.67        58.96678
468.11        58.99357
468.55        58.82692
468.99        58.86327
469.44        58.81654
469.88        58.68554
470.32        58.55445
470.77        58.44132
471.21        58.37735
471.65        58.36754
472.10        58.40498
472.54        58.44326
472.98        58.43392
473.42        58.37053
473.87        58.26837
474.31        58.13774
474.75        58.12009
475.20        58.18805
475.64        58.18808
476.08        58.13475
476.52        58.08995
476.97        58.02484
477.41        58.10701
477.85        58.30861
478.29        57.80521
478.74         57.6544
479.18        57.62022
479.62        58.03239
480.06        58.19561
480.50        58.13685
480.95        58.09794
481.39        58.03413
481.83         58.2519
482.27        58.27985
482.72        57.94438
483.16        58.18144
483.60        57.98967
484.04         58.2452
484.48        57.96436
484.93        57.97498
485.37        57.72972
485.81        58.01318
486.25        57.56753
486.69        58.45852
487.14        58.72982
487.58        58.47731
488.02        58.25186
488.46        57.82722
488.90        57.68727
489.34        57.87404
489.79        57.71466
490.23        57.99333
490.67        57.93802
491.11        57.81384
491.55        57.67982
491.99        57.59862
492.43        57.55912
492.88        57.57161
493.32        57.69873
493.76        57.82654
494.20        57.87341
494.64        57.84262
495.08        57.34824
495.52        57.11588
495.96        57.17365
496.41        57.58632
496.85        57.72569
497.29        57.52193
497.73        57.46635
498.17        57.30547
498.61         57.4333
499.05        57.65356
499.49         57.4736
499.93         57.0191
500.37         56.8756
500.82        57.05771
501.26        57.39846
501.70        57.74491
502.14        57.43896
502.58        57.05178
503.02        56.86032
503.46        56.99371
503.90         57.0969
504.34        57.09632
504.78        57.08733
505.22        57.05358
505.66        56.96451
506.10        56.86939
506.54        56.83789
506.98        56.87512
507.42        56.91209
507.86        57.19696
508.30        56.99781
508.74        57.16405
509.18        57.06175
509.62        56.95135
510.06        56.88253
510.50         56.8577
510.94        56.79313
511.38        56.68401
511.82        56.60708
512.26        56.56398
512.70         56.5148
513.14        56.47533
513.58        56.48685
514.02          56.549
514.46          56.645
514.90        56.72347
515.34        56.74799
515.78        56.71247
516.22        56.58713
516.66        56.27132
517.10        56.48157
517.54        56.25676
517.98        56.34449
518.42        56.42693
518.86        56.48301
519.30        56.49625
519.74        56.45354
520.18        56.40015
520.62        56.46957
521.06        56.62888
521.50        56.65321
521.93        56.55309
522.37        56.52913
522.81        56.58973
523.25        56.62236
523.69        56.60616
524.13        56.56045
524.57        56.48643
525.01        56.38373
525.45        56.28984
525.89        56.26377
526.32        56.31344
526.76        56.42374
527.20        56.55184
527.64        56.63091
528.08        56.64042
528.52        56.60034
528.96        56.53381
529.40        56.47053
529.83        56.42113
530.27        56.40508
530.71        56.39953
531.15        56.36766
531.59         56.3058
532.03        56.23142
532.46        56.16696
532.90        56.15734
533.34        56.20329
533.78        56.28925
534.22        56.37346
534.66        56.39311
535.09        56.32914
535.53        56.22092
535.97        56.09914
536.41        56.02875
536.85        56.02531
537.28        56.06702
537.72        56.12774
538.16        56.16502
538.60        56.16562
539.04        56.14926
539.47        56.10909
539.91        56.07999
540.35        56.05301
540.79        56.02018
541.22        55.99319
541.66        56.00093
542.10        56.03858
542.54        56.11108
542.97        56.16957
543.41        56.15633
543.85        56.09304
544.29        56.04304
544.72        55.97441
545.16        56.15865
545.60        56.01534
546.04        55.98106
546.47        55.94975
546.91        56.14468
547.35        56.48036
547.79        56.66354
548.22        56.62739
548.66        56.43914
549.10        56.18335
549.53        56.04774
549.97        56.04945
550.41        55.98741
550.84         55.8779
551.28        55.85384
551.72        55.89359
552.15        55.97641
552.59        56.11939
553.03        55.89888
553.46        56.10726
553.90        56.05963
554.34        55.97495
554.77        56.00891
555.21        55.94334
555.65        55.93247
556.08        56.08546
556.52        56.23202
556.96        56.36961
557.39        56.46819
557.83        56.50171
558.27        56.35531
558.70        56.10179
559.14        55.97511
559.57        55.99681
560.01        56.11962
560.45        56.25121
560.88         56.2508
561.32        56.16679
561.75        56.02186
562.19        55.91569
562.63        56.04986
563.06         56.3149
563.50        56.24699
563.93        55.88083
564.37        55.66897
564.80        55.65753
565.24        55.78715
565.68         56.0027
566.11        56.13947
566.55        56.18465
566.98        56.28543
567.42         56.4498
567.85        56.37978
568.29        56.31713
568.72        56.32756
569.16        56.49057
569.60        56.47618
570.03         56.5268
570.47        56.54638
570.90        56.57079
571.34        56.67357
571.77        56.75912
572.21        56.73209
572.64        56.81087
573.08        56.59924
573.51        56.86156
573.95        57.20657
574.38        56.89577
574.82        57.35719
575.25         57.1265
575.69        56.95324
576.12        56.52381
576.56        56.79968
576.99        57.03831
577.42        56.92079
577.86        57.08498
578.29        57.55153
578.73        57.61629
579.16        57.05861
579.60        56.57981
580.03        56.91022
580.47        56.92538
580.90        56.96306
581.33        57.26531
581.77        57.40639
582.20        57.48465
582.64        57.50878
583.07        57.00776
583.51        56.82536
583.94        56.66967
584.37        56.66848
584.81        56.59131
585.24        56.59171
585.68        56.93975
586.11        56.85632
586.54        56.72721
586.98        56.65275
587.41        56.46865
587.85        57.02376
588.28         56.7305
588.71        56.85889
589.15        56.75177
589.58         56.4338
590.01        56.19345
590.45        56.21884
590.88        56.75808
591.31        56.50414
591.75        56.20381
592.18        56.13042
592.61        56.47409
593.05        56.68516
593.48        56.66586
593.91        56.89026
594.35        56.76173
594.78        56.97733
595.21        56.61601
595.65        56.67995
596.08        56.93043
596.51        56.51993
596.94        56.46194
597.38        56.28858
597.81        56.36254
598.24         56.4707
598.68        56.72054
599.11        56.54458
599.54          56.766
599.97        56.60717
600.41        56.65912
600.84        56.42477
601.27        56.74187
601.70        56.65249
602.14        56.57341
602.57        56.47763
603.00        56.47892
603.43         56.5416
603.87        56.87746
604.30        56.75697
604.73        56.76839
605.16        56.22028
605.60        56.71342
606.03         56.7496
606.46        56.74987
606.89        56.53616
607.32        56.12992
607.76        56.72275
608.19        56.57318
608.62         56.3855
609.05        57.21157
609.48        56.66373
609.92        56.63919
610.35         56.6159
610.78        56.86507
611.21        56.51862
611.64        56.61612
612.07        56.48044
612.50        56.45794
612.94        56.42581
613.37          56.399
613.80        56.63336
614.23        56.65314
614.66        56.62495
615.09        56.44001
615.52        56.34945
615.96         56.3663
616.39        56.27652
616.82          56.071
617.25        56.18688
617.68        56.01027
618.11        56.05556
618.54        56.25108
618.97        56.28136
619.40        56.16812
619.84        56.12657
620.27        56.05837
620.70        56.03817
621.13        56.03598
621.56        56.09233
621.99        56.17827
622.42        56.17348
622.85        56.10557
623.28        55.82106
623.71        56.40411
624.14        56.07138
624.57        56.07587
625.00        56.52261
625.43        56.06454
625.86        56.19376
626.29         56.4185
626.72        56.15851
627.15        56.16589
627.58        56.03249
628.01         56.0654
628.44        55.77338
628.87        55.56055
629.30        55.97152
629.73        55.89859
630.16        55.89327
630.59        55.92184
631.02        56.11157
631.45        55.79953
631.88        55.78827
632.31        55.87245
632.74        55.84514
633.17        55.92231
633.60        55.88785
634.03        55.81573
634.46        55.75335
634.89        55.64335
635.32        55.61034
635.75         55.6343
636.18        55.70279
636.61        55.79037
637.04        55.84669
637.47        55.84048
637.89        55.84803
638.32        55.88231
638.75        55.79397
639.18        55.54988
639.61        55.93479
640.04        55.60091
640.47        55.65408
640.90        55.69178
641.33        55.74102
641.76        55.78432
642.18        55.82488
642.61        55.85722
643.04        55.87672
643.47        55.87521
643.90        55.84332
644.33        55.78395
644.76        55.68891
645.18        55.59208
645.61        55.57353
646.04        55.62872
646.47        55.67339
646.90        55.69147
647.33        55.71729
647.75        55.73491
648.18        55.72965
648.61        55.71943
649.04        55.69669
649.47        55.63893
649.89        55.80928
650.32        55.61353
650.75        55.64425
651.18        55.70564
651.61        55.67812
652.03         55.5595
652.46        55.51268
652.89        55.62167
653.32         55.6813
653.74        55.58583
654.17        56.18551
654.60        55.84169
655.03        55.53793
655.46        55.32483
655.88        55.89351
656.31        57.00293
656.74        60.01758
657.16        58.76362
657.59        57.19992
658.02        55.87432
658.45        55.84626
658.87        55.67203
659.30        55.89152
659.73        55.70469
660.15        55.35861
660.58        55.71391
661.01        55.93119
661.44        56.16532
661.86        55.94098
662.29        55.38891
662.72        55.24067
663.14        55.51377
663.57        55.63606
664.00        55.56783
664.42        55.60529
664.85        55.74366
665.27        55.72685
665.70        55.73644
666.13        55.70444
666.55        55.69611
666.98        55.67994
667.41        55.65504
667.83        55.63021
668.26        55.61518
668.69        55.56145
669.11        55.47468
669.54        55.55569
669.96        55.85245
670.39        55.57038
670.82        55.99973
671.24        55.99385
671.67        55.93059
672.09        55.76923
672.52        55.60267
672.94        55.58349
673.37        55.68814
673.80        55.70512
674.22        55.63319
674.65        55.60756
675.07        55.64357
675.50        55.63234
675.92        55.58876
676.35        55.57312
676.77        55.58534
677.20        55.63025
677.62        55.71629
678.05        55.74299
678.47        55.68335
678.90         55.9632
679.32        55.84405
679.75        55.91239
680.17        55.94827
680.60        55.97161
681.02        55.97694
681.45        55.97154
681.87        55.96959
682.30        55.93781
682.72        55.90828
683.15        55.94631
683.57        56.00758
684.00        56.09676
684.42        55.84863
684.85        55.84975
685.27        55.98281
685.70        56.12823
686.12        56.22155
686.54        56.26288
686.97        56.23621
687.39        56.15077
687.82         56.0388
688.24        56.03361
688.66        55.96749
689.09        56.18223
689.51        56.18005
689.94        56.29448
690.36        56.36983
690.78        56.37632
691.21        56.33054
691.63        56.25509
692.06         56.2014
692.48        56.24866
692.90        56.37524
693.33        56.43628
693.75        56.42947
694.17        56.42656
694.60        56.40026
695.02         56.4333
695.44        56.30289
695.87        56.15105
696.29        56.00609
696.71        56.10149
697.14         56.3787
697.56        56.59967
697.98        56.72449
698.41        56.59635
698.83        56.76915
699.25        56.66048
699.68         56.4663
700.10         56.3081
700.52        56.21589
700.94        56.15012
701.37        56.09772
701.79        56.09286
702.21        56.11478
702.64        56.17065
703.06        56.23909
703.48        56.28599
703.90        56.30513
704.33        56.29921
704.75        56.28009
705.17        56.25126
705.59        56.21869
706.01        56.18052
706.44        56.15682
706.86        56.18636
707.28        56.26252
707.70        56.40223
708.12        56.57108
708.55        56.64644
708.97        56.63514
709.39        56.69313
709.81        56.81437
710.23        56.86438
710.66        56.83921
711.08        56.83366
711.50        56.82827
711.92        56.76902
712.34        56.65998
712.76        56.51955
713.19        56.39077
713.61        56.38574
714.03        56.49868
714.45        56.70683
714.87        56.93945
715.29         57.0486
715.71        56.99834
716.13        56.97527
716.56        56.74879
716.98        56.65895
717.40        56.64397
717.82        56.68115
718.24        56.74416
718.66        56.79459
719.08        56.82042
719.50        56.83629
719.92        56.84792
720.34        56.85809
720.76        56.86968
721.19        56.87081
721.61        56.87948
722.03        56.90175
722.45        56.93997
722.87        56.99286
723.29        57.05536
723.71         57.1177
724.13        57.17608
724.55        57.22976
724.97        57.28146
725.39        57.33753
725.81        57.39644
726.23        57.45122
726.65        57.49266
727.07        57.51306
727.49        57.51346
727.91        57.48693
728.33        57.44184
728.75        57.43089
729.17        57.44555
729.59        57.39592
730.01        57.31834
730.43        57.35112
730.85        57.50113
731.27        57.67908
731.69        57.84417
732.10        57.92521
732.52        58.06885
732.94        57.89514
733.36        57.54866
733.78        57.37158
734.20        57.41518
734.62        57.50253
735.04        57.58638
735.46           57.66
735.88        57.70124
736.30         57.7242
736.72        57.72133
737.13        57.69158
737.55        57.60723
737.97        57.48304
738.39        57.37277
738.81        57.36897
739.23        57.48388
739.65        57.68572
740.06        57.86147
740.48        57.96083
740.90        57.93605
741.32         57.8009
741.74        57.62447
742.16        57.53996
742.57        57.59436
742.99        57.73316
743.41        57.89509
743.83         57.9646
744.25        57.91575
744.67        57.78402
745.08         57.6579
745.50        57.64396
745.92        57.78169
746.34        58.02854
746.75        58.29506
747.17        58.43747
747.59          58.424
748.01        58.27053
748.42        58.07081
748.84        58.01488
749.26        58.11026
749.68          58.215
750.09        58.27638
750.51        58.24502
750.93        58.15172
751.35        58.17181
751.76        58.29036
752.18        58.31091
752.60        58.22775
753.01        58.17479
753.43        58.13533
753.85        58.07418
754.27        57.99483
754.68        57.90308
755.10        57.83307
755.52        57.81459
755.93        57.85226
756.35        57.94682
756.77        58.06126
757.18        58.09811
757.60        58.03934
758.02        57.95597
758.43        57.95298
758.85        57.74638
759.26        58.26903
759.68        58.37505
760.10        58.13725
760.51        57.97305
760.93        58.50302
761.34        58.59389
761.76        58.47175
762.18        58.59047
762.59         58.8401
763.01        58.82911
763.42        57.86856
763.84        57.81401
764.26         58.0705
764.67        58.52132
765.09        58.87171
765.50        59.08189
765.92        59.09811
766.33        58.80143
766.75        58.34452
767.16        58.18222
767.58        58.33904
768.00        58.80978
768.41        59.39807
768.83        59.33583
769.24        58.67036
769.66        58.72625
770.07        58.53131
770.49        58.59099
770.90        58.56909
771.32        58.50108
771.73        58.40931
772.15        58.41893
772.56        58.54722
772.97        58.67112
773.39        58.72647
773.80        58.74997
774.22        58.70383
774.63        58.59401
775.05        58.45906
775.46        58.41502
775.88        58.46573
776.29        58.60435
776.70        58.75557
777.12         58.8024
777.53         58.7355
777.95        58.59127
778.36        58.43149
778.77        58.34845
779.19        58.36863
779.60        58.46555
780.02        58.61164
780.43         58.7805
780.84        58.95107
781.26        59.11576
781.67        59.27908
782.09        59.37885
782.50        59.40471
782.91        59.40495
783.33        59.37683
783.74        59.36093
784.15        59.33947
784.57        59.33432
784.98        59.35552
785.39        59.38109
785.81        59.41185
786.22         59.4563
786.63         59.5179
787.04        59.60244
787.46        59.71058
787.87        59.80534
788.28        59.88927
788.70        59.93033
789.11        59.89899
789.52        59.90761
789.93        59.93791
790.35        59.72689
790.76        59.40416
791.17        59.50337
791.58        59.94592
792.00        60.15138
792.41        60.10559
792.82        60.01621
793.23        59.98891
793.65        60.26929
794.06        60.77951
794.47        60.97807
794.88        60.84937
795.29        60.83694
795.71        60.92449
796.12        60.83666
796.53         60.5906
796.94        60.51645
797.35        60.59448
797.76        60.48189
798.18        60.19742
798.59        60.06618
799.00        60.11548
799.41        59.98188
799.82        60.02326
800.23        59.95673
800.64        59.89323
801.06        59.79588
801.47        59.74321
801.88         59.7856
802.29        59.93032
802.70         60.1625
803.11        60.41575
803.52        60.57557
803.93        60.60646
804.34        60.53393
804.75         60.4272
805.17        60.37811
805.58        60.43914
805.99        60.61561
806.40        60.83903
806.81        60.88629
807.22         60.7764
807.63        60.77892
808.04        60.93028
808.45        61.06701
808.86        61.18265
809.27        61.38753
809.68         61.6213
810.09        61.71242
810.50        61.63182
810.91        61.43423
811.32        61.18655
811.73        60.99926
812.14        60.91143
812.55        60.89278
812.96        60.92234
813.37        60.96157
813.78         60.9917
814.19         61.0289
814.60        61.06003
815.01        61.06099
815.42        61.03038
815.83         60.9676
816.24        60.90163
816.65        60.89263
817.05        60.96133
817.46        61.06598
817.87        61.19509
818.28        61.29083
818.69        61.34212
819.10        61.36863
819.51        61.39451
819.92        61.46096
820.33        61.57473
820.74        61.70688
821.14        61.83945
821.55        61.97153
821.96        62.08265
822.37        62.17582
822.78        62.21785
823.19        62.15232
823.60         61.9735
824.00        61.71399
824.41        61.41119
824.82        61.18975
825.23        61.08592
825.64        61.08018
826.04        61.14317
826.45        61.18156
826.86        61.18245
827.27        61.17505
827.68        61.17407
828.08        61.22393
828.49        61.26788
828.90        61.33385
829.31          61.446
829.72        61.53652
830.12        61.59811
830.53        62.06449
830.94         62.0602
831.35        62.09897
831.75        61.93025
832.16         61.5793
832.57        61.21391
832.97        61.11574
833.38        61.33966
833.79        61.79472
834.20        62.28254
834.60        62.50167
835.01        62.38516
835.42        62.02546
835.82        61.59655
836.23        61.35769
836.64         61.4052
837.04        61.66379
837.45        61.98375
837.86        62.17856
838.26        62.20068
838.67        62.10708
839.08        61.97768
839.48         61.9215
839.89        61.96743
840.29        62.06872
840.70        62.20942
841.11          62.366
841.51        62.53125
841.92        62.68111
842.33        62.79582
842.73        62.83485
843.14        62.75446
843.54        62.60466
843.95        62.42009
844.35        62.28127
844.76        62.21128
845.17        62.19624
845.57        62.25721
845.98        62.39125
846.38        62.60625
846.79        62.86514
847.19        63.12943
847.60        63.26299
848.00        63.26514
848.41        63.13367
848.81        62.95542
849.22        62.82235
849.62        62.80917
850.03        62.86385
850.43         62.9767
850.84        63.02597
851.24        63.03011
851.65        62.95037
852.05        62.89362
852.46        62.95406
852.86         63.1375
853.27        63.43446
853.67        63.63218
854.07        63.56788
854.48        63.19492
854.88        62.59245
855.29        61.91968
855.69         61.6253
856.10        61.75475
856.50        62.28294
856.90        62.92311
857.31        63.22583
857.71        63.11404
858.12         62.6587
858.52        62.09325
858.92        61.76284
859.33        61.76524
859.73        62.03884
860.13        62.40705
860.54        62.58375
860.94         62.5464
861.34        62.34462
861.75        62.10323
862.15        62.09333
862.55         62.3347
862.96         62.7184
863.36        63.09671
863.76        63.19077
864.17        62.93437
864.57        62.44963
864.97        61.86726
865.38        61.38996
865.78        61.13791
866.18         61.0528
866.58        61.14596
866.99        61.39534
867.39        61.78563
867.79         62.2924
868.19        62.79369
868.60          63.016
869.00         62.9947
869.40        62.97573
869.80        62.93037
870.21        62.61263
870.61        62.09515
871.01        61.54181
871.41         61.0465
871.81        60.62975
872.22        60.33717
872.62        60.18299
873.02        60.15965
873.42        60.43308
873.82        60.77056
874.22        60.58349
874.63        60.16579
875.03         60.1204
875.43         60.5086
875.83        62.08257
876.23        61.77327
876.63        61.13311
877.03         59.8441
877.44        57.29414
877.84        176.6396
878.24        58.02983
878.64        59.07693
879.04        61.10214
879.44        62.05701
879.84        58.77101
880.24        64.23441
880.64        64.41486
881.04        61.78494
881.44        59.84888
881.84        59.26221
882.24        60.09103
882.65        61.53272
883.05        61.88965
883.45        60.83889
883.85        59.37616
884.25        58.12415
884.65        57.62611
885.05        58.06278
885.45        59.15339
885.85        60.40855
886.25        61.15631
886.65        61.23008
887.05        60.84823
887.45        60.24342
887.85        59.80324
888.25        59.67768
888.65        59.73497
889.04        59.93604
889.44        60.23774
889.84        60.57568
890.24        60.95589
890.64        61.30517
891.04        61.50287
891.44        61.52971
891.84        61.42109
892.24        61.19363
892.64        60.89801
893.04        60.58465
893.44        60.26266
893.83        60.05199
894.23        60.08792
894.63        60.40113
895.03        60.96587
895.43         61.6185
895.83        62.07328
896.23        62.24995
896.63        62.19778
897.02         62.0779
897.42        62.20474
897.82         62.5958
898.22        63.13942
898.62        63.61782
899.01        63.69282
899.41        63.27398
899.81        62.51066
900.21        61.61147
900.61        60.91132
901.00          60.517
901.40        60.41086
901.80        60.52863
902.20        60.60506
902.59        60.55501
902.99        60.74409
903.39        61.29213
903.79         60.5707
904.18        61.44982
904.58        61.57724
904.98        61.69962
905.38        61.59969
905.77        61.26869
906.17         60.7917
906.57        60.30035
906.96        60.11485
907.36        60.30617
907.76         60.7999
908.15        61.46981
908.55        61.95428
908.95        62.18679
909.34        62.19413
909.74        62.11752
910.14        62.15038
910.53        62.33473
910.93        62.59187
911.33        62.74813
911.72        62.53442
912.12        61.93349
912.52        61.07601
912.91        60.19205
913.31        59.71459
913.70        59.71172
914.10        60.04064
914.49        60.53746
914.89        60.83855
915.29         60.8493
915.68        60.67068
916.08         60.3689
916.47        59.99915
916.87         59.6473
917.26        59.28805
917.66        59.02523
918.05        59.05332
918.45        59.37643
918.84        59.94605
919.24        60.60721
919.64        61.14918
920.03        61.49696
920.42        61.68012
920.82         61.7141
921.21         61.6544
921.61        61.56984
922.00        61.51122
922.40        61.59609
922.79         61.8701
923.19        61.93206
923.58        62.67249
923.98        64.40697
924.37         64.4418
924.77        61.29207
925.16        69.60195
925.55        62.83998
925.95        63.03518
926.34        62.66357
926.74        61.54115
927.13        59.77387
927.52        58.90509
927.92        59.51823
928.31        60.78638
928.70        62.25187
929.10        63.18979
929.49        63.45376
929.89        63.26849
930.28        62.76881
930.67        62.10541
931.07        61.42786
931.46        60.58764
931.85        59.82792
932.24        60.04308
932.64        61.32312
933.03        62.78271
933.42        63.58632
933.82        66.18743
934.21        64.61703
934.60        63.52514
934.99        62.44614
935.39        62.37853
935.78        63.29995
936.17        65.59436
936.56         72.3784
936.96        64.92715
937.35        68.77119
937.74         64.9994
938.13         62.1137
938.53        59.73894
938.92        58.75842
939.31        59.76721
939.70        61.44479
940.09        62.46624
940.49        62.49363
940.88        61.98417
941.27        61.28792
941.66        61.01998
942.05        61.39738
942.44        62.13496
942.84        62.83303
943.23        63.07224
943.62        62.74631
944.01        61.98426
944.40        61.23463
944.79        61.23295
945.18        62.12161
945.57         63.6558
945.97        65.14175
946.36        65.61384
946.75        64.81635
947.14        63.04201
947.53        60.99805
947.92        59.92011
948.31        60.15752
948.70        61.32545
949.09        62.76397
949.48        63.45039
949.87        63.13065
950.26        62.15164
950.65        60.95291
951.04        60.23571
951.43        60.22048
951.82         60.6575
952.21        61.30487
952.60        61.77472
952.99        61.91098
953.38        61.85302
953.77        61.69333
954.16        61.53436
954.55        61.43099
954.94        61.36017
955.33        61.29702
955.72        61.23084
956.11        61.16082
956.50        61.07052
956.89        61.09217
957.28        61.41407
957.66        62.07065
958.05         62.9366
958.44        63.68879
958.83        63.83278
959.22        63.28317
959.61        62.13323
960.00        60.85249
960.39        60.35433
960.78        60.88699
961.16        62.19041
961.55        63.54897
961.94        64.09955
962.33        63.69099
962.72         62.5695
963.11        61.23556
963.49        60.71574
963.88        61.33051
964.27        62.66751
964.66        64.16099
965.04        65.06924
965.43         65.1699
965.82        64.77594
966.21        64.07625
966.60        63.39981
966.98        62.91182
967.37        62.47328
967.76        62.20401
968.15        62.31392
968.53        62.81831
968.92        63.67598
969.31        64.53846
969.69        64.78889
970.08        64.26704
970.47        63.12722
970.86        61.83451
971.24        61.22677
971.63        61.50507
972.02        62.40667
972.40        63.48571
972.79        63.98703
973.17        63.80054
973.56        63.17304
973.95         62.4275
974.33        62.12745
974.72        62.43667
975.11        63.09882
975.49         64.0013
975.88        64.90681
976.26        65.75074
976.65        66.53806
977.04        67.07214
977.42        67.00331
977.81        66.26574
978.19        64.88843
978.58        63.50841
978.96        63.26841
979.35        64.37955
979.74        66.34793
980.12        68.39001
980.51         69.3582
980.89        69.20817
981.28        68.18704
981.66        66.60828
982.05        65.36293
982.43         64.8501
982.82        64.86132
983.20        65.24073
983.59        65.69109
983.97        66.11692
984.35        66.60326
984.74        66.98055
985.12        66.99018
985.51        66.57872
985.89        65.92201
986.28        65.20448
986.66        64.77386
987.04        64.76367
987.43        64.95712
987.81        65.11929
988.20        66.41969
988.58        68.86475
988.96         69.5611
989.35        67.66712
989.73        73.72612
990.12        69.62018
990.50        69.30405
990.88        68.10105
991.27        67.11767
991.65        66.46188
992.03        66.24595
992.42        66.53881
992.80        66.72606
993.18        66.68437
993.56        66.61791
993.95        66.55015
994.33        66.47114
994.71        66.41632
995.10        66.32118
995.48        66.30809
995.86        66.59834
996.24        67.20885
996.63        67.99388
997.01        68.83182
997.39        69.33006
997.77        69.37202
998.15        69.02457
998.54        68.52047
998.92        68.12206
999.30        67.97464
999.68        68.10257
1000.06         68.2635
1000.45        67.95293
1000.83        67.18078
1001.21        66.09808
1001.59        65.38055
1001.97        65.97052
1002.35         67.8254
1002.73        70.43046
1003.12        72.90188
1003.50        74.18884
1003.88        74.11565
1004.26        72.98394
1004.64        71.30557
1005.02        70.19256
1005.40        70.09147
1005.78        70.66628
1006.16         71.5006
1006.54        71.84158
1006.92        71.48399
1007.30        70.84314
1007.69        70.00748
1008.07        69.12335
1008.45         68.2591
1008.83        67.26801
1009.21        66.68613
1009.59        67.59044
1009.97        69.93929
1010.35        73.02475
1010.73        75.77006
1011.11        77.30566
1011.49        77.71219
1011.86        76.94138
1012.24         75.1132
1012.62        76.18054
1013.00        77.30935
1013.38        77.93871
1013.76        76.45245
1014.14        80.80078
1014.52        86.62045
1014.90        78.78339
1015.28        79.41267
1015.66        80.45499
1016.04        76.62987
1016.41        77.09313
1016.79        76.48107
1017.17        76.24237
1017.55        75.71079
1017.93        75.19725
1018.31        75.21494
1018.69        75.96844
1019.06        77.47767
1019.44         79.4707
1019.82        81.14224
1020.20        81.43953
1020.58        80.13902
1020.95        77.11111
1021.33        73.15731
1021.71         71.0547
1022.09        72.24028
1022.46        75.49876
1022.84        78.75665
1023.22        80.42355
1023.60        80.55245
1023.97        79.72165
1024.35        78.52714
1024.73        78.11874
