SpectraSmart Spectrum 2.9.0.0
--------- Device Information -----------
Spectrum Name :  反射率_0
Saving Time :  2024/04/21 00:18:41
Spectro-Module Model Name : SE2030-DUVN
Spectro-Module Serial Number : OS361AC55029948
Wavelength Start : 200
Wavelength End : 1025
Wavelength Unit : Wavelength(nm)
Spectrum Unit : Reflectance(%)
-----------Spectrum Setting ------------
Integration Time : 20ms
Average : 10
Boxcar : 0
Background removal :  enabled
linearity correction :  enabled
SC :  disabled
Intensity correction :  disabled
DWT denoise :  enabled
savitzky-golay :  disabled
FFT :  disabled
Running average :  disabled
Kalman :  disabled
High pass :  disabled
---------------BEGIN--------------------
Wavelength(nm)             Reflectance(%)
200.29               0
200.75       -130.4525
201.21       -59.81468
201.67       -18.18055
202.13       0.9462759
202.58        8.110323
203.04        10.03464
203.50        9.399155
203.96        10.43126
204.42        14.07937
204.88        16.87568
205.34        18.43897
205.80        18.61256
206.26        17.45387
206.72        18.06215
207.18        15.55989
207.64       -1.516531
208.10       -33.38323
208.55       -74.93648
209.01       -94.29543
209.47       -58.80496
209.93        -7.66014
210.39        33.35123
210.85        59.12508
211.31        69.58926
211.77        68.72412
212.23        57.51605
212.69        31.26398
213.14       -12.96034
213.60       -80.20027
214.06       -245.4954
214.52       -559.4526
214.98       -208.8981
215.44       -33.39962
215.90        22.16051
216.36        39.19321
216.81        38.39115
217.27        20.88769
217.73       -66.02737
218.19        975.2008
218.65        417.1675
219.11       -842.4586
219.57       -16.82318
220.02        35.12659
220.48        43.72977
220.94        37.52089
221.40        14.81481
221.86       -39.56806
222.32       -75.62358
222.77       -27.44349
223.23        15.19137
223.69        37.22518
224.15        45.71797
224.61        47.52058
225.06        46.51548
225.52        43.78344
225.98        40.18053
226.44        36.44708
226.90        31.57283
227.36        28.30996
227.81        31.51454
228.27        38.74506
228.73        46.29578
229.19        51.22695
229.65        52.00117
230.10        49.26328
230.56        44.17435
231.02         37.5327
231.48        32.79309
231.93        32.58823
232.39        35.78841
232.85         39.6204
233.31        41.59518
233.77        41.79819
234.22        41.43531
234.68        40.59276
235.14        39.43613
235.60         38.3567
236.05        36.50092
236.51        34.42624
236.97        38.24332
237.43        48.24481
237.88        55.94842
238.34        57.78497
238.80        73.29578
239.26        63.77067
239.71        56.58752
240.17        41.63306
240.63        27.68484
241.08         22.5776
241.54        31.28252
242.00        50.51657
242.46        62.32541
242.91        61.30413
243.37        47.81468
243.83        24.41787
244.28        7.314196
244.74        8.208055
245.20        19.12917
245.66        31.46832
246.11        37.15679
246.57        34.90822
247.03        28.23881
247.48        18.13326
247.94        5.577951
248.40       -12.34667
248.85       -55.46993
249.31       -185.9198
249.77       -282.9411
250.22       -80.58215
250.68        2.006919
251.14        28.13056
251.59        35.11393
252.05        34.32491
252.51        28.74896
252.96         18.8836
253.42        11.32102
253.88        12.32089
254.33        19.90101
254.79         31.8377
255.25        43.97408
255.70         53.6039
256.16        60.89219
256.62        66.09897
257.07         69.6409
257.53        72.36542
257.99        74.09361
258.44         74.6771
258.90        74.76821
259.35        73.95645
259.81         72.9953
260.27        71.61246
260.72        69.64176
261.18        67.75468
261.63        65.79321
262.09        64.27812
262.55        63.18412
263.00        62.30344
263.46        61.71489
263.91        61.08268
264.37        60.47334
264.83        59.76048
265.28         58.9366
265.74        58.10081
266.19        57.10075
266.65        56.02426
267.11         54.8348
267.56        53.58899
268.02        52.49506
268.47         51.5275
268.93         50.6688
269.38        49.80004
269.84        48.80383
270.30        47.64408
270.75        46.38731
271.21        45.11858
271.66         43.8889
272.12        42.77424
272.57        41.73392
273.03        40.84173
273.48        40.14222
273.94        39.64474
274.39        39.27243
274.85        38.94868
275.31         38.4733
275.76        37.80317
276.22        37.05029
276.67        36.27409
277.13         35.6656
277.58        35.20784
278.04         34.8717
278.49        34.56562
278.95        34.27123
279.40        33.90678
279.86        33.52201
280.31         33.0516
280.77        32.50159
281.22        31.85083
281.68        31.19726
282.13        30.52828
282.59        29.92099
283.04         29.3686
283.50        28.87572
283.95        28.51453
284.41        28.43146
284.86        28.59815
285.32        28.97182
285.77        29.31831
286.22        29.32414
286.68        28.97104
287.13        28.32928
287.59        27.69103
288.04        27.39209
288.50        27.48635
288.95        27.96008
289.41        28.63881
289.86        28.79567
290.32        28.30417
290.77        29.06968
291.22        28.18688
291.68        28.30827
292.13        28.59687
292.59        29.08224
293.04        29.72369
293.50         30.5366
293.95        31.51752
294.40        32.64141
294.86        33.87199
295.31        35.13313
295.77        36.39634
296.22        37.65099
296.68        38.90912
297.13        40.18805
297.58        41.51374
298.04        42.88522
298.49        44.31671
298.95        45.85178
299.40        47.47514
299.85        49.18709
300.31        50.94064
300.76        52.63145
301.21        54.25179
301.67        55.84941
302.12        57.46865
302.58        59.29153
303.03        61.30811
303.48        63.50699
303.94        65.78668
304.39        67.93276
304.84        69.90359
305.30        71.76759
305.75        73.57366
306.20        75.51493
306.66        77.61954
307.11        79.75961
307.57        81.85509
308.02         83.7057
308.47        85.30435
308.93        86.75823
309.38        88.09697
309.83        89.43803
310.29        90.86086
310.74        92.26521
311.19        93.66403
311.65        95.04667
312.10         96.3778
312.55        97.66977
313.00        98.87133
313.46        99.90023
313.91        100.7312
314.36        101.4031
314.82        101.9998
315.27        102.6468
315.72        103.3869
316.18        104.1829
316.63        104.9871
317.08        105.7198
317.53        106.3473
317.99        106.8905
318.44        107.3507
318.89        107.7142
319.35        107.9879
319.80         108.184
320.25        108.3413
320.70         108.534
321.16        108.7723
321.61        109.0565
322.06        109.3542
322.51        109.6151
322.97        109.8086
323.42        109.9917
323.87        110.1538
324.32        110.2967
324.78        110.4119
325.23        110.5397
325.68        110.6948
326.13        110.9364
326.59        111.2443
327.04        111.6492
327.49        112.0815
327.94        112.4603
328.39        112.7561
328.85        112.9547
329.30        113.1318
329.75        113.2777
330.20        113.4097
330.66        113.4905
331.11        113.6211
331.56         113.822
332.01        114.1115
332.46        114.4898
332.92         114.878
333.37         115.286
333.82        115.6465
334.27        115.9695
334.72        116.2977
335.17        116.7085
335.63        117.1824
336.08        117.7524
336.53        118.3209
336.98        118.7824
337.43         119.107
337.88        119.3206
338.34        119.4656
338.79        119.6796
339.24        119.9704
339.69        120.3102
340.14        120.6512
340.59        120.9189
341.05        121.1015
341.50        121.2439
341.95        121.3904
342.40        121.6127
342.85        121.9302
343.30        122.3116
343.75        122.7212
344.20         123.112
344.66        123.4619
345.11        123.7459
345.56        123.9624
346.01        124.1109
346.46        124.2026
346.91        124.2322
347.36        124.1684
347.81        124.0408
348.26        123.8789
348.72        123.4272
349.17        123.2847
349.62        123.2396
350.07        123.4648
350.52        123.8837
350.97        124.3293
351.42        124.5173
351.87        124.3647
352.32        123.9496
352.77        123.4094
353.22        122.9622
353.67        122.6635
354.13        122.4603
354.58        122.2356
355.03         121.861
355.48        121.3127
355.93        120.6598
356.38        119.9887
356.83         119.415
357.28        118.9582
357.73        118.5632
358.18        118.1706
358.63        117.6964
359.08        117.1127
359.53        116.4483
359.98        115.7132
360.43        114.9159
360.88        114.0669
361.33        113.1678
361.78         112.247
362.23        111.3543
362.68        110.5104
363.13        109.7154
363.58        108.9546
364.03        108.1942
364.48         107.423
364.93        106.6481
365.38         105.881
365.83        105.1439
366.28        104.4362
366.73        103.7372
367.18        103.0314
367.63        102.3003
368.08        101.5395
368.53        100.7656
368.98        99.96348
369.43        99.09586
369.88        98.16215
370.33        97.17666
370.78        96.20427
371.23        95.37379
371.68         94.7249
372.13        94.21752
372.58        93.79518
373.03        93.35091
373.48        92.83845
373.93        92.28736
374.38        91.67168
374.83        90.96525
375.28         90.1902
375.72        89.34092
376.17        88.54607
376.62        87.91842
377.07         87.4613
377.52        87.12906
377.97        86.81349
378.42        86.34377
378.87        85.69485
379.32        84.94016
379.77        84.17506
380.22        83.52056
380.67        82.99341
381.11        82.54987
381.56        82.14134
382.01        81.71442
382.46         81.2628
382.91        80.82286
383.36        80.39527
383.81        79.97265
384.26         79.5534
384.71        79.12358
385.15        78.70416
385.60        78.39915
386.05        78.18637
386.50         78.0358
386.95        77.85497
387.40        77.50752
387.85        76.98513
388.29         76.3065
388.74        75.67342
389.19        75.15676
389.64         74.7771
390.09        74.50199
390.54        74.28091
390.98        74.01857
391.43        73.72778
391.88        73.41895
392.33        73.14596
392.78        72.93536
393.23        72.77736
393.67        72.74416
394.12        72.80641
394.57         72.4492
395.02        71.79104
395.47        71.57816
395.91        71.77117
396.36        71.63388
396.81        71.15746
397.26        70.79317
397.71        70.56376
398.15        70.27251
398.60        70.00741
399.05        69.74962
399.50         69.5421
399.95        69.48482
400.39        69.56752
400.84        69.62186
401.29        69.58282
401.74        69.43169
402.18        69.15567
402.63        68.72143
403.08        68.21062
403.53        67.81616
403.97        67.58109
404.42        67.44579
404.87        67.38425
405.32        67.36528
405.76        67.35213
406.21         67.4104
406.66        67.44244
407.11        67.23075
407.55        66.82314
408.00        66.36283
408.45        65.98167
408.90        65.85105
409.34        65.92045
409.79        65.88843
410.24        65.73932
410.68        65.72169
411.13        65.82171
411.58        65.85477
412.03         65.8036
412.47         65.7633
412.92        65.71153
413.37        65.62373
413.81        65.51398
414.26         65.4623
414.71        65.45755
415.15        65.50404
415.60        65.52845
416.05        65.45636
416.49        65.28044
416.94        65.03105
417.39        64.77539
417.83        64.60461
418.28        64.54192
418.73        64.54812
419.17        64.59457
419.62        64.64409
420.07        64.67918
420.51        64.71053
420.96        64.73006
421.41        64.70075
421.85         64.6032
422.30        64.41836
422.74        64.20733
423.19        64.31882
423.64        64.68324
424.08        64.91564
424.53        64.89853
424.98        64.92598
425.42        65.00111
425.87        64.82205
426.31        64.49716
426.76        64.50151
427.21        64.81839
427.65        64.93651
428.10        64.71677
428.54        64.91422
428.99        64.63201
429.44        64.39172
429.88        64.02451
430.33        64.03709
430.77        64.29662
431.22         64.4521
431.66        64.45964
432.11        64.54399
432.56         64.7205
433.00        64.66989
433.45        64.28741
433.89        64.27678
434.34        64.67645
434.78        64.08868
435.23        63.67305
435.67        64.38502
436.12        64.48025
436.57        64.64692
437.01        64.39863
437.46        64.18697
437.90        64.69364
438.35        64.94683
438.79        65.05614
439.24        65.09522
439.68        65.05841
440.13        64.91954
440.57        64.71671
441.02        64.68645
441.46        64.80802
441.91        64.73485
442.35        64.50493
442.80        64.87007
443.24        65.60514
443.69        65.67227
444.13        65.10661
444.58        64.79282
445.02         64.8136
445.47        64.99298
445.91        65.22363
446.36        65.32705
446.80        65.26491
447.24        65.13322
447.69        65.00587
448.13        65.10895
448.58        65.21935
449.02        65.16452
449.47        64.92497
449.91        64.82156
450.36        64.88873
450.80        64.87052
451.25        64.79801
451.69        64.88147
452.13        65.06548
452.58        65.01183
453.02        64.75631
453.47        64.64768
453.91        64.69492
454.36           64.73
454.80        64.67934
455.24        64.55116
455.69        64.36632
456.13        64.01216
456.58        63.62508
457.02        63.67906
457.46        63.77914
457.91        63.85299
458.35        63.85563
458.79        63.84429
459.24        63.83254
459.68        63.73774
460.13        63.65733
460.57        63.43742
461.01        63.07356
461.46        63.38603
461.90        63.29267
462.34        62.73602
462.79          62.866
463.23        62.65227
463.68        63.21812
464.12        63.08282
464.56        62.61318
465.01        62.75679
465.45        63.27375
465.89        63.35731
466.34        63.05597
466.78        62.67586
467.22        62.32588
467.67        62.72606
468.11        62.74739
468.55        62.69456
468.99         62.2807
469.44        62.07851
469.88        62.10152
470.32         62.0156
470.77        61.84334
471.21        61.76336
471.65        61.78583
472.10        61.86133
472.54        61.93254
472.98        61.95278
473.42        61.91382
473.87        61.78994
474.31        61.61116
474.75        61.65039
475.20        61.81596
475.64        61.75132
476.08         61.5403
476.52          61.369
476.97        61.17363
477.41        61.69078
477.85        61.87661
478.29        61.28159
478.74        61.26806
479.18        61.63852
479.62        61.97737
480.06        62.22838
480.50         62.1822
480.95        62.01015
481.39        61.66613
481.83        62.01489
482.27        62.14997
482.72        61.58076
483.16        61.96767
483.60        62.25172
484.04        62.14284
484.48        61.89268
484.93        62.09481
485.37         61.5363
485.81        62.25066
486.25        62.33643
486.69        62.61789
487.14        63.11708
487.58        62.24067
488.02         62.3643
488.46        62.13357
488.90        62.15635
489.34        62.23755
489.79         61.6298
490.23         62.0977
490.67        62.13369
491.11        62.20369
491.55        62.01692
491.99        61.68711
492.43        61.59537
492.88        61.76316
493.32        62.02135
493.76        62.22142
494.20        62.35071
494.64         62.4011
495.08        61.97176
495.52        61.73205
495.96        61.83123
496.41        62.29783
496.85        62.37403
497.29         62.0206
497.73         61.9296
498.17        61.82244
498.61        61.94931
499.05        62.12408
499.49        62.00193
499.93        61.67567
500.37        61.62926
500.82        61.83674
501.26        62.03825
501.70         62.1515
502.14        61.79839
502.58        61.56736
503.02        61.41183
503.46        61.46083
503.90        61.54313
504.34        61.60103
504.78        61.67461
505.22        61.76292
505.66        61.77644
506.10         61.7131
506.54        61.76812
506.98         61.9844
507.42        61.37693
507.86         62.0167
508.30         61.4305
508.74        61.70914
509.18        61.59168
509.62        61.54536
510.06        61.56646
510.50        61.62494
510.94        61.64491
511.38          61.592
511.82        61.52277
512.26        61.43677
512.70        61.30475
513.14        61.16133
513.58        61.08329
514.02        61.08509
514.46        61.14048
514.90        61.22059
515.34        61.31316
515.78        61.40646
516.22        61.47992
516.66        61.36095
517.10        61.60576
517.54        61.33929
517.98        61.24587
518.42        61.12135
518.86        61.06441
519.30        61.08778
519.74        61.17921
520.18        61.29931
520.62        61.35382
521.06        61.32701
521.50        61.25914
521.93        61.17406
522.37        61.09272
522.81        61.03248
523.25         60.9981
523.69        60.97163
524.13         60.9198
524.57        60.84063
525.01        60.74718
525.45        60.67706
525.89        60.68686
526.32        60.77928
526.76        60.93344
527.20        61.08977
527.64        61.15895
528.08        61.11945
528.52        61.00218
528.96          60.854
529.40        60.74117
529.83        60.68366
530.27        60.69172
530.71        60.73067
531.15        60.74294
531.59        60.71628
532.03        60.67445
532.46        60.63342
532.90        60.62938
533.34        60.66233
533.78        60.71667
534.22        60.76584
534.66        60.77161
535.09        60.71976
535.53        60.64737
535.97        60.56489
536.41        60.50582
536.85        60.47935
537.28        60.47049
537.72        60.48035
538.16        60.51151
538.60        60.55638
539.04        60.61736
539.47        60.64841
539.91        60.62913
540.35        60.54295
540.79        60.40759
541.22        60.27074
541.66        60.22514
542.10        60.28298
542.54        60.40988
542.97        60.55367
543.41        60.66335
543.85        60.71597
544.29        60.74381
544.72        60.73782
545.16        60.73925
545.60        60.75046
546.04        60.68577
546.47        60.61019
546.91        60.79037
547.35        61.14741
547.79        61.30792
548.22         61.2247
548.66        61.12622
549.10        61.05169
549.53        60.95898
549.97        60.88581
550.41        60.83179
550.84        60.81577
551.28        60.87609
551.72        60.98796
552.15        60.99978
552.59        61.16359
553.03        60.89346
553.46        61.15006
553.90        60.85567
554.34        60.94435
554.77        60.83775
555.21        60.78418
555.65        60.81936
556.08         60.9277
556.52        61.10411
556.96        61.27379
557.39        61.33884
557.83        61.30811
558.27        61.24257
558.70         61.1743
559.14        61.12066
559.57        61.08692
560.01        61.13299
560.45        61.20868
560.88        61.19923
561.32        61.14922
561.75        61.06727
562.19        61.02637
562.63        61.10818
563.06        61.25507
563.50        61.26786
563.93        61.13616
564.37        61.01444
564.80        60.93863
565.24        61.03275
565.68         61.2471
566.11        61.34876
566.55        61.33482
566.98        61.36028
567.42        61.44461
567.85        61.39772
568.29        61.30061
568.72        61.35648
569.16        61.58564
569.60        61.59883
570.03        61.66882
570.47        61.68577
570.90        61.73931
571.34        61.78564
571.77        61.90667
572.21        62.00519
572.64         62.1114
573.08        61.59974
573.51        61.87996
573.95        62.25655
574.38        62.04401
574.82        62.98392
575.25        62.28503
575.69         62.4758
576.12        61.75999
576.56        61.88875
576.99        62.22722
577.42        62.45628
577.86        62.22354
578.29        62.86172
578.73        62.91273
579.16        62.71818
579.60        61.92293
580.03        62.37745
580.47        62.41988
580.90        62.11864
581.33        62.39474
581.77        62.59553
582.20        62.87162
582.64        62.78482
583.07        62.56017
583.51        62.13625
583.94        62.20549
584.37        61.85643
584.81        61.43427
585.24        61.43516
585.68        62.11833
586.11        62.43414
586.54        62.16095
586.98        62.16963
587.41        61.67537
587.85        62.25747
588.28        62.15968
588.71        62.39534
589.15        62.10252
589.58        61.76485
590.01         61.5852
590.45        61.56693
590.88         61.9882
591.31        61.70731
591.75        61.47168
592.18        61.37394
592.61        61.62927
593.05        61.70175
593.48        61.82793
593.91        61.86097
594.35        61.98127
594.78        61.83927
595.21        61.90508
595.65        61.81976
596.08        61.75328
596.51        61.69132
596.94        61.86944
597.38        61.82141
597.81        61.60083
598.24        61.97669
598.68        61.67076
599.11        61.81982
599.54        62.17995
599.97         62.1574
600.41        61.97945
600.84        62.40247
601.27        62.15815
601.70        62.22942
602.14        61.81728
602.57         61.7264
603.00        61.87288
603.43        62.00178
603.87        62.61603
604.30        62.48233
604.73        62.30688
605.16        61.95139
605.60        62.09524
606.03        62.12146
606.46        62.29986
606.89        61.99887
607.32        61.68117
607.76        62.49328
608.19        62.33878
608.62        62.19053
609.05        63.04185
609.48        62.52542
609.92        62.58216
610.35        62.13934
610.78        62.66437
611.21        62.27289
611.64        62.32425
612.07        62.18899
612.50        62.19701
612.94         62.2006
613.37        62.20783
613.80        62.34171
614.23         62.4166
614.66        62.36024
615.09         62.1546
615.52        62.06152
615.96        62.10768
616.39        62.05251
616.82        61.87622
617.25        62.13664
617.68        62.01416
618.11        62.05677
618.54         62.1768
618.97        62.11304
619.40        61.89529
619.84        61.95402
620.27        61.74992
620.70        61.75137
621.13        61.80786
621.56         61.9112
621.99        61.97453
622.42        62.08098
622.85        62.30179
623.28        61.66304
623.71        62.02186
624.14        62.41663
624.57         61.9775
625.00        62.43509
625.43        61.90824
625.86        61.95967
626.29        62.17809
626.72         61.7255
627.15        61.90044
627.58        61.85798
628.01        62.03326
628.44        61.76724
628.87        61.80247
629.30        62.13088
629.73        61.80373
630.16          61.986
630.59        61.60799
631.02        61.84467
631.45        61.58857
631.88          61.614
632.31        61.68207
632.74        61.49276
633.17        61.65857
633.60        61.59779
634.03        61.49886
634.46        61.41731
634.89        61.28879
635.32        61.24275
635.75        61.25371
636.18        61.31233
636.61         61.3899
637.04        61.43821
637.47        61.43378
637.89        61.42496
638.32         61.4205
638.75        61.35543
639.18        61.21543
639.61        61.42211
640.04         61.2368
640.47        61.24845
640.90        61.23734
641.33        61.22396
641.76         61.2094
642.18        61.21488
642.61        61.23439
643.04        61.26228
643.47        61.28533
643.90         61.2859
644.33        61.25973
644.76        61.20067
645.18        61.13034
645.61        61.10316
646.04        61.11757
646.47         61.1129
646.90        61.08561
647.33        61.08348
647.75         61.1025
648.18        61.11239
648.61        61.13991
649.04        61.21416
649.47        61.32689
649.89        61.56717
650.32        61.72585
650.75        61.73479
651.18        61.56123
651.61         61.4076
652.03         61.3182
652.46        61.17814
652.89        61.05767
653.32        61.11618
653.74        61.29195
654.17        61.48386
654.60        61.33094
655.03        61.30097
655.46        60.88467
655.88        61.78369
656.31        62.68369
656.74        66.24112
657.16        65.01389
657.59        63.87809
658.02        61.91338
658.45        61.78677
658.87        62.04568
659.30        61.87618
659.73        61.74184
660.15        61.23524
660.58        61.64451
661.01         61.8938
661.44        62.14473
661.86        62.08923
662.29        61.76274
662.72        61.53006
663.14        61.48045
663.57        61.56505
664.00        61.72305
664.42        61.78857
664.85        61.75022
665.27        61.61372
665.70        61.61551
666.13        61.60297
666.55        61.65042
666.98         61.7372
667.41        61.83361
667.83        61.90164
668.26        61.93509
668.69         61.8861
669.11        61.76073
669.54        61.78978
669.96         62.0349
670.39        61.61065
670.82        61.97696
671.24        61.91346
671.67        61.84316
672.09        61.70919
672.52        61.59349
672.94        61.59854
673.37        61.71425
673.80        61.82484
674.22        61.90865
674.65        61.97247
675.07        62.01932
675.50        62.00727
675.92        61.95615
676.35        61.90634
676.77        61.86895
677.20        61.84661
677.62        61.86506
678.05         61.8856
678.47        61.89345
678.90        62.16079
679.32        62.17323
679.75        62.27366
680.17        62.30512
680.60        62.29219
681.02        62.25019
681.45        62.21313
681.87        62.20206
682.30        62.18051
682.72         62.1685
683.15        62.19737
683.57        62.23086
684.00        62.29979
684.42        62.08603
684.85        62.06685
685.27        62.14037
685.70         62.2221
686.12        62.27141
686.54         62.3038
686.97        62.30536
687.39        62.30075
687.82        62.30378
688.24        62.31102
688.66        62.30606
689.09        62.52549
689.51        62.48381
689.94        62.59287
690.36         62.6785
690.78        62.65643
691.21        62.55224
691.63        62.44415
692.06        62.39705
692.48         62.4865
692.90        62.66215
693.33        62.73749
693.75        62.69976
694.17        62.59585
694.60        62.46094
695.02        62.53536
695.44        62.54353
695.87        62.55298
696.29        62.50491
696.71        62.43129
697.14        62.37452
697.56        62.56731
697.98        62.92821
698.41        62.92736
698.83        62.92012
699.25        62.76396
699.68        62.62723
700.10          62.538
700.52        62.52314
700.94        62.57096
701.37        62.63444
701.79        62.68821
702.21        62.69843
702.64        62.68641
703.06        62.66595
703.48        62.66587
703.90        62.69572
704.33        62.73653
704.75         62.7821
705.17        62.80558
705.59        62.80256
706.01        62.78255
706.44         62.7611
706.86        62.78114
707.28        62.83769
707.70        62.91743
708.12        63.01088
708.55        63.09293
708.97        63.14854
709.39        63.19615
709.81        63.22642
710.23        63.22729
710.66        63.20313
711.08        63.16821
711.50        63.13449
711.92        63.13934
712.34        63.18932
712.76        63.27037
713.19        63.35394
713.61        63.43675
714.03        63.48512
714.45        63.52143
714.87        63.54631
715.29        63.51778
715.71        63.43033
716.13        63.45374
716.56        63.30117
716.98        63.29747
717.40        63.34836
717.82        63.44875
718.24          63.552
718.66        63.58418
719.08        63.53333
719.50        63.42215
719.92        63.30248
720.34        63.25478
720.76        63.29829
721.19        63.39892
721.61         63.5378
722.03         63.6432
722.45        63.69318
722.87        63.72779
723.29        63.76657
723.71        63.73343
724.13        63.80785
724.55        63.84025
724.97        63.88379
725.39        63.94212
725.81        64.01307
726.23        64.09104
726.65        64.15894
727.07        64.19676
727.49        64.20319
727.91        64.17802
728.33        64.13441
728.75        64.12865
729.17        64.15614
729.59        64.13324
730.01        64.09509
730.43        64.16163
730.85        64.33458
731.27        64.54374
731.69         64.7307
732.10        64.76767
732.52        64.84108
732.94        64.56247
733.36        64.10243
733.78        63.90557
734.20        64.06376
734.62        64.02334
735.04        64.33405
735.46        64.47618
735.88        64.51084
736.30        64.42483
736.72        64.26048
737.13        64.41161
737.55        64.74265
737.97        64.62115
738.39        64.13719
738.81        64.02156
739.23        64.30563
739.65        64.50792
740.06        64.50439
740.48        64.60107
740.90        64.53651
741.32        64.42087
741.74        64.25511
742.16        64.19008
742.57        64.26745
742.99        64.43063
743.41        64.62572
743.83        64.73615
744.25        64.73508
744.67         64.6586
745.08        64.57624
745.50        64.56009
745.92        64.64536
746.34        64.79562
746.75        64.95956
747.17        65.05575
747.59        65.06756
748.01        64.99197
748.42        64.87151
748.84        64.83656
749.26        64.88032
749.68        64.81187
750.09        64.64845
750.51        64.61302
750.93        64.69041
751.35         64.6896
751.76        64.62537
752.18        64.63678
752.60        64.72529
753.01        64.82957
753.43        64.89236
753.85        64.90001
754.27        64.84242
754.68        64.72102
755.10        64.58803
755.52        64.50616
755.93        64.49084
756.35        64.53564
756.77        64.62064
757.18        64.64996
757.60        64.59691
758.02        64.60033
758.43        64.71933
758.85        64.43537
759.26        64.81246
759.68        65.02176
760.10        64.54375
760.51        64.68309
760.93        65.34566
761.34        64.82977
761.76        64.83103
762.18        64.81345
762.59        65.17071
763.01        65.40507
763.42        64.66385
763.84        64.78158
764.26        65.10947
764.67        65.28618
765.09        65.21955
765.50        65.37915
765.92        65.72506
766.33        65.78169
766.75        65.54453
767.16        65.46696
767.58        65.51939
768.00        65.52269
768.41        65.50576
768.83        65.42484
769.24        65.27251
769.66        65.57124
770.07        65.41701
770.49        65.43407
770.90        65.37018
771.32        65.28722
771.73        65.23462
772.15        65.25626
772.56        65.38266
772.97        65.60403
773.39        65.81911
773.80         65.9251
774.22        65.86096
774.63         65.6861
775.05        65.47987
775.46        65.41912
775.88        65.52283
776.29        65.76472
776.70        66.03001
777.12         66.1399
777.53        66.06982
777.95        65.87392
778.36        65.64587
778.77        65.52732
779.19        65.55652
779.60        65.68765
780.02        65.87189
780.43        66.04898
780.84        66.18824
781.26        66.30293
781.67        66.40586
782.09        66.42471
782.50        66.36836
782.91        66.31997
783.33        66.27711
783.74        66.26554
784.15        66.26221
784.57        66.30585
784.98        66.39191
785.39        66.46867
785.81        66.52472
786.22        66.56443
786.63        66.60423
787.04        66.67258
787.46        66.78393
787.87        66.90553
788.28        67.00625
788.70        67.03132
789.11        66.95583
789.52        66.80888
789.93        66.66422
790.35        66.63512
790.76        66.76073
791.17        66.99655
791.58        67.25166
792.00        67.40292
792.41        67.42754
792.82        67.24978
793.23         66.9931
793.65        67.01703
794.06        67.38512
794.47        67.79795
794.88        68.08154
795.29        68.62454
795.71         68.4886
796.12        68.42641
796.53          68.217
796.94        68.05469
797.35         67.9499
797.76        67.74506
798.18        67.49791
798.59        67.39237
799.00        67.44123
799.41        67.56809
799.82        67.69591
800.23        67.72421
800.64        67.62561
801.06         67.4112
801.47         67.1936
801.88        67.09093
802.29        67.13631
802.70        67.27559
803.11        67.47316
803.52        67.66624
803.93        67.83084
804.34        67.99878
804.75        68.11932
805.17        68.14322
805.58         68.1041
805.99        67.85734
806.40        67.55325
806.81        67.77878
807.22        68.41069
807.63        68.63958
808.04         68.4434
808.45         68.4362
808.86        68.62225
809.27        68.59312
809.68        68.38344
810.09        68.27288
810.50        68.29789
810.91        68.38776
811.32         68.4866
811.73        68.50204
812.14        68.41119
812.55        68.24948
812.96        68.09651
813.37         68.0766
813.78         68.2142
814.19        68.46295
814.60        68.71618
815.01        68.81266
815.42        68.71535
815.83        68.46945
816.24        68.16399
816.65        67.96984
817.05        67.95602
817.46        68.04993
817.87        68.21022
818.28        68.32647
818.69        68.37155
819.10        68.38747
819.51        68.41266
819.92        68.50755
820.33        68.68126
820.74        68.88525
821.14        69.09195
821.55        69.29288
821.96        69.46313
822.37        69.61159
822.78        69.69214
823.19        69.62545
823.60         69.4052
824.00        69.07319
824.41        68.70011
824.82        68.47884
825.23        68.45815
825.64        68.59782
826.04         68.8206
826.45        68.95252
826.86        68.96161
827.27        68.90211
827.68        68.81925
828.08        68.81749
828.49        68.85753
828.90        68.94059
829.31        69.08322
829.72        69.23183
830.12        69.37471
830.53        69.84465
830.94        69.90766
831.35        69.89325
831.75        69.60143
832.16         69.0812
832.57        68.53344
832.97        68.29127
833.38        68.43188
833.79          68.843
834.20        69.36592
834.60        69.75994
835.01         69.9453
835.42        69.98642
835.82        69.92315
836.23        69.77479
836.64        69.59174
837.04        69.38002
837.45        69.15074
837.86        68.99043
838.26         68.9345
838.67        68.96094
839.08        69.07902
839.48        69.27379
839.89        69.51713
840.29        69.80556
840.70          70.087
841.11        70.27881
841.51        70.37359
841.92        70.34822
842.33        70.26537
842.73         70.2355
843.14        70.24811
843.54        70.31506
843.95        70.39268
844.35        70.43267
844.76        70.41364
845.17        70.35766
845.57         70.3223
845.98        70.36073
846.38        70.50909
846.79        70.71787
847.19        70.94162
847.60        71.02866
848.00        70.98491
848.41        70.81872
848.81        70.65352
849.22        70.62477
849.62        70.80637
850.03        71.10465
850.43        71.45892
850.84        71.67121
851.24        71.74109
851.65        71.65056
852.05        71.50085
852.46        71.36889
852.86        71.29441
853.27        71.29225
853.67        71.24438
854.07        71.12894
854.48        70.90644
854.88        70.62169
855.29        70.30959
855.69        70.20604
856.10        70.26706
856.50        70.52129
856.90        70.78036
857.31        70.77547
857.71        70.50439
858.12        70.00216
858.52        69.43842
858.92        69.03056
859.33        68.84853
859.73        68.88081
860.13        69.06678
860.54        69.30272
860.94        69.59534
861.34        69.91553
861.75        70.20599
862.15        70.45177
862.55        70.59103
862.96        70.59525
863.36        70.47384
863.76        70.20387
864.17        69.80344
864.57        69.34129
864.97        68.85767
865.38        68.39943
865.78        68.04192
866.18        67.76466
866.58        67.66956
866.99        67.88797
867.39        68.43525
867.79        69.21581
868.19        69.95683
868.60        70.20285
869.00         69.9499
869.40        69.45562
869.80        68.87902
870.21        68.37644
870.61        68.13376
871.01        68.15804
871.41        68.30421
871.81        68.26871
872.22        68.00507
872.62         67.6259
873.02        67.25222
873.42        67.24589
873.82        67.50457
874.22        67.48043
874.63        67.34334
875.03        67.47404
875.43        67.87833
875.83        69.19272
876.23        68.99654
876.63        68.66405
877.03        67.96049
877.44        66.37531
877.84        159.6638
878.24        67.35863
878.64        67.82043
879.04        68.79888
879.44        68.89538
879.84        65.72697
880.24        70.15262
880.64         70.4214
881.04        68.45056
881.44        66.89637
881.84        66.20245
882.24        66.49848
882.65         67.3308
883.05        67.59583
883.45        67.06393
883.85           66.48
884.25        66.08862
884.65        65.91456
885.05        66.01752
885.45        66.30354
885.85        66.66714
886.25        66.98888
886.65        67.22106
887.05        67.41848
887.45         67.5063
887.85        67.35912
888.25         66.9819
888.65        66.39867
889.04        65.86382
889.44        65.80885
889.84        66.29337
890.24        67.16307
890.64        68.06355
891.04        68.46892
891.44        68.27898
891.84        67.66852
892.24        66.89803
892.64        66.42205
893.04        66.39306
893.44        66.66656
893.83        67.12579
894.23        67.56707
894.63        67.92696
895.03        68.28178
895.43        68.60581
895.83        68.83747
896.23        68.96931
896.63        68.98229
897.02          68.945
897.42        69.04875
897.82        69.28741
898.22        69.60842
898.62        69.88738
899.01        69.92632
899.41        69.66196
899.81        69.18717
900.21        68.61208
900.61        68.11509
901.00        67.75558
901.40        67.55772
901.80         67.5134
902.20         67.4792
902.59        67.41159
902.99        67.58618
903.39        68.08855
903.79        67.55157
904.18        68.32518
904.58        68.48303
904.98         68.6337
905.38        68.58991
905.77        68.33446
906.17        67.93883
906.57        67.51157
906.96        67.32906
907.36        67.45106
907.76        67.82178
908.15        68.32746
908.55        68.62314
908.95        68.66409
909.34        68.48289
909.74        68.25733
910.14        68.23361
910.53         68.4626
910.93        68.85579
911.33        69.18814
911.72        69.10641
912.12        68.57055
912.52        67.72324
912.91        66.84187
913.31        66.43935
913.70         66.6037
914.10        67.17345
914.49        67.92249
914.89         68.3748
915.29        68.41349
915.68        68.16947
916.08         67.8091
916.47        67.54702
916.87        67.49623
917.26         67.5769
917.66        67.76215
918.05        68.03902
918.45        68.36021
918.84        68.74079
919.24        69.13975
919.64        69.53971
920.03        69.91325
920.42         70.2151
920.82        70.36958
921.21        70.29334
921.61        70.00347
922.00        69.59631
922.40        69.22452
922.79        69.00831
923.19        68.67573
923.58        68.97925
923.98        70.20862
924.37        70.13282
924.77         67.4879
925.16        74.53213
925.55        69.06564
925.95          69.604
926.34         69.8204
926.74         69.5476
927.13        68.67928
927.52        68.06055
927.92        68.07711
928.31        68.22092
928.70        68.49742
929.10        68.83661
929.49        69.21658
929.89        69.67458
930.28        70.04655
930.67        69.93912
931.07        69.31558
931.46        68.20872
931.85        67.05204
932.24        66.98453
932.64        68.18523
933.03        69.76991
933.42        70.87767
933.82         73.1993
934.21        71.92735
934.60        70.82519
934.99        69.64568
935.39        69.39466
935.78        70.13235
936.17        72.12516
936.56        77.74687
936.96        71.76105
937.35         74.7234
937.74        71.39996
938.13        68.81635
938.53        67.01735
938.92        66.81123
939.31        68.50388
939.70        70.64802
940.09        71.74792
940.49        71.49718
940.88        70.41291
941.27        69.00813
941.66        68.25743
942.05        68.52625
942.44        69.41617
942.84        70.49232
943.23        71.26498
943.62        71.55599
944.01        71.50526
944.40        71.32534
944.79        71.33854
945.18        71.62499
945.57        72.08601
945.97        72.37176
946.36         72.0668
946.75        71.07211
947.14        69.54313
947.53        68.02916
947.92        67.45929
948.31        68.04333
948.70        69.47757
949.09        71.08688
949.48        71.82163
949.87        71.44693
950.26        70.30068
950.65          68.888
951.04        68.05114
951.43        68.04601
951.82        68.57681
952.21          69.392
952.60        70.06676
952.99        70.40299
953.38        70.55009
953.77        70.48564
954.16        70.14069
954.55        69.55262
954.94        68.73449
955.33        67.86477
955.72        67.31876
956.11        67.22675
956.50        67.49709
956.89        68.02775
957.28        68.61089
957.66        69.17548
958.05        69.70291
958.44        70.09071
958.83        70.17941
959.22        69.94928
959.61        69.38855
960.00        68.71391
960.39        68.37276
960.78        68.49407
961.16        68.99839
961.55        69.50117
961.94         69.5416
962.33        69.03381
962.72         68.0966
963.11        67.05536
963.49        66.59104
963.88        66.91579
964.27        67.79679
964.66        68.79577
965.04        69.32799
965.43        69.21332
965.82        68.66222
966.21        67.95276
966.60        67.57433
966.98        67.68706
967.37        68.12994
967.76        68.68172
968.15        68.98531
968.53        68.96249
968.92        68.71812
969.31         68.4304
969.69        68.36633
970.08        68.56624
970.47        68.91839
970.86        69.33375
971.24        69.67601
971.63        69.86619
972.02         69.9769
972.40        69.97741
972.79        69.72475
973.17        69.28016
973.56        68.67491
973.95        68.13347
974.33        68.06048
974.72        68.52689
975.11        69.37603
975.49        70.40528
975.88         71.1946
976.26        71.66916
976.65        71.86847
977.04        71.80143
977.42        71.44514
977.81        70.79425
978.19        69.80762
978.58        68.92461
978.96        68.88478
979.35         69.7894
979.74        71.32664
980.12        72.90835
980.51        73.62539
980.89        73.47317
981.28        72.60899
981.66        71.35644
982.05         70.5717
982.43        70.58957
982.82        71.17823
983.20        72.03129
983.59        72.64014
983.97        72.89231
984.35         72.9184
984.74        72.72295
985.12         72.3979
985.51        71.98188
985.89        71.52762
986.28        71.09138
986.66        70.80908
987.04         70.7564
987.43        70.83337
987.81        70.83279
988.20        71.70347
988.58        73.51468
988.96        73.81116
989.35        71.96687
989.73        77.33668
990.12        74.27096
990.50         74.7391
990.88        74.51705
991.27        74.11433
991.65        73.48146
992.03        72.78112
992.42        72.27696
992.80        71.90383
993.18         71.6916
993.56        71.69263
993.95        71.78806
994.33        71.72906
994.71        71.46784
995.10        71.05515
995.48         70.6382
995.86        70.45232
996.24        70.55932
996.63        70.80842
997.01        71.18837
997.39        71.48825
997.77        71.62428
998.15        71.62766
998.54        71.57803
998.92        71.49326
999.30        71.44063
999.68        71.45757
1000.06        71.45329
1000.45        71.22612
1000.83        70.87262
1001.21        70.45482
1001.59        70.31168
1001.97        70.91794
1002.35        72.20622
1002.73        73.84132
1003.12        75.39416
1003.50        76.39667
1003.88        76.75238
1004.26        76.63811
1004.64         76.0919
1005.02        75.23355
1005.40        74.20292
1005.78        72.98321
1006.16        71.90144
1006.54        71.45673
1006.92        71.75224
1007.30        72.73017
1007.69        73.88723
1008.07        74.54528
1008.45        74.53065
1008.83        73.99628
1009.21        73.39345
1009.59        73.65649
1009.97        74.91995
1010.35        76.61025
1010.73        78.18641
1011.11        79.35789
1011.49        80.21458
1011.86        80.66325
1012.24        80.47636
1012.62        81.83267
1013.00        82.25267
1013.38        81.63736
1013.76        78.94016
1014.14        82.04194
1014.52        87.35959
1014.90        80.21587
1015.28          81.308
1015.66        82.62786
1016.04        79.35432
1016.41        79.72146
1016.79        78.98095
1017.17        78.40337
1017.55        77.43934
1017.93        76.38569
1018.31        75.84903
1018.69        76.27144
1019.06        77.75146
1019.44        79.93382
1019.82        82.04601
1020.20        83.12634
1020.58        83.01792
1020.95        81.76103
1021.33        79.83624
1021.71        78.75177
1022.09        79.30859
1022.46        80.82813
1022.84        82.35158
1023.22        83.17872
1023.60        83.32076
1023.97         83.0694
1024.35        82.60753
1024.73        82.26405
