SpectraSmart Spectrum 2.9.0.0
--------- Device Information -----------
Spectrum Name :  反射率_0
Saving Time :  2024/04/21 00:06:30
Spectro-Module Model Name : SE2030-DUVN
Spectro-Module Serial Number : OS361AC55029948
Wavelength Start : 200
Wavelength End : 1025
Wavelength Unit : Wavelength(nm)
Spectrum Unit : Reflectance(%)
-----------Spectrum Setting ------------
Integration Time : 20ms
Average : 10
Boxcar : 0
Background removal :  enabled
linearity correction :  enabled
SC :  disabled
Intensity correction :  disabled
DWT denoise :  enabled
savitzky-golay :  disabled
FFT :  disabled
Running average :  disabled
Kalman :  disabled
High pass :  disabled
---------------BEGIN--------------------
Wavelength(nm)             Reflectance(%)
200.29               0
200.75       -50.10434
201.21        8.523244
201.67        36.62194
202.13        42.48342
202.58        34.41779
203.04        15.35241
203.50       -10.12608
203.96       -26.20722
204.42       -24.68566
204.88       -11.15172
205.34        4.936241
205.80        10.16367
206.26       0.5116493
206.72        -20.7287
207.18       -50.22957
207.64       -76.68156
208.10       -88.82244
208.55       -89.45003
209.01       -70.21212
209.47       -32.04381
209.93       0.4983997
210.39        22.00587
210.85        34.53159
211.31        40.38317
211.77        42.27235
212.23        41.52616
212.69        36.25656
213.14         21.8944
213.60       -13.79121
214.06        -138.579
214.52       -452.0424
214.98       -193.0428
215.44        -27.1717
215.90        29.12943
216.36        46.65343
216.81        44.68066
217.27        23.06123
217.73       -79.80402
218.19        1149.301
218.65        497.3014
219.11       -1054.509
219.57       -34.80072
220.02        29.84341
220.48        41.17233
220.94        34.60936
221.40        8.759812
221.86       -54.50113
222.32       -99.40402
222.77       -46.66903
223.23        1.402414
223.69        26.17694
224.15         34.9986
224.61        35.54095
225.06        32.45056
225.52        26.87006
225.98        19.81626
226.44        12.35834
226.90        3.158015
227.36       -3.459757
227.81       0.5466254
228.27        11.44523
228.73        23.24138
229.19        31.22485
229.65        33.07354
230.10        29.90075
230.56        23.50142
231.02        15.05301
231.48        9.152966
231.93        9.314775
232.39        13.86201
232.85         19.2881
233.31        22.57221
233.77        23.82413
234.22         24.4581
234.68        24.49182
235.14        23.81421
235.60        22.78076
236.05        20.57877
236.51        17.59046
236.97          20.914
237.43        31.29805
237.88        37.79787
238.34        36.03457
238.80         58.7853
239.26        47.96366
239.71        46.14312
240.17        37.98633
240.63        29.34854
241.08        23.96848
241.54        25.04489
242.00        32.57916
242.46        35.22693
242.91        29.59487
243.37        16.23685
243.83       -1.975067
244.28       -11.82297
244.74       -5.435795
245.20        9.163074
245.66         23.2738
246.11        29.03052
246.57        25.44013
247.03        15.51543
247.48     -0.07932357
247.94       -21.18422
248.40       -54.00954
248.85       -132.9539
249.31       -377.6924
249.77       -589.4861
250.22       -220.3646
250.68        -61.1845
251.14       -7.469938
251.59        11.42393
252.05        18.10243
252.51        20.10477
252.96        17.92426
253.42        13.91107
253.88        11.20633
254.33        9.970489
254.79        14.60819
255.25        25.87259
255.70        38.31478
256.16        48.76734
256.62        55.54051
257.07        57.87132
257.53        57.60881
257.99        56.06371
258.44        54.09739
258.90        53.04725
259.35        52.44412
259.81         52.2369
260.27        51.95264
260.72         51.2324
261.18        50.42073
261.63        49.44181
262.09        48.58449
262.55        47.73889
263.00        46.82026
263.46        46.00129
263.91        45.12479
264.37        44.38159
264.83        43.70871
265.28        43.04151
265.74        42.47624
266.19        41.95268
266.65        41.49456
267.11        41.03831
267.56         40.4746
268.02        39.72976
268.47        38.75006
268.93        37.61234
269.38        36.37674
269.84        35.20062
270.30        34.12655
270.75        33.13087
271.21        32.22644
271.66        31.35987
272.12        30.54966
272.57        29.80693
273.03        29.15172
273.48        28.56672
273.94        28.06211
274.39         27.5957
274.85        27.18286
275.31        26.79156
275.76        26.39911
276.22        26.03027
276.67        25.66249
277.13        25.33572
277.58        25.01717
278.04        24.72281
278.49        24.39835
278.95        24.03927
279.40        23.60957
279.86        23.14949
280.31        22.66005
280.77        22.21874
281.22        21.81158
281.68        21.47589
282.13        21.14964
282.59         20.8089
283.04        20.43222
283.50        20.05344
283.95        19.73926
284.41        19.61055
284.86        19.66874
285.32        19.87638
285.77        20.10569
286.22        20.18262
286.68        20.09687
287.13        19.87152
287.59         19.6671
288.04        19.62415
288.50        19.74187
288.95        20.08893
289.41        20.58407
289.86        20.60799
290.32         20.0514
290.77        20.97646
291.22        20.06761
291.68        20.17148
292.13        20.33048
292.59        20.61185
293.04        21.00247
293.50        21.55887
293.95        22.29387
294.40        23.15779
294.86        24.10489
295.31        25.05069
295.77        25.96273
296.22        26.84786
296.68        27.71285
297.13        28.56533
297.58        29.43703
298.04        30.34192
298.49        31.32297
298.95        32.46676
299.40        33.76738
299.85        35.19403
300.31        36.68909
300.76        38.14526
301.21        39.53343
301.67        40.89898
302.12        42.23346
302.58        43.61338
303.03        45.04324
303.48        46.55579
303.94        48.17004
304.39        49.87133
304.84        51.65984
305.30        53.54395
305.75        55.48825
306.20        57.52776
306.66        59.64017
307.11        61.75097
307.57        63.81805
308.02        65.73002
308.47        67.48411
308.93        69.15397
309.38        70.73117
309.83        72.23059
310.29        73.77425
310.74        75.26276
311.19         76.7643
311.65        78.32851
312.10         79.9407
312.55        81.58162
313.00        83.19128
313.46        84.67545
313.91        85.98375
314.36        87.13885
314.82        88.17089
315.27        89.13084
315.72        90.05142
316.18        90.92884
316.63        91.76004
317.08        92.54324
317.53        93.27467
317.99        93.95166
318.44        94.59438
318.89        95.21573
319.35        95.81265
319.80        96.38947
320.25        96.89963
320.70        97.27354
321.16        97.49877
321.61         97.6199
322.06        97.71543
322.51        97.92035
322.97        98.25339
323.42        98.70816
323.87        99.19901
324.32        99.59561
324.78        99.83849
325.23        100.0017
325.68        100.1123
326.13        100.2458
326.59        100.4056
327.04        100.6163
327.49        100.8447
327.94         101.074
328.39        101.2964
328.85         101.495
329.30        101.7301
329.75        101.9673
330.20        102.2064
330.66        102.4158
331.11        102.6576
331.56        102.9075
332.01        103.1679
332.46         103.435
332.92        103.6772
333.37        103.9777
333.82        104.3003
334.27        104.6527
334.72        105.0197
335.17        105.3732
335.63        105.6845
336.08          106.02
336.53        106.3985
336.98        106.8998
337.43        107.5276
337.88        108.2358
338.34        108.9296
338.79        109.5095
339.24        109.9142
339.69        110.1862
340.14        110.3492
340.59        110.4507
341.05        110.5273
341.50        110.5763
341.95        110.6697
342.40        110.9295
342.85        111.3676
343.30        111.9481
343.75        112.5367
344.20        112.9149
344.66        113.0418
345.11        112.9657
345.56        112.8086
346.01        112.7671
346.46        112.9003
346.91        113.1376
347.36        113.4021
347.81        113.6195
348.26        113.7669
348.72        113.7253
349.17        113.8063
349.62        113.8484
350.07        113.9516
350.52         114.074
350.97        114.1661
351.42        114.1525
351.87        114.0064
352.32        113.7489
352.77        113.4244
353.22        113.0949
353.67        112.7815
354.13         112.496
354.58        112.1687
355.03        111.7428
355.48        111.2169
355.93        110.6128
356.38        110.0316
356.83        109.6216
357.28        109.3882
357.73        109.2683
358.18        109.1032
358.63        108.6426
359.08        107.8444
359.53        106.8103
359.98        105.6947
360.43        104.7314
360.88        103.9818
361.33        103.3649
361.78        102.8304
362.23        102.2972
362.68        101.7265
363.13        101.1555
363.58        100.5272
364.03        99.74298
364.48        98.79793
364.93        97.71355
365.38        96.61888
365.83        95.73434
366.28        95.10469
366.73        94.66148
367.18        94.26925
367.63        93.70582
368.08        92.91669
368.53        91.98186
368.98         90.9815
369.43        90.02878
369.88        89.15893
370.33        88.32909
370.78        87.54136
371.23        86.81891
371.68        86.17171
372.13        85.61208
372.58        85.10884
373.03        84.59109
373.48        84.03011
373.93        83.42711
374.38        82.80605
374.83        82.22321
375.28         81.6974
375.72        81.20097
376.17        80.72129
376.62        80.17185
377.07        79.53193
377.52        78.81753
377.97        78.09464
378.42        77.49065
378.87        77.04537
379.32        76.72425
379.77        76.44286
380.22        76.06397
380.67        75.54795
381.11        74.93528
381.56        74.27939
382.01        73.69575
382.46        73.23099
382.91         72.8554
383.36         72.5242
383.81        72.16664
384.26        71.75912
384.71        71.32423
385.15        70.87968
385.60        70.50832
386.05        70.20196
386.50        69.94284
386.95         69.6874
387.40        69.37994
387.85        69.01761
388.29        68.57756
388.74        68.20174
389.19        67.91017
389.64        67.69656
390.09        67.52867
390.54        67.34319
390.98        67.02908
391.43        66.61745
391.88        66.15385
392.33        65.70512
392.78        65.36287
393.23        65.14345
393.67        64.97215
394.12        64.89793
394.57        64.84438
395.02        64.78491
395.47        64.71546
395.91        64.60783
396.36        64.40303
396.81        64.11835
397.26        63.79903
397.71        63.48546
398.15        63.20807
398.60        63.04548
399.05        62.89378
399.50        62.79004
399.95        62.82743
400.39        62.95307
400.84        63.05839
401.29        63.05629
401.74        62.62284
402.18        61.91983
402.63        61.68421
403.08        61.85809
403.53         61.6779
403.97        61.12488
404.42        60.68853
404.87        60.46149
405.32        60.39086
405.76        60.47582
406.21        60.71302
406.66        60.97306
407.11        61.07755
407.55          60.974
408.00        60.65268
408.45        60.22524
408.90        59.81185
409.34        59.53553
409.79        59.60187
410.24        59.87154
410.68        59.92019
411.13        59.70116
411.58        59.42768
412.03        59.19272
412.47        59.09197
412.92        59.14536
413.37        59.32003
413.81        59.53068
414.26        59.70643
414.71         59.8046
415.15         59.8624
415.60        59.86791
416.05        59.85396
416.49        59.83391
416.94        59.78283
417.39        59.71662
417.83        59.65758
418.28        59.61271
418.73         59.5813
419.17        59.54447
419.62        59.47861
420.07        59.38825
420.51        59.28306
420.96        59.21167
421.41        59.23359
421.85        59.33401
422.30        59.43344
422.74        59.49933
423.19          59.791
423.64        60.19209
424.08        60.23368
424.53        59.91257
424.98        59.82669
425.42        60.04265
425.87        60.13246
426.31        60.10749
426.76        60.33574
427.21        60.72089
427.65        60.75875
428.10        60.47562
428.54        60.36443
428.99         60.4881
429.44        60.64168
429.88         60.7349
430.33        60.71067
430.77        60.57671
431.22        60.60066
431.66        60.79662
432.11         61.1452
432.56        61.59089
433.00        61.74426
433.45        61.38875
433.89        61.16081
434.34        61.39462
434.78        60.17183
435.23        61.12725
435.67        61.68118
436.12        61.88271
436.57        61.95437
437.01        61.77376
437.46         61.6482
437.90         62.2383
438.35        62.30056
438.79        62.52769
439.24        62.59022
439.68        62.65538
440.13        62.62617
440.57        62.53595
441.02        62.62746
441.46        62.86222
441.91        62.89175
442.35        62.73939
442.80        63.11816
443.24        63.82673
443.69        63.91935
444.13        63.42052
444.58        63.11243
445.02        63.08695
445.47         63.2535
445.91        63.51405
446.36        63.65257
446.80          63.632
447.24        63.56471
447.69        63.52467
448.13        63.72625
448.58        63.94567
449.02        64.00921
449.47        63.87162
449.91         63.8109
450.36        63.85327
450.80        63.75544
451.25        63.58086
451.69        63.58583
452.13        63.73294
452.58        63.68974
453.02        63.46118
453.47        63.33677
453.91         63.3168
454.36         63.2539
454.80        63.13453
455.24        63.03875
455.69        62.99026
456.13        62.89587
456.58        62.79519
457.02        62.89448
457.46        62.84377
457.91        62.90748
458.35        63.02407
458.79        62.97887
459.24        62.81159
459.68        62.58121
460.13        62.38635
460.57        62.18628
461.01        62.01137
461.46        62.11584
461.90        62.02116
462.34        61.96654
462.79        62.07199
463.23        61.92839
463.68        62.19244
464.12        61.85329
464.56        61.29116
465.01         61.4249
465.45        61.97481
465.89        62.05124
466.34        61.70725
466.78        61.24958
467.22        60.74433
467.67        61.40033
468.11        60.98903
468.55        61.04448
468.99        60.89614
469.44        60.83381
469.88         60.8445
470.32        60.77631
470.77         60.6661
471.21        60.60704
471.65        60.60702
472.10         60.6303
472.54        60.65001
472.98        60.63816
473.42        60.59036
473.87        60.56362
474.31        60.52154
474.75        60.44828
475.20        60.35508
475.64        60.29644
476.08        60.27491
476.52        60.29441
476.97        60.35429
477.41        60.44792
477.85        60.43679
478.29        60.61339
478.74        59.99002
479.18        59.78122
479.62        60.16946
480.06        60.24253
480.50        60.16976
480.95        60.08567
481.39        59.92264
481.83        60.50772
482.27        60.36156
482.72        60.31537
483.16        60.33694
483.60        60.67031
484.04        60.64745
484.48        60.30495
484.93        60.10273
485.37        59.94973
485.81        60.51567
486.25         59.7954
486.69        61.14446
487.14        61.07073
487.58         60.1801
488.02         59.8689
488.46        60.07901
488.90        59.97164
489.34        59.95767
489.79        59.50144
490.23        60.10478
490.67        60.12214
491.11           59.98
491.55        59.87001
491.99        59.84222
492.43        59.83769
492.88        59.85217
493.32        59.94003
493.76        60.02903
494.20        60.09296
494.64        60.13693
495.08        59.84401
495.52          59.807
495.96        59.76621
496.41        59.83627
496.85        59.80685
497.29        59.64013
497.73        59.63055
498.17        59.46046
498.61         59.4613
499.05        59.50882
499.49        59.33036
499.93        59.04272
500.37        59.18982
500.82        59.66842
501.26        59.89224
501.70         59.7653
502.14        59.50439
502.58        59.14501
503.02         58.9846
503.46        58.99269
503.90        59.09724
504.34        59.22174
504.78        59.33028
505.22        59.40616
505.66        59.41318
506.10        59.35067
506.54        59.37238
506.98        59.51283
507.42        59.16304
507.86        59.33191
508.30        59.29404
508.74        59.22423
509.18        59.18941
509.62         59.1605
510.06        59.16561
510.50        59.17719
510.94        59.13427
511.38        59.04716
511.82        58.99545
512.26        58.98258
512.70        58.95849
513.14        58.92473
513.58        58.90435
514.02         58.8973
514.46        58.90158
514.90        58.88639
515.34        58.84258
515.78        58.77507
516.22        58.65458
516.66        58.37632
517.10        58.63017
517.54        58.49129
517.98        58.66516
518.42        58.82646
518.86        58.91787
519.30        58.91422
519.74         58.8132
520.18        58.67766
520.62        58.66178
521.06        58.74835
521.50        58.73221
521.93        58.61443
522.37        58.55621
522.81        58.56387
523.25        58.54939
523.69        58.50373
524.13        58.45569
524.57        58.40735
525.01        58.34886
525.45        58.30867
525.89        58.33272
526.32        58.42246
526.76        58.56701
527.20         58.7149
527.64        58.78661
528.08          58.764
528.52        58.67231
528.96        58.55955
529.40          58.495
529.83        58.49374
530.27        58.56052
530.71        58.64454
531.15        58.66284
531.59        58.60036
532.03        58.49279
532.46        58.37331
532.90        58.30563
533.34        58.30067
533.78        58.33545
534.22        58.38639
534.66        58.41866
535.09         58.4128
535.53        58.40165
535.97        58.37597
536.41        58.33629
536.85        58.28725
537.28        58.22674
537.72         58.1735
538.16        58.16156
538.60        58.19257
539.04        58.25406
539.47        58.30354
539.91        58.32398
540.35        58.29265
540.79         58.2268
541.22        58.13935
541.66        58.06514
542.10        58.01254
542.54        57.97188
542.97        57.94556
543.41        57.96626
543.85        58.02921
544.29        58.13856
544.72        58.24743
545.16        58.32612
545.60        58.35143
546.04         58.2821
546.47        58.18726
546.91        58.26046
547.35        58.45549
547.79        58.59505
548.22        58.60778
548.66        58.42459
549.10        58.15239
549.53        58.15748
549.97        58.40758
550.41        58.46935
550.84        58.32631
551.28        58.23274
551.72        58.21278
552.15        58.23177
552.59        58.31573
553.03        58.24504
553.46         58.4085
553.90        58.40883
554.34        58.33823
554.77         58.3113
555.21        58.40015
555.65        58.09739
556.08        58.36491
556.52        58.41565
556.96        58.48723
557.39        58.55159
557.83         58.5841
558.27        58.44674
558.70        58.20744
559.14        58.10612
559.57        58.15865
560.01        58.35075
560.45        58.54677
560.88        58.48851
561.32        58.26501
561.75        58.01392
562.19        57.87467
562.63         58.1154
563.06        58.56538
563.50        58.50679
563.93        57.99852
564.37        57.76421
564.80        57.85328
565.24        58.04247
565.68        58.25945
566.11        58.39234
566.55        58.42849
566.98        58.50431
567.42        58.62493
567.85        58.54646
568.29        58.37177
568.72        58.39917
569.16        58.64273
569.60        58.68673
570.03        58.82138
570.47          58.849
570.90        58.79004
571.34        59.08686
571.77        59.34968
572.21        58.87456
572.64        59.09041
573.08        58.78366
573.51        59.08305
573.95        59.18984
574.38        59.09798
574.82        59.67649
575.25        59.54709
575.69        59.26664
576.12         59.0042
576.56        59.10968
576.99        59.46983
577.42        59.28819
577.86        59.49836
578.29        59.89642
578.73         60.0112
579.16        59.27712
579.60        58.78055
580.03        59.27502
580.47        59.09266
580.90        59.22074
581.33        59.34275
581.77        59.62598
582.20        59.88601
582.64        59.52067
583.07        59.56355
583.51        58.98722
583.94        58.72293
584.37        58.69093
584.81        58.65029
585.24        58.77088
585.68        59.28014
586.11        58.88991
586.54        59.11526
586.98        59.22337
587.41        58.57945
587.85        59.17514
588.28        59.08147
588.71        59.24305
589.15        59.30611
589.58        58.68007
590.01         58.6574
590.45        58.82179
590.88        58.97017
591.31        58.68355
591.75        58.50927
592.18        58.55819
592.61        58.95875
593.05        59.24362
593.48        59.02811
593.91        59.35473
594.35        58.95199
594.78        59.13572
595.21        58.97552
595.65        58.91324
596.08        58.75894
596.51        58.89911
596.94        58.81007
597.38        58.78077
597.81        58.65423
598.24        58.97246
598.68        58.84331
599.11        58.81046
599.54        59.12337
599.97        59.05643
600.41         59.0531
600.84        59.39439
601.27        59.09353
601.70        59.13875
602.14        58.64143
602.57        58.61923
603.00        58.86569
603.43        58.96516
603.87        59.32176
604.30        59.10683
604.73        58.95491
605.16        58.90121
605.60        58.85406
606.03        59.03599
606.46        59.36887
606.89        58.93201
607.32        58.65395
607.76        59.38992
608.19        59.17873
608.62        58.94367
609.05        59.77628
609.48        59.19579
609.92         59.0517
610.35         58.9497
610.78        59.41412
611.21        58.65803
611.64         59.0681
612.07        58.99928
612.50        59.15607
612.94        59.08187
613.37        58.73053
613.80        59.33307
614.23        58.79312
614.66         58.8014
615.09        58.90509
615.52        58.93575
615.96        58.90676
616.39        58.90521
616.82        58.95851
617.25        58.75201
617.68        58.78881
618.11        58.66816
618.54        58.69471
618.97        58.66666
619.40        58.62805
619.84        58.44976
620.27         58.4283
620.70        58.39229
621.13        58.43067
621.56         58.5474
621.99        58.73274
622.42        58.87323
622.85        58.88687
623.28        58.88144
623.71        58.90406
624.14        58.60559
624.57        58.67282
625.00        58.90334
625.43        58.48455
625.86        58.59543
626.29        58.92487
626.72        58.68806
627.15         58.7031
627.58        58.59846
628.01        58.70721
628.44        58.37394
628.87        58.30515
629.30        58.63899
629.73        58.48089
630.16        58.40619
630.59        58.30083
631.02        58.55046
631.45        58.36203
631.88        58.41726
632.31        58.48965
632.74        58.28965
633.17        58.40352
633.60           58.32
634.03         58.2239
634.46        58.15638
634.89        58.04962
635.32        58.01373
635.75        58.02065
636.18        58.06984
636.61        58.12916
637.04        58.14819
637.47        58.11792
637.89        58.06003
638.32        57.99347
638.75        57.97528
639.18        58.01654
639.61        58.09428
640.04        58.18636
640.47        58.25889
640.90        58.29717
641.33        58.31131
641.76        58.29574
642.18        58.24788
642.61        58.16041
643.04        58.04531
643.47        57.92985
643.90        57.86318
644.33         57.8579
644.76        57.89046
645.18        57.94243
645.61        58.00387
646.04        58.04958
646.47        58.02582
646.90        57.95534
647.33        57.93157
647.75        57.95705
648.18        58.00813
648.61         58.0842
649.04        58.11093
649.47        58.05957
649.89        58.30067
650.32        58.19427
650.75          58.191
651.18        58.10395
651.61        58.05144
652.03        58.02579
652.46        57.86621
652.89        57.68094
653.32        57.80078
653.74        58.07231
654.17        58.52605
654.60        57.86548
655.03        58.08474
655.46        57.74015
655.88        58.41362
656.31        59.76967
656.74        62.79033
657.16        61.45097
657.59        59.75788
658.02        58.34079
658.45        58.34991
658.87        58.39116
659.30        58.22208
659.73        58.33194
660.15        57.67736
660.58        58.44368
661.01         58.6554
661.44        58.77356
661.86        58.63549
662.29        58.30344
662.72        58.07017
663.14        57.99864
663.57        58.01506
664.00        58.08533
664.42        58.14628
664.85        58.18963
665.27        58.16006
665.70        58.24654
666.13        58.27618
666.55        58.30679
666.98        58.32842
667.41        58.33284
667.83        58.31786
668.26        58.29503
668.69        58.21658
669.11        58.09362
669.54        58.15051
669.96        58.43877
670.39        58.11498
670.82        58.54778
671.24        58.55388
671.67        58.51842
672.09        58.44584
672.52        58.38522
672.94        58.26701
673.37        58.14351
673.80        58.19716
674.22        58.39986
674.65        58.49572
675.07         58.4762
675.50        58.46239
675.92        58.46996
676.35        58.45047
676.77        58.40856
677.20        58.37534
677.62        58.37992
678.05        58.38404
678.47        58.37594
678.90        58.64493
679.32        58.64504
679.75         58.7779
680.17        58.87324
680.60        58.94796
681.02        58.98523
681.45        58.97234
681.87         58.9204
682.30        58.79786
682.72        58.66111
683.15        58.62405
683.57        58.65234
684.00        58.72044
684.42        58.46909
684.85        58.43849
685.27        58.51263
685.70        58.58953
686.12         58.6295
686.54        58.64566
686.97        58.63468
687.39        58.64999
687.82        58.70096
688.24        58.74498
688.66        58.76085
689.09        58.99511
689.51        58.99088
689.94        59.11265
690.36        59.20176
690.78        59.21318
691.21        59.15129
691.63        59.02984
692.06         58.9065
692.48        58.87968
692.90        58.94025
693.33        58.96214
693.75        58.94894
694.17        58.94519
694.60        58.93663
695.02        59.05937
695.44         59.0476
695.87        58.99627
696.29         58.9015
696.71        58.90676
697.14        59.01633
697.56        59.26897
697.98        59.58199
698.41        59.47253
698.83        59.51328
699.25        59.27817
699.68        59.01856
700.10        58.84531
700.52        58.80001
700.94        58.84627
701.37        58.92024
701.79        58.97168
702.21        58.95943
702.64         58.9152
703.06        58.86617
703.48        58.85844
703.90        58.90516
704.33        58.98012
704.75        59.06281
705.17        59.10587
705.59        59.09839
706.01        59.05422
706.44         59.0029
706.86        59.00813
707.28        59.07267
707.70         59.1806
708.12        59.30376
708.55        59.39003
708.97        59.42034
709.39        59.41727
709.81        59.40322
710.23        59.42012
710.66        59.47998
711.08        59.57638
711.50        59.66693
711.92        59.70458
712.34        59.67927
712.76         59.6035
713.19        59.50542
713.61        59.47635
714.03        59.51239
714.45        59.60714
714.87        59.71989
715.29        59.74575
715.71        59.66202
716.13        59.65192
716.56        59.46778
716.98        59.45002
717.40        59.52129
717.82        59.65973
718.24        59.81253
718.66        59.89955
719.08        59.90113
719.50        59.84071
719.92         59.7588
720.34        59.71706
720.76        59.73414
721.19        59.78445
721.61        59.85973
722.03        59.91914
722.45        59.95212
722.87        59.97157
723.29        59.99489
723.71        60.04856
724.13        60.13629
724.55        60.24144
724.97        60.34425
725.39        60.41603
725.81        60.44711
726.23         60.4466
726.65        60.42002
727.07        60.38115
727.49        60.34003
727.91         60.2828
728.33        60.22351
728.75         60.2226
729.17        60.26844
729.59        60.27096
730.01        60.24262
730.43        60.27357
730.85        60.36388
731.27        60.45078
731.69        60.51395
732.10        60.50113
732.52        60.58603
732.94        60.38471
733.36        60.05462
733.78        59.94118
734.20        60.08915
734.62        60.32051
735.04        60.54765
735.46        60.69752
735.88        60.73517
736.30         60.6893
736.72        60.58894
737.13        60.50844
737.55        60.44043
737.97        60.35741
738.39        60.28836
738.81        60.34131
739.23        60.49242
739.65        60.59721
740.06        60.59313
740.48        60.61017
740.90        60.61386
741.32        60.53192
741.74        60.41265
742.16        60.39013
742.57        60.49602
742.99        60.67093
743.41        60.84862
743.83         60.9053
744.25        60.81543
744.67        60.61821
745.08        60.41099
745.50        60.31438
745.92        60.37902
746.34        60.56593
746.75        60.79264
747.17        60.92172
747.59        60.91888
748.01        60.79595
748.42        60.63909
748.84        60.61127
749.26        60.70874
749.68        60.83356
750.09        60.92578
750.51        60.82021
750.93        60.60108
751.35        60.69366
751.76        61.03573
752.18        61.11719
752.60        60.90772
753.01        60.79115
753.43        60.64087
753.85         60.5177
754.27        60.39989
754.68        60.30205
755.10        60.26325
755.52        60.31979
755.93        60.47596
756.35        60.73039
756.77        61.00338
757.18        61.15396
757.60        61.14141
758.02        61.00179
758.43        60.88682
758.85        60.78092
759.26        61.11148
759.68        61.51507
760.10        61.31614
760.51         60.8858
760.93         60.8464
761.34        60.94881
761.76        61.32729
762.18        61.32049
762.59         60.9419
763.01        61.04426
763.42        60.85147
763.84         61.1129
764.26        61.16677
764.67         61.4813
765.09        61.83681
765.50        61.93604
765.92        61.81745
766.33        61.69047
766.75        61.59214
767.16        61.52583
767.58        61.46368
768.00         61.5596
768.41        61.77496
768.83        61.71177
769.24        61.38823
769.66        61.60948
770.07        61.43227
770.49        61.62452
770.90        61.83003
771.32        61.78006
771.73        61.52653
772.15        61.44931
772.56        61.59033
772.97        61.71864
773.39        61.76421
773.80        61.79523
774.22        61.76963
774.63        61.69446
775.05        61.60134
775.46        61.58746
775.88        61.65253
776.29        61.79922
776.70        61.94807
777.12        61.97995
777.53        61.88554
777.95        61.69044
778.36        61.48497
778.77         61.4083
779.19        61.49712
779.60         61.7185
780.02        61.97307
780.43        62.15514
780.84        62.23587
781.26        62.12453
781.67        61.94658
782.09        62.12373
782.50        62.54947
782.91        62.60523
783.33        62.30153
783.74        62.24475
784.15        62.43017
784.57        62.52715
784.98          62.529
785.39        62.55537
785.81        62.60363
786.22        62.63399
786.63        62.65372
787.04        62.67856
787.46         62.7224
787.87        62.76755
788.28        62.80674
788.70        62.81487
789.11        62.77141
789.52        62.69508
789.93        62.62789
790.35        62.62617
790.76        62.71656
791.17        62.88786
791.58        63.07669
792.00        63.17303
792.41        63.18103
792.82        63.08449
793.23        62.99438
793.65         63.0975
794.06        63.38571
794.47        63.74737
794.88        64.10818
795.29        63.93668
795.71        64.18008
796.12        63.97978
796.53        63.68295
796.94          63.565
797.35        63.62369
797.76        63.51969
798.18        63.25818
798.59        63.13355
799.00        63.15347
799.41        63.16407
799.82        63.14686
800.23        63.14593
800.64        63.15481
801.06        63.13842
801.47        63.13714
801.88        63.14852
802.29        63.17593
802.70        63.21685
803.11        63.27326
803.52        63.34655
803.93          63.439
804.34        63.54981
804.75        63.67116
805.17        63.80301
805.58        63.96732
805.99        64.07508
806.40        64.13338
806.81        64.31995
807.22        64.54935
807.63        64.44952
808.04        64.09626
808.45        63.95271
808.86        64.06495
809.27         64.1834
809.68        64.24822
810.09        64.26498
810.50        64.21049
810.91        64.09323
811.32        63.94175
811.73        63.79995
812.14        63.68842
812.55        63.59847
812.96        63.54476
813.37        63.54963
813.78        63.61116
814.19        63.72147
814.60        63.84334
815.01        63.91719
815.42        63.92905
815.83        63.89276
816.24        63.83171
816.65        63.79314
817.05         63.8046
817.46        63.83305
817.87        63.89726
818.28        63.98517
818.69        64.09341
819.10        64.22257
819.51        64.38042
819.92        64.57505
820.33        64.78761
820.74        64.99059
821.14        65.13974
821.55        65.19398
821.96        65.13794
822.37        65.00013
822.78         64.7978
823.19        64.56639
823.60        64.33558
824.00        64.11277
824.41        63.93809
824.82        63.93301
825.23        64.10731
825.64        64.43424
826.04        64.78999
826.45        64.93508
826.86        64.83268
827.27        64.54456
827.68        64.20837
828.08        64.09867
828.49        64.22288
828.90        64.54143
829.31        64.96294
829.72        65.23952
830.12        65.31006
830.53        65.61902
830.94        65.42568
831.35        65.27608
831.75        64.98885
832.16        64.56638
832.57        64.16833
832.97        64.06619
833.38        64.30378
833.79        64.78481
834.20         65.3358
834.60        65.68808
835.01        65.76807
835.42        65.65745
835.82        65.42726
836.23        65.16209
836.64        64.93526
837.04        64.73212
837.45        64.57941
837.86        64.57977
838.26        64.75169
838.67        65.06232
839.08        65.43098
839.48        65.69964
839.89        65.81628
840.29         65.8163
840.70        65.75946
841.11        65.75496
841.51          65.845
841.92        65.94875
842.33        66.04649
842.73        66.10648
843.14        66.07281
843.54        66.00919
843.95        65.89436
844.35        65.70837
844.76        65.46059
845.17        65.16988
845.57        64.94434
845.98        64.92505
846.38        65.16241
846.79         65.5837
847.19        66.08221
847.60        66.40594
848.00        66.51704
848.41         66.4343
848.81        66.28923
849.22        66.24734
849.62        66.39301
850.03        66.62924
850.43        66.88274
850.84        66.94025
851.24         66.8038
851.65        66.47158
852.05        66.10819
852.46        65.90601
852.86        65.92792
853.27        66.15364
853.67        66.36147
854.07        66.37583
854.48        66.13304
854.88        65.70947
855.29         65.2411
855.69        65.13648
856.10        65.40642
856.50        66.02139
856.90        66.66985
857.31        66.87595
857.71        66.57332
858.12        65.85149
858.52        64.99698
858.92        64.43906
859.33        64.30753
859.73        64.52218
860.13        64.90872
860.54        65.17466
860.94        65.27582
861.34        65.25732
861.75        65.16084
862.15        65.12298
862.55        65.14322
862.96        65.15673
863.36        65.12924
863.76        64.97277
864.17        64.67402
864.57        64.30299
864.97        63.92721
865.38        63.63201
865.78        63.49557
866.18        63.50216
866.58        63.64597
866.99        63.87811
867.39         64.1901
867.79        64.54523
868.19        64.90935
868.60        65.14474
869.00        65.29896
869.40        65.58305
869.80        65.84622
870.21        65.61474
870.61        64.90804
871.01        63.97078
871.41        63.06744
871.81        62.46937
872.22        62.27308
872.62        62.40952
873.02        62.79946
873.42        63.44677
873.82        64.06356
874.22        64.17638
874.63        64.00463
875.03        64.01018
875.43        64.24554
875.83        65.38419
876.23        64.82355
876.63        64.28754
877.03        63.55179
877.44        62.04117
877.84        166.7701
878.24        63.47981
878.64        63.63691
879.04        64.17524
879.44        63.72953
879.84        59.76775
880.24        65.07143
880.64         65.7126
881.04        63.87344
881.44        62.43418
881.84        61.77905
882.24        62.10966
882.65        62.93612
883.05        63.02678
883.45        62.15931
883.85        61.17476
884.25        60.45409
884.65        60.18756
885.05        60.47283
885.45        61.15769
885.85        62.00536
886.25        62.70313
886.65        63.14654
887.05        63.42788
887.45        63.52578
887.85        63.40843
888.25        63.11109
888.65        62.63177
889.04        62.16694
889.44        62.06643
889.84        62.37984
890.24        62.98519
890.64        63.64034
891.04        63.97561
891.44        63.91005
891.84        63.57536
892.24        63.07994
892.64        62.61666
893.04        62.29152
893.44         62.0632
893.83        62.00654
894.23        62.20424
894.63         62.6559
895.03        63.33224
895.43        64.08659
895.83        64.65441
896.23        64.94926
896.63        65.01595
897.02        64.93127
897.42         64.8932
897.82        64.92058
898.22        64.94989
898.62        64.93835
899.01        64.82803
899.41          64.592
899.81        64.30707
900.21        63.97966
900.61        63.60289
901.00        63.19043
901.40        62.81276
901.80        62.59253
902.20        62.57309
902.59        62.74204
902.99        63.34582
903.39        64.30947
903.79        63.84769
904.18        64.52543
904.58        64.28302
904.98        63.97116
905.38        63.63452
905.77        63.31631
906.17        63.01329
906.57        62.72078
906.96        62.53899
907.36        62.48568
907.76         62.5747
908.15        62.78876
908.55         62.9403
908.95        63.03183
909.34         63.0429
909.74        63.08269
910.14        63.29146
910.53        63.67787
910.93        64.17132
911.33        64.57191
911.72        64.56837
912.12        64.12509
912.52        63.36381
912.91        62.52657
913.31        62.07323
913.70        62.09318
914.10        62.46337
914.49        63.00762
914.89        63.33886
915.29         63.3597
915.68        63.15445
916.08        62.88232
916.47        62.74285
916.87        62.82513
917.26         63.0633
917.66         63.3259
918.05        63.43121
918.45        63.32656
918.84        63.08769
919.24        62.89396
919.64        63.08561
920.03        63.71571
920.42        64.63712
920.82        65.54631
921.21        65.98739
921.61        65.87202
922.00        65.39041
922.40        64.85828
922.79        64.65302
923.19        64.51868
923.58        65.20722
923.98        66.88672
924.37        66.87051
924.77        63.71339
925.16        71.24482
925.55        64.61724
925.95        64.92777
926.34        65.08112
926.74        64.83019
927.13        64.00218
927.52        63.48075
927.92        63.65194
928.31        63.95028
928.70        64.39139
929.10        64.91697
929.49        65.50478
929.89        66.18882
930.28        66.73318
930.67          66.636
931.07        65.84213
931.46        64.39851
931.85        62.88094
932.24        62.71708
932.64        64.13857
933.03        66.10006
933.42        67.51879
933.82        70.08758
934.21         68.4109
934.60        66.76035
934.99        64.99358
935.39        64.49835
935.78        65.40829
936.17        67.91965
936.56         74.6362
936.96        68.14334
937.35        71.72737
937.74        68.24447
938.13        65.49352
938.53        63.33097
938.92         62.6254
939.31        63.82508
939.70         65.5556
940.09        66.41076
940.49        66.06595
940.88        65.01445
941.27        63.74734
941.66        63.16653
942.05        63.58503
942.44        64.61817
942.84        65.73706
943.23        66.32603
943.62        66.21869
944.01         65.6095
944.40         64.9156
944.79        64.82093
945.18        65.48558
945.57        66.67398
945.97        67.84098
946.36        68.26479
946.75         67.7352
947.14        66.48334
947.53        65.04121
947.92        64.32491
948.31        64.58598
948.70        65.53008
949.09        66.63872
949.48        67.11237
949.87        66.76585
950.26        65.88406
950.65         64.8372
951.04        64.21659
951.43        64.20839
951.82        64.60054
952.21        65.20988
952.60        65.73848
952.99        66.03789
953.38         66.1949
953.77        66.21671
954.16        66.08833
954.55        65.84843
954.94        65.52639
955.33         65.1603
955.72        64.85966
956.11         64.6759
956.50        64.54943
956.89        64.62868
957.28         65.1205
957.66        66.02919
958.05        67.21632
958.44        68.22536
958.83        68.36573
959.22        67.51012
959.61        65.77493
960.00         63.7921
960.39        62.81773
960.78        63.22615
961.16        64.68681
961.55        66.25723
961.94        66.73985
962.33        65.90761
962.72        64.06261
963.11        61.95075
963.49         61.0974
963.88        61.97804
964.27        64.02873
964.66        66.25519
965.04        67.31858
965.43        66.88745
965.82        65.42027
966.21        63.55432
966.60        62.40464
966.98        62.35114
967.37        63.04634
967.76        64.04289
968.15        64.61909
968.53        64.57634
968.92         64.1588
969.31        63.65244
969.69        63.47614
970.08        63.72546
970.47        64.21067
970.86        64.79235
971.24        65.27456
971.63        65.54494
972.02        65.69123
972.40        65.70081
972.79        65.44454
973.17        64.99412
973.56        64.39057
973.95        63.82882
974.33        63.66704
974.72         63.9835
975.11        64.63847
975.49        65.53616
975.88         66.4211
976.26        67.24345
976.65        67.98935
977.04        68.49744
977.42        68.50546
977.81        67.94842
978.19         66.8059
978.58        65.67408
978.96        65.59932
979.35        66.74898
979.74        68.69551
980.12        70.59335
980.51        71.20216
980.89        70.46978
981.28        68.61812
981.66        66.21808
982.05        64.74966
982.43        64.82758
982.82        66.11324
983.20         67.8903
983.59        69.02857
983.97        69.25591
984.35        68.82762
984.74        68.11562
985.12        67.84106
985.51        68.16079
985.89        68.88347
986.28        69.53292
986.66        69.51746
987.04        68.79733
987.43        67.49407
987.81        65.89107
988.20        66.12369
988.58        68.56985
988.96        69.90135
989.35        69.05422
989.73        75.55212
990.12        72.19342
990.50        72.18187
990.88        71.15905
991.27         70.0618
991.65        68.99184
992.03         67.9873
992.42        67.34671
992.80        66.94873
993.18         66.8066
993.56        67.07958
993.95        67.46772
994.33        67.37544
994.71        66.71674
995.10        65.61391
995.48        64.60319
995.86        64.58461
996.24        65.71978
996.63        67.60336
997.01        69.69601
997.39         70.9627
997.77        71.10493
998.15        70.37776
998.54        69.27254
998.92        68.46169
999.30         68.2254
999.68         68.4798
1000.06        68.84919
1000.45        68.57111
1000.83        67.58888
1001.21         66.1937
1001.59         65.2246
1001.97        65.83899
1002.35        67.98734
1002.73        70.98653
1003.12        73.86191
1003.50        75.46109
1003.88        75.59453
1004.26          74.671
1004.64        73.06516
1005.02        71.62075
1005.40         70.7637
1005.78        70.19973
1006.16         70.0704
1006.54        70.54497
1006.92        71.54226
1007.30        73.14448
1007.69        74.56763
1008.07         74.6959
1008.45        73.33878
1008.83        70.68497
1009.21        67.87928
1009.59        67.37976
1009.97        69.65602
1010.35        73.46156
1010.73        77.19364
1011.11        79.39799
1011.49        80.02445
1011.86        79.32034
1012.24        77.36391
1012.62        77.74894
1013.00        78.05589
1013.38        77.70441
1013.76        75.25806
1014.14        79.61024
1014.52        86.09492
1014.90        79.04379
1015.28        80.90671
1015.66        82.44248
1016.04        78.68024
1016.41        78.09349
1016.79        76.20572
1017.17        75.05387
1017.55        74.14162
1017.93        73.55457
1018.31        73.71977
1018.69        74.63917
1019.06        76.23183
1019.44        78.35851
1019.82        80.04002
1020.20        79.91212
1020.58        77.68996
1020.95        73.16927
1021.33        67.57806
1021.71        65.13064
1022.09        67.77869
1022.46        73.43686
1022.84        78.97892
1023.22        82.15072
1023.60        83.07095
1023.97        82.56241
1024.35        81.28091
1024.73        80.46461
