SpectraSmart Spectrum 2.9.0.0
--------- Device Information -----------
Spectrum Name :  反射率_0
Saving Time :  2024/04/21 00:02:45
Spectro-Module Model Name : SE2030-DUVN
Spectro-Module Serial Number : OS361AC55029948
Wavelength Start : 200
Wavelength End : 1025
Wavelength Unit : Wavelength(nm)
Spectrum Unit : Reflectance(%)
-----------Spectrum Setting ------------
Integration Time : 20ms
Average : 10
Boxcar : 0
Background removal :  enabled
linearity correction :  enabled
SC :  disabled
Intensity correction :  disabled
DWT denoise :  enabled
savitzky-golay :  disabled
FFT :  disabled
Running average :  disabled
Kalman :  disabled
High pass :  disabled
---------------BEGIN--------------------
Wavelength(nm)             Reflectance(%)
200.29               0
200.75       -25.45629
201.21        23.67969
201.67        47.62896
202.13        53.77942
202.58        49.21138
203.04        36.99605
203.50        20.47455
203.96         10.5096
204.42        12.53437
204.88        22.14614
205.34        33.74073
205.80        39.72913
206.26        37.83413
206.72        30.49377
207.18        16.79259
207.64       -3.347323
208.10       -25.14054
208.55       -46.75185
209.01       -51.99133
209.47       -26.37724
209.93        5.265921
210.39        29.32721
210.85        44.59417
211.31        52.14997
211.77        54.88859
212.23        55.03454
212.69        50.50432
213.14         34.6791
213.60       -8.854813
214.06       -162.2697
214.52       -546.3936
214.98        -222.408
215.44       -17.39114
215.90        50.09119
216.36        73.32217
216.81        79.56156
217.27         76.0598
217.73        47.58455
218.19        425.2646
218.65         247.977
219.11        -438.106
219.57         21.4395
220.02        52.01245
220.48        58.34592
220.94         57.1576
221.40        49.54338
221.86        31.13831
222.32        21.77311
222.77        41.30548
223.23        56.61545
223.69        63.77344
224.15        65.74636
224.61        65.01552
225.06        62.93749
225.52        60.25625
225.98        57.73803
226.44        55.89769
226.90        54.05767
227.36        53.59239
227.81        56.41133
228.27         60.8511
228.73        65.05119
229.19        67.54252
229.65        67.46014
230.10        65.13376
230.56        61.34236
231.02        56.62371
231.48        53.42651
231.93        53.60584
232.39        56.38112
232.85        59.90004
233.31        62.73016
233.77        64.97803
234.22        67.38415
234.68        69.68631
235.14        71.23933
235.60        71.90215
236.05        71.43845
236.51        70.41087
236.97        72.36295
237.43        77.62074
237.88        82.30703
238.34        84.86732
238.80        91.55196
239.26         89.2394
239.71        86.99691
240.17        81.77515
240.63        77.33859
241.08        77.30388
241.54        83.02982
242.00        92.32096
242.46         98.0079
242.91        98.08897
243.37        91.70953
243.83        80.89971
244.28          75.077
244.74        79.36617
245.20        89.23563
245.66        97.91382
246.11        98.30108
246.57         89.8425
247.03        74.99927
247.48        56.05481
247.94        36.36744
248.40        13.57035
248.85       -32.03417
249.31       -156.9538
249.77       -226.1773
250.22       -25.76815
250.68        51.03386
251.14        74.47751
251.59        80.88007
252.05        81.24118
252.51        77.63802
252.96        72.00066
253.42        72.46278
253.88        82.47623
254.33        95.98431
254.79        108.0104
255.25        113.6952
255.70        114.2236
256.16        113.6892
256.62         112.659
257.07        111.3979
257.53        110.8517
257.99        110.2854
258.44        109.4756
258.90        109.4044
259.35        109.1129
259.81        109.1224
260.27        108.7708
260.72        107.5153
261.18         106.126
261.63        104.2766
262.09        102.6777
262.55        101.1181
263.00        99.41712
263.46        97.92771
263.91        96.32829
264.37        94.97871
264.83        93.75799
265.28        92.54913
265.74         91.5458
266.19         90.5407
266.65        89.62783
267.11        88.70223
267.56        87.66734
268.02        86.54514
268.47          85.248
268.93         83.8443
269.38        82.31048
269.84        80.72491
270.30        79.10857
270.75        77.47595
271.21        75.90288
271.66        74.39314
272.12        73.00707
272.57        71.67431
273.03        70.47036
273.48        69.36942
273.94        68.39755
274.39         67.4836
274.85         66.5478
275.31        65.34527
275.76        63.85725
276.22        62.26183
276.67        60.73996
277.13        59.72233
277.58        59.16096
278.04        58.96618
278.49        58.81972
278.95        58.46069
279.40        57.73123
279.86          56.808
280.31          55.731
280.77        54.73637
281.22         53.8154
281.68        53.00265
282.13        52.19971
282.59         51.4182
283.04        50.61015
283.50         49.8634
283.95        49.21362
284.41        48.79065
284.86        48.56778
285.32        48.52467
285.77        48.52782
286.22        48.45582
286.68        48.29216
287.13        48.00812
287.59        47.71188
288.04        47.43388
288.50        47.20312
288.95        47.06752
289.41        47.02452
289.86        46.67651
290.32        45.99356
290.77        46.35557
291.22        45.55896
291.68        45.58291
292.13        45.76099
292.59        46.13162
293.04        46.63247
293.50         47.2378
293.95        47.92479
294.40        48.67476
294.86        49.46865
295.31        50.26647
295.77        51.06504
296.22        51.85724
296.68        52.66119
297.13        53.48334
297.58        54.35035
298.04        55.25945
298.49        56.23945
298.95        57.36527
299.40        58.60993
299.85        59.94804
300.31        61.28329
300.76        62.42842
301.21        63.37032
301.67        64.20299
302.12        65.00132
302.58        66.00324
303.03        67.21854
303.48        68.62505
303.94        70.16031
304.39        71.66781
304.84        73.10654
305.30        74.52373
305.75        75.88989
306.20        77.27875
306.66        78.70257
307.11        80.08252
307.57        81.40426
308.02        82.56287
308.47        83.57899
308.93        84.53002
309.38        85.43501
309.83        86.39017
310.29        87.47023
310.74        88.57161
311.19        89.69175
311.65        90.78652
312.10        91.81435
312.55        92.79578
313.00        93.68808
313.46        94.42874
313.91        95.00247
314.36        95.44001
314.82        95.84197
315.27        96.35931
315.72        97.03378
316.18        97.82546
316.63        98.63879
317.08        99.31786
317.53        99.81245
317.99        100.1554
318.44        100.4173
318.89         100.701
319.35        101.0325
319.80        101.3866
320.25        101.7033
320.70        101.8945
321.16        101.9407
321.61        101.9022
322.06        101.8536
322.51        101.9159
322.97        102.1043
323.42        102.4109
323.87        102.7624
324.32        103.0542
324.78        103.2315
325.23        103.3638
325.68        103.4558
326.13        103.5445
326.59        103.6276
327.04        103.7486
327.49        103.9008
327.94        104.1135
328.39        104.3887
328.85        104.6819
329.30        105.0411
329.75        105.4122
330.20        105.7717
330.66        106.0824
331.11        106.3654
331.56        106.5239
332.01        106.5582
332.46        106.5047
332.92        106.3961
333.37        106.4318
333.82        106.6199
334.27         106.936
334.72         107.379
335.17        107.9349
335.63        108.5444
336.08        109.2573
336.53        109.9638
336.98        110.5327
337.43        110.9253
337.88        111.1569
338.34        111.2807
338.79         111.461
339.24         111.724
339.69        112.0456
340.14        112.3843
340.59        112.6713
341.05         112.895
341.50         113.092
341.95        113.3107
342.40        113.6281
342.85        114.0523
343.30        114.5439
343.75        115.0257
344.20        115.3829
344.66         115.598
345.11        115.6944
345.56          115.73
346.01        115.7975
346.46        115.9288
346.91        116.0743
347.36        116.2145
347.81        116.3736
348.26        116.5452
348.72        116.5433
349.17        116.6697
349.62        116.6061
350.07        116.4561
350.52        116.2265
350.97        115.9556
351.42         115.705
351.87        115.4936
352.32        115.3105
352.77        115.1441
353.22        114.9683
353.67        114.7714
354.13        114.5781
354.58        114.3447
355.03        114.0571
355.48        113.7114
355.93        113.3011
356.38        112.8662
356.83        112.4719
357.28        112.1147
357.73        111.7659
358.18        111.3472
358.63        110.7363
359.08         109.927
359.53        108.9877
359.98        108.0102
360.43        107.1272
360.88        106.3736
361.33        105.7013
361.78        105.0996
362.23        104.5488
362.68        104.0255
363.13        103.5403
363.58        103.0082
364.03         102.292
364.48        101.3745
364.93        100.2907
365.38        99.18351
365.83         98.2942
366.28         97.6739
366.73        97.24554
367.18        96.86645
367.63        96.30463
368.08        95.50318
368.53        94.54837
368.98        93.52567
369.43        92.55363
369.88        91.67222
370.33        90.84135
370.78         90.0626
371.23        89.35908
371.68        88.73864
372.13        88.20721
372.58        87.74557
373.03            87.3
373.48        86.84439
373.93        86.38383
374.38        85.89867
374.83        85.37412
375.28        84.82047
375.72        84.22597
376.17        83.66727
376.62        83.19125
377.07        82.79016
377.52        82.43039
377.97        82.05769
378.42        81.59308
378.87        81.03443
379.32        80.43449
379.77        79.82259
380.22         79.2229
380.67        78.64012
381.11        78.06096
381.56        77.52367
382.01        77.11584
382.46        76.85484
382.91        76.72121
383.36        76.60438
383.81        76.33065
384.26        75.86398
384.71        75.24781
385.15        74.59332
385.60        74.14242
386.05        73.91447
386.50        73.83886
386.95        73.77948
387.40        73.52798
387.85        73.05601
388.29        72.41544
388.74        71.82108
389.19        71.37221
389.64        71.09223
390.09        70.92326
390.54        70.81354
390.98        70.67058
391.43        70.49902
391.88        70.31087
392.33        70.11916
392.78        69.91914
393.23        69.71131
393.67        69.51217
394.12        69.37511
394.57        69.09296
395.02        68.71577
395.47        68.53677
395.91        68.54423
396.36        68.42223
396.81        68.18246
397.26        68.04038
397.71        67.95148
398.15        67.77637
398.60        67.59131
399.05        67.23003
399.50        66.85878
399.95        67.00568
400.39        67.53341
400.84        67.69575
401.29        67.40199
401.74        66.90121
402.18        66.35334
402.63        66.07539
403.08        66.04191
403.53         65.7898
403.97        65.32502
404.42        65.02644
404.87        64.91842
405.32        64.89491
405.76        64.94514
406.21        65.01628
406.66        65.07096
407.11        65.27168
407.55        65.51727
408.00        65.27834
408.45        64.66071
408.90         64.3031
409.34        64.27482
409.79         64.2736
410.24        64.23446
410.68        64.18321
411.13        64.10062
411.58        63.99459
412.03        63.88803
412.47        63.82874
412.92        63.80404
413.37        63.80729
413.81        63.81924
414.26        63.86311
414.71        63.91628
415.15        63.99328
415.60        64.03456
416.05         63.9939
416.49        63.86671
416.94        63.66158
417.39        63.44132
417.83        63.29337
418.28        63.24013
418.73         63.2569
419.17        63.29109
419.62        63.26563
420.07        63.16597
420.51        63.01617
420.96        62.88585
421.41         62.8541
421.85         62.9123
422.30         63.0023
422.74        63.07043
423.19        63.29395
423.64        63.57307
424.08        63.57914
424.53        63.30937
424.98         63.2172
425.42         63.3588
425.87        63.45004
426.31        63.48323
426.76         63.6113
427.21        63.79412
427.65        63.88603
428.10        63.86025
428.54        63.81821
428.99        63.80939
429.44        63.83337
429.88        63.80988
430.33        63.66796
430.77        63.42717
431.22         63.2466
431.66        63.18559
432.11        63.56126
432.56        64.28392
433.00        64.44101
433.45        63.82877
433.89        63.73742
434.34        64.34995
434.78        63.14767
435.23        63.28941
435.67        63.75548
436.12        64.48895
436.57        64.59869
437.01        63.99748
437.46        63.68133
437.90        64.35048
438.35        64.38266
438.79        64.48132
439.24         64.4436
439.68        64.45118
440.13        64.40182
440.57        64.30238
441.02        64.36914
441.46        64.55028
441.91        64.41237
442.35        64.06116
442.80        64.47986
443.24        65.40562
443.69        65.49863
444.13        64.79981
444.58        64.43906
445.02        64.51102
445.47        64.73465
445.91        64.98783
446.36         65.1033
446.80        65.04041
447.24        64.90394
447.69        64.77898
448.13        64.89919
448.58        65.04348
449.02        65.03573
449.47        64.84174
449.91         64.7584
450.36        64.81251
450.80        64.75291
451.25        64.61967
451.69        64.63641
452.13        64.75483
452.58        64.64179
453.02        64.33008
453.47        64.15886
453.91        64.14346
454.36        64.12668
454.80        64.05821
455.24        63.98934
455.69        63.94161
456.13        63.74788
456.58        63.51595
457.02        63.75049
457.46         64.0107
457.91         64.0835
458.35        63.95791
458.79        63.86758
459.24        63.84608
459.68        63.74685
460.13        63.65039
460.57        63.45676
461.01        63.15352
461.46        63.63082
461.90        63.20972
462.34        63.36411
462.79        63.28896
463.23        63.42956
463.68        63.59379
464.12        63.32264
464.56        62.78864
465.01         62.8735
465.45        63.37263
465.89        63.49261
466.34        63.26773
466.78        63.05923
467.22        62.91175
467.67        63.27323
468.11         62.9937
468.55        63.05992
468.99        63.08309
469.44        63.02702
469.88        62.87406
470.32        62.63135
470.77        62.37438
471.21        62.20241
471.65        62.14681
472.10        62.18949
472.54        62.24759
472.98        62.24053
473.42        62.15891
473.87        61.95559
474.31        61.69661
474.75        61.79962
475.20        62.15705
475.64        62.14718
476.08        61.82052
476.52        61.73408
476.97        61.87686
477.41        62.04964
477.85        62.15154
478.29         61.9939
478.74          61.468
479.18        61.58073
479.62         61.8567
480.06        61.98471
480.50        61.85868
480.95        61.79892
481.39        61.77484
481.83        61.91316
482.27        62.36623
482.72        61.90435
483.16        62.22977
483.60        62.55081
484.04        62.54138
484.48        62.18925
484.93        62.01389
485.37        61.86232
485.81        61.89282
486.25         61.4904
486.69        62.28299
487.14        62.20243
487.58        61.56709
488.02        62.01511
488.46        61.38324
488.90        61.40201
489.34        61.36525
489.79        60.88053
490.23        61.57209
490.67          61.715
491.11        61.77743
491.55        61.67676
491.99        61.50253
492.43         61.4374
492.88        61.49665
493.32        61.60702
493.76        61.63361
494.20        61.59989
494.64        61.53343
495.08        60.90231
495.52        60.45731
495.96        60.75879
496.41        61.70976
496.85        61.74747
497.29        60.93293
497.73        60.80241
498.17        61.05606
498.61        61.35107
499.05        61.43187
499.49         61.1074
499.93        60.55527
500.37        60.48838
500.82        60.86092
501.26        61.09512
501.70        61.10252
502.14        60.75409
502.58        60.62739
503.02        60.53268
503.46        60.58779
503.90        60.67997
504.34        60.74459
504.78        60.77567
505.22        60.74055
505.66        60.66803
506.10        60.61384
506.54        60.53901
506.98        60.42343
507.42         60.7206
507.86        60.74223
508.30        60.61056
508.74        60.72632
509.18        60.61476
509.62         60.4924
510.06        60.44738
510.50        60.48923
510.94        60.51204
511.38         60.4803
511.82        60.42128
512.26        60.32735
512.70        60.17216
513.14        60.01104
513.58        59.95228
514.02        60.01244
514.46        60.15458
514.90        60.29908
515.34        60.35213
515.78        60.29221
516.22        60.12197
516.66        59.75389
517.10        59.89462
517.54        59.66629
517.98        59.74887
518.42        59.83997
518.86        59.90947
519.30        59.93606
519.74        59.90151
520.18        59.85736
520.62        59.95286
521.06        60.15266
521.50        60.21947
521.93        60.13998
522.37        60.08954
522.81        60.07575
523.25        59.99279
523.69        59.87182
524.13        59.81517
524.57        59.83656
525.01        59.90801
525.45        60.00464
525.89         60.0849
526.32        60.13145
526.76        60.15955
527.20        60.17624
527.64        60.19617
528.08        60.22054
528.52        60.24115
528.96        60.24939
529.40        60.22692
529.83        60.17144
530.27        60.12456
530.71        60.07823
531.15        60.01505
531.59        59.94069
532.03        59.86671
532.46        59.81333
532.90         59.8256
533.34        59.89956
533.78        60.01466
534.22        60.12917
534.66        60.17925
535.09         60.1428
535.53        60.06293
535.97         59.9509
536.41        59.84284
536.85        59.75513
537.28        59.67682
537.72        59.62581
538.16        59.63195
538.60        59.69168
539.04        59.79504
539.47        59.88291
539.91         59.9135
540.35         59.8604
540.79        59.74615
541.22        59.60647
541.66        59.51559
542.10        59.48954
542.54        59.50556
542.97        59.54186
543.41        59.59414
543.85        59.64997
544.29        59.72628
544.72        59.79348
545.16        59.85803
545.60         59.9054
546.04        59.85702
546.47        59.77455
546.91        59.90366
547.35         60.1678
547.79        60.25031
548.22        60.11101
548.66        59.88404
549.10        59.66409
549.53        59.62808
549.97        59.76679
550.41        59.81517
550.84        59.76138
551.28        59.77984
551.72        59.85918
552.15        59.91751
552.59        59.95956
553.03        59.86141
553.46        59.91993
553.90        59.84392
554.34        59.70224
554.77        59.79241
555.21        59.62506
555.65         59.6545
556.08         59.7407
556.52        59.86678
556.96         59.9864
557.39        60.09453
557.83        60.16323
558.27        60.05519
558.70        59.84318
559.14        59.74673
559.57         59.7755
560.01        59.93821
560.45        60.11177
560.88        59.97651
561.32        59.64634
561.75        59.46519
562.19        59.51278
562.63        59.64848
563.06        59.79424
563.50        59.82233
563.93        59.71746
564.37        59.62231
564.80        59.55329
565.24         59.5993
565.68        59.75344
566.11        59.73594
566.55        59.81292
566.98        59.92088
567.42        60.09164
567.85        60.02172
568.29          59.848
568.72        59.86505
569.16        60.02729
569.60          60.444
570.03         60.1818
570.47        60.16378
570.90        60.11279
571.34        60.27447
571.77        60.31462
572.21        60.36721
572.64        60.27818
573.08        60.10791
573.51         60.0956
573.95         60.3973
574.38        60.12545
574.82        60.58826
575.25         60.5778
575.69        60.44614
576.12        60.04782
576.56        60.42104
576.99        60.63091
577.42         60.4493
577.86        60.76823
578.29        60.80063
578.73        60.88594
579.16        60.14868
579.60        60.24199
580.03        60.49208
580.47        60.56573
580.90        60.50454
581.33        60.52244
581.77        60.79309
582.20        60.90517
582.64        60.91817
583.07        60.45798
583.51         60.3906
583.94        60.43232
584.37        60.44605
584.81        60.11757
585.24        59.96376
585.68        60.32499
586.11        60.35461
586.54        60.58699
586.98        60.36105
587.41        60.44892
587.85        60.58857
588.28         60.2986
588.71        60.56477
589.15        60.23359
589.58         60.2469
590.01        60.04116
590.45         60.1829
590.88        60.32928
591.31        60.13462
591.75        60.15422
592.18        60.10973
592.61        60.15148
593.05        60.44418
593.48        60.60728
593.91         60.4823
594.35        60.39544
594.78        60.54933
595.21        60.30022
595.65        60.39993
596.08        60.52554
596.51        60.69291
596.94        60.35998
597.38        60.26925
597.81        60.31401
598.24        60.42947
598.68        60.34817
599.11        60.30009
599.54        60.39159
599.97        60.28559
600.41        60.19006
600.84        60.68852
601.27        60.49394
601.70        60.46535
602.14        60.35154
602.57        60.26867
603.00        60.21877
603.43        60.59034
603.87         60.6354
604.30        60.43212
604.73        60.31234
605.16        60.17769
605.60        60.43241
606.03        60.57013
606.46        60.73531
606.89        60.03035
607.32        60.08563
607.76        60.57671
608.19          60.452
608.62        60.19429
609.05        60.91227
609.48        60.52918
609.92        60.79579
610.35        60.35724
610.78        60.57647
611.21        60.29565
611.64        60.39403
612.07         60.4109
612.50        60.47737
612.94        60.49549
613.37        60.46704
613.80        60.39743
614.23        60.30449
614.66        60.26099
615.09        60.27817
615.52        60.26907
615.96        60.21643
616.39        60.22715
616.82        60.31561
617.25        60.08446
617.68        60.18945
618.11         60.1068
618.54        60.19448
618.97        60.15405
619.40        60.03045
619.84        59.98986
620.27        60.04257
620.70        59.90462
621.13        59.66009
621.56         59.7931
621.99        60.28169
622.42        60.44797
622.85        60.20873
623.28        60.27338
623.71         60.2759
624.14         60.2444
624.57        60.01802
625.00        60.62689
625.43        59.91673
625.86        60.04804
626.29        60.41972
626.72        60.02506
627.15        60.21868
627.58        60.15638
628.01        60.32949
628.44        60.02478
628.87        59.95656
629.30        60.45809
629.73        60.06871
630.16        60.23423
630.59        59.99435
631.02        60.32032
631.45        60.18523
631.88        60.22791
632.31        60.19477
632.74        60.12883
633.17        60.08172
633.60        60.00022
634.03        59.91152
634.46        59.87075
634.89        59.79271
635.32        59.77754
635.75        59.79773
636.18        59.84982
636.61        59.91726
637.04        59.97377
637.47        60.01099
637.89         60.0421
638.32        60.06227
638.75        60.08227
639.18        60.10463
639.61        60.15871
640.04         60.1834
640.47        60.22881
640.90        60.27371
641.33        60.31606
641.76        60.35154
642.18        60.37985
642.61        60.38754
643.04        60.38587
643.47        60.36672
643.90        60.33001
644.33         60.2785
644.76        60.18501
645.18        60.08282
645.61        60.11065
646.04        60.16378
646.47        60.25935
646.90        60.31709
647.33        60.32798
647.75        60.26959
648.18        60.09538
648.61        59.91582
649.04        59.94505
649.47        60.12088
649.89        60.52351
650.32        60.42978
650.75         60.3824
651.18        60.21183
651.61        60.14146
652.03        60.23596
652.46        60.15086
652.89        59.86411
653.32        60.36406
653.74        60.52555
654.17        60.15255
654.60        60.01374
655.03        59.90934
655.46        59.81389
655.88        60.18147
656.31        61.07001
656.74        63.57397
657.16        62.13796
657.59        60.54409
658.02          59.923
658.45        60.24479
658.87        60.48962
659.30         60.4766
659.73        60.40966
660.15        59.81372
660.58        60.30604
661.01        60.54771
661.44        60.83028
661.86         60.8074
662.29        60.50816
662.72        60.26651
663.14        60.16605
663.57        60.17823
664.00        60.26553
664.42        60.28972
664.85        60.24823
665.27        60.14782
665.70        60.19987
666.13        60.21208
666.55        60.24717
666.98        60.30466
667.41        60.35862
667.83        60.37175
668.26        60.34613
668.69        60.24075
669.11        60.08135
669.54        60.11488
669.96        60.39981
670.39        60.08677
670.82        60.57938
671.24        60.56967
671.67         60.4833
672.09        60.47769
672.52        60.57242
672.94        60.51525
673.37        60.34734
673.80        60.35423
674.22        60.52105
674.65         60.5672
675.07        60.49362
675.50        60.43178
675.92        60.40463
676.35        60.37172
676.77        60.33694
677.20        60.32958
677.62        60.36787
678.05        60.38559
678.47        60.36102
678.90        60.63053
679.32          60.603
679.75        60.69469
680.17        60.71115
680.60        60.79383
681.02         60.9641
681.45        60.64761
681.87        60.84983
682.30        60.73128
682.72        60.63621
683.15        60.64623
683.57        60.72596
684.00        60.82338
684.42        60.57775
684.85        60.52002
685.27        60.54078
685.70        60.53105
686.12        60.48027
686.54         60.4659
686.97        60.48364
687.39        60.53667
687.82        60.61357
688.24        60.66541
688.66        60.66271
689.09        60.86221
689.51         60.8023
689.94        60.87587
690.36        60.93163
690.78        60.93693
691.21        60.91354
691.63        60.86966
692.06        60.85518
692.48        61.04022
692.90        61.24294
693.33        61.34603
693.75        61.29883
694.17        61.16289
694.60        60.97538
695.02        60.99202
695.44        60.95747
695.87        60.89702
696.29        60.78524
696.71        60.78063
697.14        60.87959
697.56        61.10738
697.98        61.40686
698.41        61.33226
698.83        61.47843
699.25        61.38466
699.68         61.2669
700.10        61.17335
700.52        61.12983
700.94        61.11745
701.37        61.11058
701.79        61.12646
702.21        61.14075
702.64        61.16249
703.06        61.19001
703.48        61.22375
703.90        61.26503
704.33        61.30811
704.75        61.34246
705.17        61.33399
705.59        61.28129
706.01        61.19248
706.44        61.11312
706.86        61.13589
707.28         61.2622
707.70        61.46244
708.12        61.67604
708.55        61.80144
708.97        61.80795
709.39        61.73274
709.81        61.61572
710.23        61.53336
710.66        61.51493
711.08        61.54863
711.50        61.59667
711.92        61.61626
712.34        61.59755
712.76        61.55819
713.19        61.51317
713.61        61.52952
714.03        61.59419
714.45        61.69946
714.87        61.82347
715.29        61.89325
715.71        61.88896
716.13        61.98878
716.56        61.89666
716.98        61.90157
717.40        61.91096
717.82        61.92622
718.24        61.94381
718.66        61.96379
719.08        61.98843
719.50        62.01619
719.92        62.05296
720.34        62.10384
720.76        62.16822
721.19        62.23667
721.61        62.30915
722.03        62.35747
722.45        62.37701
722.87        62.37216
723.29        62.36673
723.71        62.40115
724.13        62.48244
724.55        62.59573
724.97        62.70985
725.39        62.77374
725.81        62.77516
726.23        62.73207
726.65        62.66925
727.07        62.63024
727.49        62.63112
727.91        62.64826
728.33        62.67704
728.75        62.74491
729.17        62.82991
729.59        62.85333
730.01        62.83466
730.43        62.87111
730.85        62.96507
731.27        63.05313
731.69        63.11081
732.10        63.06773
732.52        63.11152
732.94         62.8666
733.36        62.48227
733.78        62.31619
734.20        62.42319
734.62        62.55456
735.04        62.62299
735.46        62.94535
735.88        62.87344
736.30        62.93736
736.72        62.94419
737.13        62.97257
737.55        63.00571
737.97         62.8721
738.39        62.67464
738.81        62.98614
739.23        63.64448
739.65        63.61879
740.06        62.96696
740.48        62.73897
740.90        62.93829
741.32        63.01158
741.74        62.93765
742.16        62.96888
742.57        63.11642
742.99        63.29094
743.41         63.4563
743.83        63.53537
744.25        63.51228
744.67        63.41198
745.08        63.31499
745.50        63.30816
745.92        63.43111
746.34        63.65796
746.75        63.90315
747.17        64.02389
747.59        63.98614
748.01        63.79549
748.42        63.56181
748.84        63.48542
749.26        63.57032
749.68         63.7245
750.09        63.84611
750.51        63.68091
750.93         63.3236
751.35        63.27085
751.76        63.51928
752.18        63.62903
752.60        63.58632
753.01        63.68166
753.43        63.84823
753.85        63.88435
754.27        63.77033
754.68        63.56123
755.10        63.34943
755.52        63.25774
755.93        63.31849
756.35        63.50435
756.77        63.74114
757.18        63.86398
757.60        63.82079
758.02        63.72278
758.43         63.7112
758.85        63.41869
759.26        63.85903
759.68        64.12636
760.10        63.71908
760.51        63.36601
760.93        63.65535
761.34        63.53545
761.76        63.61414
762.18        63.70628
762.59        63.87014
763.01        64.20351
763.42        63.83116
763.84        64.04216
764.26        64.20643
764.67        64.40559
765.09        64.50735
765.50        64.63087
765.92        64.75227
766.33        64.63135
766.75        64.33751
767.16        64.25941
767.58        64.38053
768.00        64.70158
768.41        65.08729
768.83        64.91686
769.24        64.28202
769.66        64.35559
770.07        64.27527
770.49        64.47296
770.90         64.5995
771.32        64.52038
771.73        64.28446
772.15        64.22151
772.56        64.36639
772.97        64.47287
773.39        64.49693
773.80        64.57338
774.22        64.66646
774.63        64.75956
775.05         64.8215
775.46        64.85915
775.88        64.85079
776.29        64.82104
776.70        64.77578
777.12          64.736
777.53        64.73135
777.95        64.75964
778.36        64.80003
778.77        64.80914
779.19        64.77935
779.60        64.72472
780.02        64.69624
780.43        64.79438
780.84        65.02834
781.26        65.34279
781.67        65.66708
782.09        65.81918
782.50        65.75368
782.91        65.54099
783.33        65.25342
783.74        65.10487
784.15        65.11545
784.57        65.24896
784.98        65.44365
785.39        65.54015
785.81        65.52274
786.22        65.51553
786.63        65.53719
787.04        65.54121
787.46        65.55003
787.87        65.57158
788.28        65.61314
788.70        65.66016
789.11        65.69168
789.52        65.72581
789.93        65.76926
790.35        65.82059
790.76        65.89809
791.17        66.00306
791.58        66.11779
792.00        66.22805
792.41        66.36156
792.82        66.41847
793.23        66.45904
793.65        66.72449
794.06        67.11819
794.47        67.24937
794.88        67.18664
795.29        66.82997
795.71        67.20811
796.12        67.21336
796.53        67.11062
796.94        67.09629
797.35        67.11959
797.76        66.85775
798.18         66.3978
798.59        66.18042
799.00        66.25207
799.41        66.40891
799.82        66.58791
800.23        66.76524
800.64        66.90216
801.06        66.97881
801.47        67.03708
801.88        67.07256
802.29        67.09033
802.70        67.08164
803.11        67.05211
803.52        67.01752
803.93        66.99236
804.34        66.98271
804.75        66.99467
805.17        67.05395
805.58        67.19036
805.99        67.27837
806.40         67.3177
806.81        67.55135
807.22        67.84992
807.63        67.66727
808.04         67.1202
808.45        66.90993
808.86        67.11069
809.27        67.34504
809.68        67.52562
810.09        67.66568
810.50        67.72319
810.91        67.69688
811.32         67.6153
811.73        67.52505
812.14        67.44666
812.55        67.37053
812.96         67.3009
813.37        67.24609
813.78        67.20882
814.19         67.1935
814.60        67.19765
815.01         67.2088
815.42        67.22383
815.83        67.24953
816.24         67.2737
816.65        67.27525
817.05        67.25853
817.46        67.20227
817.87        67.17083
818.28        67.22118
818.69        67.36482
819.10        67.58646
819.51        67.84026
819.92        68.04004
820.33        68.14877
820.74        68.17412
821.14        68.15137
821.55        68.16175
821.96        68.21317
822.37        68.29012
822.78        68.33861
823.19        68.26698
823.60        68.06154
824.00        67.77439
824.41        67.47105
824.82        67.32514
825.23        67.37835
825.64        67.58824
826.04         67.8752
826.45        68.07027
826.86        68.14186
827.27        68.13622
827.68        68.10586
828.08        68.16843
828.49        68.28244
828.90        68.44498
829.31        68.64497
829.72         68.7827
830.12        68.84161
830.53        69.18086
830.94          69.093
831.35        68.98836
831.75        68.68203
832.16        68.19988
832.57        67.72356
832.97        67.55013
833.38        67.73916
833.79         68.1944
834.20        68.73237
834.60        69.07291
835.01         69.1402
835.42        69.01086
835.82        68.79353
836.23        68.62941
836.64         68.5941
837.04        68.65296
837.45        68.73349
837.86        68.78457
838.26        68.79732
838.67        68.78249
839.08        68.79297
839.48        68.88817
839.89        69.07015
840.29        69.32043
840.70        69.57281
841.11        69.72257
841.51        69.75986
841.92         69.6748
842.33         69.5615
842.73        69.57668
843.14        69.70795
843.54        69.93581
843.95        70.15659
844.35        70.22913
844.76        70.11122
845.17        69.86265
845.57        69.57786
845.98        69.37187
846.38         69.3176
846.79        69.36001
847.19        69.48883
847.60        69.60553
848.00        69.71534
848.41        69.80743
848.81        69.93989
849.22        70.13091
849.62        70.41093
850.03        70.70724
850.43        70.98539
850.84        71.10135
851.24        71.07578
851.65        70.87231
852.05        70.61255
852.46        70.41372
852.86        70.32814
853.27        70.37642
853.67        70.39758
854.07        70.29803
854.48        70.02937
854.88        69.65156
855.29        69.26048
855.69          69.201
856.10        69.45596
856.50        70.01681
856.90        70.60763
857.31        70.81339
857.71        70.58849
858.12        70.00222
858.52        69.29502
858.92        68.81374
859.33        68.66489
859.73        68.78866
860.13        69.07528
860.54        69.34082
860.94        69.56555
861.34        69.75832
861.75        69.86821
862.15        69.88516
862.55        69.76881
862.96        69.49633
863.36        69.13342
863.76        68.74774
864.17        68.37653
864.57        68.06885
864.97        67.79884
865.38        67.49455
865.78         67.1925
866.18        66.89693
866.58        66.75433
866.99        66.98299
867.39        67.61897
867.79        68.52661
868.19        69.40054
868.60        69.74749
869.00        69.56394
869.40        69.14151
869.80         68.6364
870.21        68.19088
870.61        67.98741
871.01         68.0157
871.41        68.18819
871.81        68.29561
872.22        68.29884
872.62         68.2905
873.02        68.24974
873.42        68.27946
873.82        68.23215
874.22        67.65008
874.63        66.89362
875.03        66.68488
875.43        67.11774
875.83        68.73048
876.23        68.87263
876.63        68.65956
877.03        67.76375
877.44        65.73466
877.84        161.7371
878.24        65.87118
878.64        66.26648
879.04        67.38989
879.44        67.68646
879.84        64.60543
880.24        69.31397
880.64        69.68832
881.04        67.77392
881.44         66.3587
881.84        65.89532
882.24        66.49133
882.65        67.52135
883.05        67.65582
883.45        66.65313
883.85        65.33764
884.25        64.27229
884.65        63.97758
885.05        64.59614
885.45         65.8426
885.85        67.25781
886.25        68.20692
886.65        68.52024
887.05        68.40315
887.45        67.97906
887.85         67.4629
888.25        66.97797
888.65        66.44501
889.04        66.02759
889.44        66.01161
889.84        66.41798
890.24        67.17358
890.64        67.97639
891.04        68.35674
891.44        68.22497
891.84        67.71128
892.24         67.0556
892.64        66.68949
893.04        66.74174
893.44        67.07073
893.83        67.52308
894.23        67.83984
894.63        67.95901
895.03        67.98211
895.43        67.96026
895.83        67.96004
896.23        68.01479
896.63        68.07938
897.02        68.16516
897.42        68.36947
897.82         68.6629
898.22        69.01847
898.62        69.34402
899.01        69.49596
899.41        69.41358
899.81        69.14937
900.21        68.77551
900.61        68.41384
901.00        68.10837
901.40        67.91431
901.80        67.81799
902.20        67.67171
902.59        67.44091
902.99        67.38978
903.39         67.7016
903.79        67.14105
904.18        68.10715
904.58        68.61933
904.98        69.10924
905.38        69.10539
905.77        68.55147
906.17        67.60294
906.57        66.61302
906.96        66.26011
907.36        66.69011
907.76        67.72208
908.15        68.97087
908.55        69.62981
908.95        69.52924
909.34        68.85256
909.74        68.01371
910.14        67.63639
910.53        67.88634
910.93         68.5537
911.33        69.28601
911.72          69.538
912.12         69.1926
912.52        68.44023
912.91        67.60296
913.31        67.25126
913.70        67.49304
914.10        68.15427
914.49        68.92897
914.89        69.22658
915.29        68.92051
915.68        68.17305
916.08        67.34892
916.47        66.96546
916.87        67.18008
917.26        67.82887
917.66        68.58445
918.05        68.94563
918.45         68.7684
918.84         68.2221
919.24        67.61792
919.64        67.51688
920.03        68.03976
920.42        68.96777
920.82         69.9212
921.21        70.32353
921.61        70.06228
922.00        69.39861
922.40        68.69629
922.79        68.41344
923.19         68.3533
923.58        69.11563
923.98        70.83805
924.37         71.1596
924.77        68.84412
925.16        75.69192
925.55        70.44525
925.95        70.71477
926.34        70.49237
926.74         69.6314
927.13        68.18259
927.52        67.31992
927.92        67.53201
928.31        68.19959
928.70        69.10288
929.10        69.84996
929.49         70.3463
929.89        70.71056
930.28        70.89078
930.67        70.69311
931.07         70.1417
931.46        69.19839
931.85        68.21201
932.24        68.17762
932.64        69.24174
933.03        70.60841
933.42        71.49459
933.82         73.6338
934.21        72.32645
934.60         71.2523
934.99        70.13504
935.39        69.90469
935.78        70.60049
936.17        72.49956
936.56        77.99813
936.96        72.08823
937.35        75.08987
937.74        71.94099
938.13        69.50703
938.53        67.68611
938.92        67.23096
939.31        68.51932
939.70        70.25886
940.09        71.11249
940.49        70.79204
940.88        69.76836
941.27         68.5152
941.66        67.92323
942.05         68.3093
942.44        69.29497
942.84         70.4349
943.23         71.2218
943.62        71.49339
944.01        71.40746
944.40        71.20718
944.79        71.27681
945.18        71.70814
945.57         72.3586
945.97        72.90411
946.36        72.96978
946.75        72.44159
947.14        71.46854
947.53        70.41672
947.92        69.90981
948.31         70.1051
948.70        70.78501
949.09        71.58368
949.48        71.93295
949.87        71.69234
950.26        71.07022
950.65        70.26043
951.04        69.57089
951.43        69.13921
951.82        68.86977
952.21        68.81049
952.60        69.05418
952.99        69.55569
953.38        70.25112
953.77        70.95849
954.16        71.40407
954.55        71.53246
954.94        71.42409
955.33        71.11031
955.72        70.69193
956.11        70.24145
956.50        69.71282
956.89        69.29638
957.28        69.28112
957.66        69.72491
958.05        70.50824
958.44        71.25659
958.83        71.37012
959.22        70.73125
959.61        69.45435
960.00        68.02317
960.39        67.39457
960.78        67.83997
961.16        69.07664
961.55        70.39943
961.94        70.94573
962.33        70.56031
962.72         69.4923
963.11         68.2252
963.49        67.74847
963.88        68.35941
964.27        69.65633
964.66         71.0913
965.04        71.96016
965.43        72.03075
965.82        71.56812
966.21        70.75716
966.60        69.91463
966.98        69.22432
967.37        68.62718
967.76        68.15589
968.15        67.86261
968.53        67.78187
968.92         67.9081
969.31        68.27845
969.69        68.90113
970.08         69.6899
970.47        70.58185
970.86        71.38396
971.24        71.79907
971.63        71.74284
972.02        71.32943
972.40        70.74014
972.79        70.16599
973.17        69.73862
973.56        69.41219
973.95        69.27634
974.33        69.46497
974.72        69.96058
975.11         70.7118
975.49        71.57905
975.88        72.24081
976.26        72.67472
976.65        72.87305
977.04        72.89643
977.42        72.82549
977.81        72.65424
978.19        72.31422
978.58        72.09444
978.96        72.40396
979.35        73.23561
979.74         74.4062
980.12        75.47886
980.51        75.72382
980.89        75.16319
981.28        73.87643
981.66        72.24926
982.05        71.28883
982.43        71.39242
982.82        72.33478
983.20        73.58858
983.59         74.2892
983.97        74.25704
984.35        73.68705
984.74        72.86909
985.12        72.41336
985.51         72.4594
985.89        72.85939
986.28        73.28887
986.66        73.35032
987.04        73.01012
987.43        72.33475
987.81         71.4068
988.20        71.70492
988.58        73.51451
988.96        74.19273
989.35        72.95035
989.73        78.44887
990.12        75.63078
990.50        75.97742
990.88        75.62756
991.27        75.32953
991.65        75.10351
992.03        75.02151
992.42         75.0303
992.80        74.58799
993.18        73.63364
993.56        72.42409
993.95        71.28667
994.33        70.67741
994.71        70.74266
995.10         71.3071
995.48        72.24052
995.86        73.30341
996.24        74.33254
996.63        75.27058
997.01        76.05202
997.39        76.39478
997.77        76.24733
998.15        75.65086
998.54        74.85535
998.92        74.17709
999.30        73.77308
999.68        73.64986
1000.06        73.66481
1000.45        73.46074
1000.83        73.07707
1001.21        72.63715
1001.59        72.48562
1001.97        73.08985
1002.35        74.39436
1002.73        76.06103
1003.12        77.67682
1003.50         78.8099
1003.88        79.38226
1004.26        79.56017
1004.64         79.4122
1005.02        79.08542
1005.40        78.67233
1005.78        78.09845
1006.16        77.54642
1006.54        77.30616
1006.92        77.43958
1007.30        77.96148
1007.69        78.50208
1008.07        78.56642
1008.45        78.03784
1008.83        77.01616
1009.21        76.00529
1009.59        76.05708
1009.97        77.32385
1010.35         79.1994
1010.73        80.95603
1011.11        82.03971
1011.49        82.48362
1011.86        82.25764
1012.24        81.26039
1012.62        82.03174
1013.00        82.37499
1013.38        82.04189
1013.76         79.8604
1014.14        83.07164
1014.52        88.12846
1014.90        81.36456
1015.28        82.34652
1015.66        83.76255
1016.04        81.20556
1016.41        82.20149
1016.79        82.15517
1017.17        81.88522
1017.55        80.84634
1017.93        79.33402
1018.31        78.12974
1018.69        78.07815
1019.06          79.402
1019.44        81.68663
1019.82        83.91312
1020.20        84.75307
1020.58        83.94584
1020.95        81.51814
1021.33        78.29963
1021.71        76.95889
1022.09        78.69836
1022.46        82.13951
1022.84        85.38425
1023.22        87.06322
1023.60        87.25838
1023.97        86.50386
1024.35        85.27815
1024.73        84.51124
