SpectraSmart Spectrum 2.9.0.0
--------- Device Information -----------
Spectrum Name :  反射率_0
Saving Time :  2024/04/21 00:49:46
Spectro-Module Model Name : SE2030-DUVN
Spectro-Module Serial Number : OS361AC55029948
Wavelength Start : 200
Wavelength End : 1025
Wavelength Unit : Wavelength(nm)
Spectrum Unit : Reflectance(%)
-----------Spectrum Setting ------------
Integration Time : 20ms
Average : 10
Boxcar : 0
Background removal :  enabled
linearity correction :  enabled
SC :  disabled
Intensity correction :  disabled
DWT denoise :  enabled
savitzky-golay :  disabled
FFT :  disabled
Running average :  disabled
Kalman :  disabled
High pass :  disabled
---------------BEGIN--------------------
Wavelength(nm)             Reflectance(%)
200.29               0
200.75       -73.83664
201.21       -29.74306
201.67       -7.350895
202.13        1.138621
202.58        2.006171
203.04       -1.247679
203.50       -7.482347
203.96       -13.61673
204.42       -17.56157
204.88       -21.02314
205.34       -23.03803
205.80       -22.70432
206.26       -19.55095
206.72       -9.984266
207.18       0.5136532
207.64       -3.095707
208.10       -24.86869
208.55       -59.73498
209.01       -80.94082
209.47       -57.45744
209.93       -18.73778
210.39        12.74697
210.85         32.9481
211.31        41.95942
211.77        43.06087
212.23        38.25085
212.69        23.82639
213.14         -7.6001
213.60        -72.5819
214.06        -276.072
214.52        -765.121
214.98        -352.649
215.44       -94.43758
215.90       -6.997378
216.36        21.34525
216.81        21.93259
217.27       -2.426928
217.73       -123.7029
218.19        1334.333
218.65        560.4859
219.11       -1272.692
219.57       -68.66177
220.02        8.234133
220.48         22.8658
220.94        17.87956
221.40       -6.214181
221.86       -66.01497
222.32       -106.8641
222.77        -54.6263
223.23       -8.440029
223.69        15.49972
224.15        24.94294
224.61        27.29523
225.06        26.99136
225.52        24.69143
225.98         20.4131
226.44        14.75245
226.90        6.693232
227.36       0.6422629
227.81        4.686384
228.27        15.35509
228.73        26.75937
229.19        34.32751
229.65        35.78974
230.10        32.15241
230.56         25.0165
231.02        15.70433
231.48        9.442741
231.93        9.998887
232.39        15.41895
232.85        21.42494
233.31        24.30919
233.77        24.21132
234.22        22.70813
234.68        20.42694
235.14        18.52728
235.60        17.83832
236.05        17.21935
236.51        16.31035
236.97        20.66835
237.43         30.4739
237.88        35.27479
238.34        30.73493
238.80        54.01497
239.26        41.59062
239.71        40.49471
240.17        33.62917
240.63        26.60704
241.08        22.54416
241.54        24.94265
242.00        33.46161
242.46        36.66077
242.91        31.32108
243.37        17.17819
243.83       -1.635481
244.28       -8.091252
244.74        6.081328
245.20         30.9188
245.66        53.14357
246.11         60.0579
246.57        50.95997
247.03        29.83967
247.48        1.557378
247.94       -25.75256
248.40       -52.66866
248.85       -99.59493
249.31       -215.7003
249.77       -267.3501
250.22       -79.29977
250.68       -11.24737
251.14        9.297353
251.59        15.83239
252.05        17.46346
252.51        16.39589
252.96        11.40432
253.42        3.269701
253.88       -4.050711
254.33       -7.625788
254.79       -3.010401
255.25        9.632471
255.70        23.95574
256.16        35.90778
256.62        44.28011
257.07        48.70934
257.53        50.69123
257.99        51.34283
258.44        50.90684
258.90        50.12453
259.35        48.85369
259.81        47.50716
260.27        46.27945
260.72        45.48648
261.18        45.27374
261.63        45.18053
262.09         45.0355
262.55        44.33788
263.00        43.08149
263.46        41.67393
263.91        40.23792
264.37         39.2864
264.83        38.78941
265.28        38.52084
265.74        38.40632
266.19         38.2065
266.65        37.89465
267.11        37.47195
267.56        36.88396
268.02        36.12517
268.47         35.1682
268.93        34.07195
269.38        32.85888
269.84        31.62957
270.30        30.43448
270.75        29.28828
271.21        28.29671
271.66        27.54496
272.12        27.05784
272.57        26.77914
273.03        26.61387
273.48        26.38562
273.94        26.06594
274.39         25.6715
274.85        25.25962
275.31        24.86682
275.76        24.50181
276.22        24.16419
276.67        23.86039
277.13         23.6707
277.58        23.55429
278.04        23.50198
278.49        23.40173
278.95        23.15969
279.40        22.73033
279.86        22.19026
280.31        21.58477
280.77        21.05132
281.22        20.60407
281.68        20.27175
282.13        19.99075
282.59        19.73274
283.04        19.46775
283.50        19.21527
283.95         19.0464
284.41        19.08502
284.86        19.31899
285.32        19.70255
285.77        20.05238
286.22        20.11556
286.68        19.88581
287.13        19.42669
287.59         18.9928
288.04        18.86787
288.50        19.07864
288.95        19.64654
289.41        20.41464
289.86        20.65004
290.32        20.21303
290.77         21.1926
291.22        20.30909
291.68        20.44548
292.13        20.65884
292.59        20.99609
293.04        21.43754
293.50        22.03194
293.95         22.7951
294.40        23.69788
294.86         24.6951
295.31        25.69659
295.77        26.67467
296.22        27.63269
296.68        28.60949
297.13        29.66534
297.58        30.82648
298.04        32.07507
298.49        33.38254
298.95        34.72281
299.40        36.06829
299.85          37.437
300.31        38.82412
300.76        40.20189
301.21        41.57585
301.67        42.96909
302.12        44.38898
302.58        45.94064
303.03        47.60759
303.48        49.39289
303.94        51.24267
304.39        53.02909
304.84        54.72164
305.30        56.35757
305.75        57.93627
306.20        59.55483
306.66        61.22613
307.11        62.87756
307.57        64.48116
308.02        65.93919
308.47        67.25191
308.93        68.48895
309.38        69.65211
309.83        70.76534
310.29        71.94494
310.74        73.07656
311.19        74.17776
311.65        75.21886
312.10        76.17648
312.55        77.06372
313.00        77.89348
313.46        78.68698
313.91        79.43717
314.36        80.15102
314.82         80.8171
315.27        81.41563
315.72        81.95452
316.18        82.44387
316.63        82.92268
317.08        83.45489
317.53        84.04729
317.99        84.67639
318.44        85.27782
318.89        85.73703
319.35        86.02687
319.80        86.18066
320.25        86.27641
320.70        86.44823
321.16        86.72212
321.61        87.07734
322.06        87.43055
322.51        87.65327
322.97        87.70695
323.42        87.66689
323.87        87.60903
324.32        87.67297
324.78        87.88197
325.23        88.22452
325.68          88.617
326.13        88.94795
326.59        89.16154
327.04        89.33723
327.49        89.49245
327.94         89.6875
328.39        89.94292
328.85        90.20578
329.30        90.51485
329.75        90.82954
330.20        91.13409
330.66         91.3993
331.11         91.6675
331.56        91.88976
332.01         92.0651
332.46        92.20911
332.92        92.28894
333.37         92.3748
333.82        92.44928
334.27        92.52303
334.72        92.66084
335.17        92.96217
335.63        93.41805
336.08        94.05198
336.53        94.74566
336.98        95.33938
337.43        95.78001
337.88        96.09253
338.34        96.32661
338.79         96.6264
339.24        97.00488
339.69        97.41832
340.14        97.80771
340.59        98.08829
341.05        98.24847
341.50        98.33738
341.95        98.40971
342.40        98.55105
342.85        98.79021
343.30        99.10137
343.75        99.44801
344.20        99.77798
344.66        100.0714
345.11        100.3124
345.56        100.5164
346.01        100.7016
346.46        100.8747
346.91         101.044
347.36        101.1577
347.81        101.1445
348.26        101.0099
348.72        100.7805
349.17        100.5876
349.62        100.6462
350.07        100.9884
350.52        101.5386
350.97        102.0846
351.42        102.2805
351.87        102.0402
352.32        101.4627
352.77         100.755
353.22         100.238
353.67        99.99245
354.13        99.94288
354.58         99.9086
355.03        99.65154
355.48        99.12261
355.93         98.4194
356.38        97.70126
356.83        97.19869
357.28        96.94741
357.73        96.84747
358.18        96.74942
358.63        96.42435
359.08        95.81718
359.53        95.02045
359.98        94.13006
360.43         93.2841
360.88          92.534
361.33        91.83903
361.78        91.20582
362.23        90.64861
362.68        90.15737
363.13        89.73199
363.58        89.31657
364.03        88.81289
364.48        88.19641
364.93        87.48734
365.38        86.73206
365.83        86.01754
366.28        85.36875
366.73        84.75542
367.18        84.16033
367.63        83.55626
368.08        82.93384
368.53        82.31496
368.98        81.67838
369.43        80.97636
369.88        80.20307
370.33        79.36805
370.78        78.53487
371.23        77.83006
371.68        77.29333
372.13        76.89146
372.58        76.55961
373.03        76.18073
373.48        75.71283
373.93        75.18645
374.38        74.61982
374.83        74.05438
375.28        73.51603
375.72        72.97971
376.17        72.48158
376.62        72.02228
377.07        71.58928
377.52        71.17355
377.97        70.75301
378.42        70.30182
378.87        69.82523
379.32        69.34064
379.77        68.86181
380.22        68.39541
380.67        67.93512
381.11        67.47842
381.56        67.02077
382.01        66.57408
382.46        66.15448
382.91        65.77046
383.36        65.41725
383.81        65.08302
384.26        64.75789
384.71        64.43354
385.15        64.10842
385.60        63.83848
386.05        63.60379
386.50        63.39619
386.95        63.16315
387.40        62.83229
387.85        62.40832
388.29        61.88974
388.74        61.43979
389.19        61.12032
389.64        60.93916
390.09        60.86367
390.54        60.81771
390.98        60.66573
391.43        60.41307
391.88        60.09259
392.33        59.78672
392.78        59.59532
393.23        59.52828
393.67        59.56013
394.12        59.66514
394.57        59.56255
395.02        59.26863
395.47        59.07838
395.91        58.97972
396.36        58.81941
396.81         58.6159
397.26        58.52631
397.71        58.47435
398.15        58.29747
398.60        58.05468
399.05        57.60871
399.50        57.14623
399.95        57.20948
400.39        57.65955
400.84        57.80512
401.29        57.41891
401.74        56.95447
402.18        56.51192
402.63        56.30768
403.08        56.32468
403.53        56.19356
403.97        55.91142
404.42        55.79345
404.87         55.8145
405.32        55.80611
405.76         55.7507
406.21        55.63612
406.66        55.49307
407.11        55.53964
407.55        55.71218
408.00        55.58739
408.45        55.22131
408.90        54.96936
409.34         54.9213
409.79        55.10252
410.24        55.38828
410.68        55.46738
411.13        55.30163
411.58        55.06269
412.03        54.83405
412.47        54.70092
412.92        54.68528
413.37        54.77406
413.81           54.89
414.26        54.95699
414.71        54.94106
415.15        54.88898
415.60        54.81301
416.05        54.77973
416.49        54.81024
416.94         54.8637
417.39        54.93528
417.83        55.01833
418.28         55.1014
418.73        55.17993
419.17        55.21754
419.62        55.16561
420.07         55.0244
420.51        54.81904
420.96        54.61387
421.41        54.47893
421.85        54.41325
422.30        54.39633
422.74        54.41478
423.19        54.59838
423.64        54.90435
424.08        55.20204
424.53        55.36531
424.98         55.4863
425.42        55.57424
425.87        55.34886
426.31        54.97162
426.76          55.237
427.21        56.03336
427.65        56.14686
428.10        55.51046
428.54        55.86339
428.99        55.75684
429.44        55.90417
429.88        55.80899
430.33        55.73151
430.77         55.6272
431.22        55.48251
431.66        55.38296
432.11        55.56438
432.56        56.02079
433.00        56.36742
433.45         56.3028
433.89        56.11444
434.34        56.10331
434.78        54.89971
435.23        55.54396
435.67        56.15637
436.12        56.64933
436.57        56.76616
437.01        56.41299
437.46        56.20308
437.90        56.73027
438.35        56.96752
438.79        56.93504
439.24        56.97115
439.68         57.0531
440.13        57.06978
440.57        57.02892
441.02        57.12429
441.46        57.29692
441.91        57.23186
442.35        56.96681
442.80        57.09849
443.24        57.55303
443.69        57.57289
444.13        57.64727
444.58        57.49132
445.02        57.31937
445.47        57.29855
445.91         57.4251
446.36        57.50348
446.80        57.51329
447.24        57.57415
447.69          57.692
448.13        57.83065
448.58        57.99611
449.02        57.88005
449.47        57.57635
449.91        57.43551
450.36        57.50824
450.80        57.53634
451.25        57.52238
451.69         57.6227
452.13        57.77979
452.58        57.71244
453.02        57.46028
453.47        57.34067
453.91        57.37318
454.36        57.40631
454.80        57.38972
455.24         57.3788
455.69        57.39048
456.13        57.23418
456.58        57.00659
457.02        57.25016
457.46        57.52595
457.91        57.45327
458.35        57.07597
458.79        56.87615
459.24         56.9052
459.68         56.8835
460.13        56.83587
460.57        56.74165
461.01        56.59388
461.46        56.89691
461.90        56.52359
462.34        56.85689
462.79        56.66515
463.23        56.83378
463.68        57.00945
464.12        56.72916
464.56        56.14373
465.01        56.23579
465.45        56.76536
465.89        56.63089
466.34        55.99003
466.78        55.79184
467.22        55.98473
467.67        56.46163
468.11        55.66034
468.55        55.84718
468.99        56.07068
469.44        56.18171
469.88        56.01672
470.32        55.82595
470.77        55.68348
471.21        55.58954
471.65         55.5733
472.10        55.62801
472.54        55.68593
472.98        55.67537
473.42        55.58785
473.87         55.4174
474.31        55.21097
474.75         55.2296
475.20         55.4396
475.64        55.47602
476.08        55.47641
476.52        55.46122
476.97        55.42458
477.41        55.43976
477.85        55.53604
478.29        55.15688
478.74         54.8341
479.18        55.34234
479.62        55.06973
480.06        55.20219
480.50        55.24159
480.95        55.23075
481.39        55.09317
481.83        55.37729
482.27        55.59826
482.72        55.18407
483.16         55.3993
483.60        55.65931
484.04        55.66489
484.48        55.40042
484.93        55.32815
485.37        55.21983
485.81        55.58063
486.25        54.91946
486.69        55.60073
487.14        55.43476
487.58        55.57212
488.02        55.80441
488.46        55.43465
488.90        55.33429
489.34        55.07721
489.79        54.84986
490.23        55.19894
490.67        55.23337
491.11         55.1358
491.55        55.03877
491.99        54.98977
492.43        54.98419
492.88        55.01788
493.32        55.06727
493.76        55.08282
494.20        55.12972
494.64        55.23204
495.08        54.99855
495.52        55.04465
495.96        55.07587
496.41        55.20864
496.85        55.02834
497.29        54.61624
497.73        54.76871
498.17         55.1082
498.61        55.19497
499.05        54.89695
499.49        54.67538
499.93        54.62632
500.37        54.58129
500.82        54.54478
501.26        54.79027
501.70        55.18325
502.14        54.88668
502.58        54.46141
503.02        54.27486
503.46        54.45562
503.90        54.64206
504.34        54.73344
504.78        54.77583
505.22        54.75394
505.66        54.61013
506.10        54.41455
506.54        54.40192
506.98        54.61935
507.42        54.41552
507.86         55.0276
508.30        54.74365
508.74        54.88606
509.18        54.67171
509.62        54.46681
510.06        54.37877
510.50        54.41675
510.94         54.4815
511.38        54.51756
511.82        54.52794
512.26         54.4939
512.70        54.39939
513.14        54.28418
513.58        54.22776
514.02        54.24606
514.46        54.31176
514.90        54.37186
515.34        54.39174
515.78        54.36463
516.22        54.25547
516.66        53.96349
517.10        54.22112
517.54        54.01455
517.98        54.12791
518.42        54.22754
518.86        54.29383
519.30        54.30864
519.74        54.25955
520.18        54.18891
520.62        54.22134
521.06        54.32709
521.50        54.29455
521.93        54.14221
522.37        54.07463
522.81        54.10398
523.25        54.12003
523.69        54.10057
524.13        54.05904
524.57         53.9943
525.01        53.90836
525.45         53.8329
525.89        53.81771
526.32        53.87082
526.76        53.97887
527.20        54.11061
527.64        54.22255
528.08        54.29771
528.52        54.33426
528.96         54.3408
529.40        54.35778
529.83        54.37307
530.27        54.33736
530.71        54.25739
531.15        54.20576
531.59        54.19004
532.03        54.17664
532.46        54.15647
532.90        54.14271
533.34        54.12982
533.78        54.11708
534.22        54.10248
534.66        54.08311
535.09        54.05041
535.53        54.02058
535.97        53.98904
536.41        53.96408
536.85        53.94741
537.28         53.9391
537.72         53.9313
538.16        53.91149
538.60        53.87901
539.04        53.84145
539.47        53.80088
539.91        53.80505
540.35        53.84357
540.79        53.90549
541.22        53.97182
541.66         54.0256
542.10        54.05309
542.54        54.05605
542.97        54.03204
543.41        54.00762
543.85        53.98576
544.29        53.97273
544.72        53.95214
545.16        53.94833
545.60        53.95555
546.04        53.90621
546.47        53.84467
546.91        53.98465
547.35        54.25586
547.79        54.32503
548.22        54.17393
548.66         54.0686
549.10        54.03731
549.53        53.96857
549.97        53.89777
550.41        53.88913
550.84        53.95737
551.28        54.08408
551.72        54.20491
552.15        54.27972
552.59        54.31714
553.03        54.00659
553.46        53.98239
553.90        53.87947
554.34        53.88119
554.77          53.942
555.21        54.03717
555.65        54.10315
556.08        54.11238
556.52        54.09142
556.96         54.0513
557.39        54.06903
557.83        54.13478
558.27        54.09683
558.70        53.98799
559.14        53.96365
559.57        54.02282
560.01        54.17331
560.45        54.30625
560.88        54.21224
561.32        53.98356
561.75        53.72805
562.19        53.58176
562.63        53.82215
563.06        54.29232
563.50        54.29435
563.93        53.87027
564.37        53.72197
564.80        53.86581
565.24        53.99236
565.68        54.05992
566.11        54.10528
566.55        54.13085
566.98        54.17645
567.42        54.24582
567.85        54.17287
568.29        54.03093
568.72        54.02349
569.16        54.18373
569.60         54.1581
570.03        54.20302
570.47        54.23196
570.90        54.28683
571.34        54.26508
571.77        54.68906
572.21        54.26648
572.64        54.42278
573.08        54.20762
573.51        54.53491
573.95        54.81798
574.38        54.40544
574.82        54.82053
575.25        54.65375
575.69        54.70673
576.12        53.82029
576.56        54.37109
576.99        54.66026
577.42        54.56423
577.86        54.57024
578.29        54.74744
578.73         54.9132
579.16        54.65916
579.60        54.17416
580.03        54.33777
580.47        54.73884
580.90        54.48618
581.33        54.65612
581.77         54.9146
582.20        54.87364
582.64        54.76192
583.07        54.46938
583.51        54.38781
583.94         54.3301
584.37        54.55006
584.81        54.24656
585.24        54.29992
585.68        54.33745
586.11        54.42237
586.54        54.37789
586.98        54.38419
587.41        54.35231
587.85        54.72167
588.28        54.72323
588.71        54.45407
589.15        54.71705
589.58         54.5176
590.01        54.49213
590.45        54.30449
590.88        54.48793
591.31        54.17743
591.75        54.15758
592.18        54.02732
592.61        53.94927
593.05        54.55247
593.48         54.5854
593.91        54.67846
594.35        54.60214
594.78        54.53764
595.21        54.36988
595.65        54.30673
596.08        54.32359
596.51        54.40311
596.94         54.5056
597.38        54.42991
597.81         54.4944
598.24        54.54546
598.68        54.22917
599.11        54.45959
599.54        54.72724
599.97        54.30252
600.41         54.3485
600.84        54.68861
601.27        54.46978
601.70        54.71428
602.14        54.49279
602.57        54.45776
603.00        54.39606
603.43         54.6837
603.87        54.81657
604.30          54.641
604.73        54.49319
605.16        54.37616
605.60        54.65578
606.03        54.75452
606.46        54.73124
606.89        54.61898
607.32        54.17215
607.76         54.8646
608.19        54.65218
608.62        54.46897
609.05        55.34799
609.48        54.69213
609.92        54.55206
610.35        54.44784
610.78        54.80214
611.21         54.7455
611.64        54.73674
612.07        54.63841
612.50          54.743
612.94        54.75888
613.37        54.74631
613.80         54.7864
614.23        54.76438
614.66        54.71366
615.09        54.60455
615.52         54.5023
615.96        54.43462
616.39        54.35011
616.82        54.24628
617.25        54.39884
617.68        54.36968
618.11        54.34069
618.54        54.33154
618.97        54.23122
619.40        54.14968
619.84          54.064
620.27        54.40716
620.70        54.47695
621.13        54.38913
621.56        54.41719
621.99        54.54961
622.42        54.51415
622.85        54.31879
623.28        54.33912
623.71        54.23091
624.14        54.58441
624.57        54.43732
625.00        54.87934
625.43        54.37174
625.86        54.40121
626.29        54.54952
626.72        54.09647
627.15        54.27952
627.58        54.21689
628.01        54.31263
628.44         54.2618
628.87        54.13697
629.30        54.65895
629.73        54.30942
630.16        54.54436
630.59         54.1788
631.02        54.36918
631.45        54.14558
631.88        54.09866
632.31        54.00393
632.74        54.11622
633.17        54.06899
633.60        54.08125
634.03         54.0459
634.46        54.03399
634.89        53.97496
635.32        53.97875
635.75        54.02652
636.18        54.09765
636.61        54.17147
637.04        54.21835
637.47        54.23005
637.89        54.22484
638.32        54.19339
638.75        54.14439
639.18        54.08573
639.61        54.01581
640.04        53.96239
640.47        53.97063
640.90        54.04414
641.33         54.1678
641.76        54.29666
642.18         54.3576
642.61         54.3215
643.04        54.22703
643.47        54.11286
643.90        54.01876
644.33        54.00773
644.76        54.01428
645.18        54.05566
645.61        54.12694
646.04        54.19523
646.47        54.34395
646.90        54.28635
647.33        54.26568
647.75        54.20069
648.18        54.07466
648.61        53.94287
649.04        53.91399
649.47        53.96297
649.89        54.20099
650.32        54.04539
650.75        54.19887
651.18        54.41448
651.61         54.3976
652.03        54.15914
652.46        53.93862
652.89        53.88348
653.32        53.99518
653.74        54.12391
654.17        54.67408
654.60         54.1545
655.03        53.94213
655.46        54.00997
655.88        54.34213
656.31        55.29509
656.74        57.25544
657.16         55.9654
657.59        54.63792
658.02        54.06379
658.45         54.3517
658.87        54.41643
659.30        54.14068
659.73        54.10507
660.15         53.8272
660.58        54.32698
661.01        54.67066
661.44        54.93285
661.86        54.70419
662.29        54.12392
662.72        53.92615
663.14        54.15315
663.57        54.28819
664.00        54.26283
664.42        54.26847
664.85        54.29637
665.27        54.15783
665.70        54.07114
666.13        54.00858
666.55        54.04525
666.98        54.14008
667.41        54.24905
667.83         54.3056
668.26        54.30246
668.69        54.21774
669.11        54.08845
669.54        54.16451
669.96        54.50201
670.39        54.29191
670.82        54.78697
671.24        54.84603
671.67        54.81651
672.09        54.71498
672.52        54.59783
672.94        54.41302
673.37        54.22052
673.80        54.19362
674.22        54.31274
674.65        54.34975
675.07        54.30253
675.50        54.28242
675.92        54.31044
676.35        54.34966
676.77        54.39574
677.20        54.46941
677.62        54.57056
678.05        54.60932
678.47        54.56444
678.90        54.77161
679.32        54.65743
679.75        54.69688
680.17        54.72182
680.60        54.74369
681.02        54.76105
681.45        54.78528
681.87        54.82317
682.30        54.83567
682.72        54.83929
683.15        54.87199
683.57        54.88517
684.00        54.90731
684.42        54.56498
684.85        54.45322
685.27        54.46228
685.70        54.48046
686.12        54.48087
686.54        54.50734
686.97        54.54759
687.39        54.61307
687.82        54.69075
688.24        54.73243
688.66        54.71309
689.09        54.85524
689.51        54.75943
689.94        54.82328
690.36        54.91569
690.78        54.95366
691.21         54.9338
691.63        54.91421
692.06        54.90977
692.48        54.87985
692.90        54.84416
693.33        54.85056
693.75        54.91862
694.17        54.99437
694.60        55.02871
695.02        55.17625
695.44        55.17653
695.87        54.99537
696.29        54.69799
696.71        54.75509
697.14        55.10439
697.56        55.30459
697.98        55.32112
698.41        55.14452
698.83        55.31922
699.25        55.21046
699.68          55.014
700.10        54.88348
700.52        54.84705
700.94        54.85228
701.37        54.87267
701.79        54.91886
702.21        54.96264
702.64        55.01897
703.06        55.06916
703.48         55.0839
703.90        55.06376
704.33        55.01298
704.75         54.9603
705.17         54.9361
705.59        54.95205
706.01         54.9982
706.44        55.07096
706.86        55.17728
707.28        55.29707
707.70        55.42432
708.12        55.54313
708.55        55.62166
708.97        55.64665
709.39        55.63361
709.81        55.58843
710.23        55.52921
710.66        55.46999
711.08        55.42052
711.50        55.37913
711.92        55.35492
712.34        55.34995
712.76        55.36241
713.19        55.38227
713.61        55.43184
714.03          55.486
714.45        55.55064
714.87        55.61572
715.29        55.62906
715.71        55.58035
716.13        55.62716
716.56        55.50769
716.98        55.48955
717.40        55.49108
717.82        55.51036
718.24        55.54443
718.66        55.59087
719.08        55.64785
719.50        55.71443
719.92        55.77723
720.34        55.81389
720.76        55.81929
721.19        55.78808
721.61        55.75556
722.03        55.75452
722.45        55.79483
722.87        55.87136
723.29        55.95403
723.71         55.9909
724.13        55.96892
724.55        55.90761
724.97        55.87486
725.39        55.88593
725.81        55.93475
726.23        56.17569
726.65        56.58586
727.07        56.20097
727.49        56.49022
727.91        56.27825
728.33        56.06853
728.75        55.96535
729.17        55.99416
729.59        56.01913
730.01        56.02172
730.43        56.09729
730.85        56.23041
731.27        56.34677
731.69        56.43191
732.10        56.46032
732.52         56.5834
732.94        56.40664
733.36        56.05469
733.78        55.85031
734.20        55.84023
734.62        55.85286
735.04        55.87262
735.46        55.94351
735.88        56.05566
736.30        56.20722
736.72        56.34566
737.13        56.42449
737.55        56.40404
737.97        56.21876
738.39        55.97718
738.81        56.08839
739.23        56.48957
739.65        56.58192
740.06        56.34329
740.48        56.33895
740.90        56.55226
741.32        56.58571
741.74        56.60763
742.16        56.62809
742.57         56.7136
742.99        56.79749
743.41        56.85789
743.83        56.84205
744.25        56.74111
744.67        56.57605
745.08        56.42576
745.50        56.37762
745.92        56.46915
746.34        56.67989
746.75        56.91512
747.17        57.01557
747.59        56.94717
748.01        56.72265
748.42        56.47336
748.84        56.43452
749.26        56.61667
749.68        56.91291
750.09        57.18718
750.51        57.14073
750.93        56.83945
751.35        56.75215
751.76         56.8998
752.18         56.9276
752.60        56.83989
753.01        56.88549
753.43        57.00803
753.85        57.03511
754.27        56.94845
754.68        56.79985
755.10        56.65352
755.52        56.58475
755.93        56.61576
756.35        56.72527
756.77        56.86251
757.18         56.9538
757.60        56.97405
758.02        56.93053
758.43         56.8857
758.85        56.89349
759.26          57.056
759.68        57.27276
760.10        56.88347
760.51        56.63457
760.93         57.1258
761.34         56.8979
761.76        57.76786
762.18        57.74739
762.59        57.36781
763.01        57.39285
763.42        57.13294
763.84        57.33105
764.26        57.30345
764.67        57.60576
765.09        57.99089
765.50        58.08913
765.92        57.94388
766.33        57.85191
766.75        57.83834
767.16        57.79828
767.58         57.6877
768.00        57.72999
768.41        57.90452
768.83        57.74328
769.24        57.29105
769.66        57.58924
770.07        57.54105
770.49        57.66141
770.90        57.61826
771.32         57.5788
771.73        57.56324
772.15        57.56328
772.56        57.60308
772.97        57.65861
773.39        57.69402
773.80        57.73049
774.22        57.73612
774.63        57.72904
775.05        57.71397
775.46        57.74395
775.88        57.80757
776.29        57.91061
776.70        58.00738
777.12        58.03355
777.53         57.9945
777.95        57.91117
778.36        57.81763
778.77        57.76329
779.19        57.76138
779.60        57.79694
780.02        57.87162
780.43        57.99303
780.84        58.14665
781.26        58.34817
781.67        58.56454
782.09        58.58502
782.50        58.43636
782.91        58.37962
783.33        58.40939
783.74        58.40081
784.15        58.33219
784.57        58.31617
784.98         58.3815
785.39        58.49097
785.81        58.63367
786.22        58.81007
786.63        58.96357
787.04        59.00571
787.46        58.93678
787.87        58.77026
788.28        58.57185
788.70        58.44118
789.11        58.38712
789.52        58.38217
789.93        58.43159
790.35        58.53377
790.76        58.69379
791.17        58.92246
791.58        59.13574
792.00        59.22174
792.41        59.19395
792.82        58.93697
793.23         58.6226
793.65        58.81992
794.06        59.43705
794.47        59.71903
794.88        59.64793
795.29        59.58932
795.71        59.89178
796.12        59.89428
796.53        59.70221
796.94        59.63917
797.35        59.68144
797.76        59.49712
798.18         59.1517
798.59        59.00422
799.00        59.08484
799.41        59.23027
799.82        59.36871
800.23        59.44649
800.64        59.43159
801.06        59.31988
801.47        59.19928
801.88        59.14366
802.29         59.1825
802.70        59.29889
803.11        59.44679
803.52         59.5458
803.93        59.56746
804.34        59.52768
804.75        59.49284
805.17         59.5284
805.58        59.66626
805.99        59.95999
806.40        60.29382
806.81         60.2425
807.22        59.87786
807.63        59.77687
808.04        59.96901
808.45        60.03015
808.86        59.95208
809.27        60.01134
809.68        60.18063
810.09          60.258
810.50        60.21806
810.91        60.12476
811.32        59.99827
811.73        59.86974
812.14         59.7579
812.55        59.64767
812.96        59.56173
813.37        59.54367
813.78        59.59808
814.19        59.71467
814.60        59.84649
815.01        59.91853
815.42         59.9151
815.83        59.85376
816.24        59.77904
816.65        59.77626
817.05        59.87532
817.46        60.02215
817.87        60.19661
818.28        60.33405
818.69        60.41728
819.10        60.46342
819.51        60.49575
819.92        60.55236
820.33        60.64078
820.74        60.74144
821.14        60.82485
821.55        60.86927
821.96        60.85906
822.37        60.80742
822.78        60.73233
823.19        60.66569
823.60        60.61753
824.00        60.58565
824.41        60.53858
824.82        60.48059
825.23        60.40904
825.64        60.33989
826.04         60.2724
826.45        60.16279
826.86        60.02574
827.27        59.87823
827.68        59.77247
828.08        59.81794
828.49        59.96822
828.90        60.23494
829.31        60.57603
829.72        60.81163
830.12        60.89917
830.53        61.29836
830.94        61.15949
831.35        61.08751
831.75        60.85903
832.16        60.49444
832.57         60.1274
832.97        59.98293
833.38        60.11102
833.79        60.44068
834.20         60.8541
834.60        61.16793
835.01        61.32328
835.42        61.36766
835.82        61.34266
836.23        61.28192
836.64        61.22484
837.04        61.16655
837.45        61.09265
837.86        61.04261
838.26        61.03421
838.67        61.05327
839.08        61.11117
839.48         61.2016
839.89         61.3118
840.29        61.44347
840.70        61.57128
841.11        61.65005
841.51        61.68005
841.92        61.62871
842.33        61.55088
842.73        61.53992
843.14        61.57535
843.54         61.6715
843.95        61.74865
844.35        61.69466
844.76        61.49072
845.17        61.18622
845.57        60.91555
845.98        60.86249
846.38        61.09278
846.79        61.51803
847.19        62.02905
847.60        62.37552
848.00        62.51556
848.41        62.47488
848.81        62.37018
849.22         62.3449
849.62        62.47425
850.03        62.66299
850.43        62.85726
850.84        62.87712
851.24        62.73192
851.65        62.42263
852.05        62.08134
852.46        61.85118
852.86        61.78949
853.27        61.89563
853.67        62.01044
854.07        62.03748
854.48        61.92264
854.88        61.71063
855.29        61.47243
855.69        61.48586
856.10        61.72208
856.50        62.18142
856.90         62.6122
857.31        62.64072
857.71        62.23966
858.12        61.48679
858.52        60.64706
858.92        60.11751
859.33        60.01618
859.73        60.26976
860.13        60.72888
860.54        61.13494
860.94        61.43844
861.34        61.66333
861.75        61.78331
862.15        61.82818
862.55        61.77611
862.96        61.59429
863.36        61.33408
863.76        61.04791
864.17        60.76915
864.57        60.54222
864.97        60.36419
865.38        60.19951
865.78        60.08015
866.18        60.00574
866.58        60.05569
866.99        60.32605
867.39        60.83168
867.79        61.49396
868.19         62.1165
868.60        62.33638
869.00        62.18318
869.40        61.94707
869.80        61.69341
870.21        61.33787
870.61        60.99774
871.01        60.77533
871.41        60.65539
871.81         60.5116
872.22        60.34313
872.62        60.19007
873.02        60.06771
873.42        60.18853
873.82        60.35661
874.22         59.9896
874.63        59.37301
875.03        59.10811
875.43         59.2779
875.83        60.68151
876.23        60.23732
876.63        59.69384
877.03        58.74834
877.44         56.7636
877.84        176.4601
878.24        58.37917
878.64        59.21284
879.04        60.70729
879.44        61.04924
879.84        57.23579
880.24         62.8134
880.64        63.13075
881.04        60.63825
881.44        58.74906
881.84        58.05242
882.24        58.68779
882.65        59.99142
883.05        60.43215
883.45        59.70944
883.85        58.75476
884.25        58.00777
884.65        57.72234
885.05        58.01832
885.45        58.73176
885.85        59.51413
886.25        59.89671
886.65        59.77305
887.05        59.29083
887.45        58.68044
887.85        58.32473
888.25        58.35126
888.65        58.64985
889.04        59.07896
889.44        59.41135
889.84        59.56651
890.24         59.6166
890.64        59.65254
891.04        59.81059
891.44        60.11074
891.84        60.48131
892.24        60.82233
892.64        60.97472
893.04        60.90078
893.44        60.68142
893.83        60.41014
894.23        60.18469
894.63        60.07049
895.03        60.05549
895.43        60.16679
895.83        60.44019
896.23        60.84863
896.63        61.33447
897.02        61.81674
897.42        62.24286
897.82         62.5473
898.22        62.72549
898.62        62.71997
899.01        62.45628
899.41        61.93636
899.81        61.24798
900.21         60.5088
900.61        59.90505
901.00        59.50598
901.40        59.34485
901.80        59.46619
902.20        59.76381
902.59        60.16263
902.99        60.94276
903.39        62.03841
903.79        61.58126
904.18        62.31532
904.58        62.06136
904.98        61.67812
905.38        61.15072
905.77        60.54177
906.17        59.87012
906.57        59.29922
906.96        59.20073
907.36        59.62505
907.76        60.49101
908.15        61.51024
908.55        62.03529
908.95        61.94714
909.34        61.36391
909.74        60.63582
910.14        60.30388
910.53        60.50269
910.93        61.04116
911.33        61.62475
911.72        61.78848
912.12        61.43428
912.52        60.74725
912.91        59.95059
913.31        59.45993
913.70        59.36323
914.10        59.52747
914.49        59.84284
914.89        60.05395
915.29        60.09939
915.68         60.0466
916.08        59.96814
916.47         59.9155
916.87        59.94915
917.26        60.04382
917.66        60.17753
918.05         60.3481
918.45        60.52491
918.84        60.69778
919.24        60.90598
919.64        61.26795
920.03        61.77827
920.42        62.37333
920.82        62.83532
921.21        62.84053
921.61        62.37323
922.00        61.61338
922.40        60.92139
922.79          60.724
923.19        60.71938
923.58        61.72622
923.98         63.8701
924.37        64.13298
924.77        60.95462
925.16        69.19028
925.55         62.1469
925.95        62.40108
926.34        62.36481
926.74        61.78827
927.13        60.55165
927.52        59.76657
927.92        59.91674
928.31        60.34715
928.70        61.00457
929.10        61.72144
929.49        62.43705
929.89        63.21217
930.28         63.7982
930.67        63.67094
931.07        62.78727
931.46        61.20699
931.85        59.53597
932.24        59.29987
932.64        60.76105
933.03        62.77672
933.42        64.26392
933.82        67.24184
934.21        65.79974
934.60        64.58035
934.99        63.21066
935.39        62.80519
935.78        63.43681
936.17        65.47415
936.56        72.11315
936.96        64.47584
937.35        68.36457
937.74        64.63249
938.13        61.90071
938.53        59.76211
938.92        59.05587
939.31        60.33764
939.70        62.18449
940.09        63.16786
940.49        62.95663
940.88        62.03576
941.27        60.87563
941.66        60.34805
942.05        60.75291
942.44        61.71125
942.84        62.71706
943.23        63.19355
943.62        62.97938
944.01        62.25788
944.40        61.43875
944.79        61.19257
945.18        61.68372
945.57        62.69907
945.97        63.69276
946.36        63.93401
946.75        63.21721
947.14        61.77613
947.53        60.19298
947.92        59.46646
948.31        59.86021
948.70        61.05188
949.09        62.43204
949.48         63.0643
949.87        62.73097
950.26         61.7436
950.65        60.55775
951.04        59.91283
951.43        60.02806
951.82        60.64489
952.21        61.47914
952.60        62.05835
952.99        62.19896
953.38        62.06418
953.77        61.76425
954.16        61.42865
954.55        61.12662
954.94        60.82915
955.33        60.54734
955.72        60.33684
956.11        60.22403
956.50        60.19263
956.89        60.32521
957.28        60.72319
957.66        61.39091
958.05        62.20395
958.44        62.89777
958.83        63.07151
959.22        62.65261
959.61        61.71624
960.00        60.60858
960.39        60.02031
960.78        60.17101
961.16        60.90123
961.55        61.70953
961.94        62.01017
962.33        61.68164
962.72        60.87832
963.11        59.94283
963.49        59.57226
963.88        59.98542
964.27        60.92085
964.66        61.91649
965.04        62.36351
965.43        62.08871
965.82        61.33194
966.21        60.42219
966.60        59.93594
966.98        60.05602
967.37        60.59079
967.76        61.29616
968.15        61.77351
968.53        61.92036
968.92        61.86758
969.31        61.72186
969.69        61.63885
970.08        61.65107
970.47        61.65665
970.86        61.73389
971.24        62.04023
971.63        62.54123
972.02        63.19991
972.40        63.74094
972.79        63.64865
973.17        62.92002
973.56        61.72085
973.95        60.46772
974.33        59.91822
974.72         60.2836
975.11        61.29131
975.49        62.68509
975.88        63.94271
976.26        64.92273
976.65        65.71005
977.04        66.18523
977.42        66.13836
977.81        65.54462
978.19        64.35454
978.58        63.23532
978.96        63.36569
979.35        64.89995
979.74        67.31567
980.12        69.65725
980.51        70.57208
980.89        69.99552
981.28        68.18239
981.66        65.66301
982.05         63.8651
982.43        63.42375
982.82        64.04565
983.20        65.17404
983.59         65.8789
983.97        65.93592
984.35        65.59967
984.74        65.12733
985.12        65.00423
985.51        65.32478
985.89        65.94543
986.28        66.54273
986.66        66.77714
987.04         66.6325
987.43        66.11724
987.81        65.27901
988.20        65.83266
988.58        68.05869
988.96        68.81589
989.35        67.12155
989.73          73.494
990.12        69.52271
990.50        69.34005
990.88        68.26537
991.27        67.42381
991.65        66.92307
992.03        66.87617
992.42         67.1926
992.80        67.03134
993.18        66.25535
993.56         65.1466
993.95          64.146
994.33        63.90176
994.71        64.57093
995.10        65.88921
995.48        67.43274
995.86         68.5107
996.24        68.90194
996.63        68.73157
997.01        68.34505
997.39         68.1036
997.77        68.10406
998.15        68.18784
998.54        68.29379
998.92        68.22459
999.30        67.98322
999.68        67.73369
1000.06         67.4452
1000.45        67.00311
1000.83        66.54556
1001.21        66.06857
1001.59         65.9735
1001.97         66.8278
1002.35        68.53986
1002.73         70.7576
1003.12         72.8215
1003.50        73.97001
1003.88        74.07428
1004.26        73.33212
1004.64        72.13298
1005.02         71.3237
1005.40        71.23759
1005.78        71.64797
1006.16         72.1741
1006.54        72.12978
1006.92        71.37698
1007.30        70.30237
1007.69        69.17411
1008.07        68.40678
1008.45        68.09656
1008.83        68.06226
1009.21        68.51121
1009.59        69.80278
1009.97        71.71829
1010.35        73.84584
1010.73        75.59409
1011.11        76.62977
1011.49        77.09419
1011.86        76.76958
1012.24        75.58125
1012.62        76.89697
1013.00        77.77699
1013.38        77.90026
1013.76        75.74671
1014.14        79.78001
1014.52        85.73095
1014.90        77.21818
1015.28        77.90341
1015.66        79.25199
1016.04        75.68166
1016.41        76.79288
1016.79        76.79025
1017.17        76.87453
1017.55        76.33676
1017.93         75.5687
1018.31         75.1503
1018.69        75.46959
1019.06         76.6374
1019.44        78.30628
1019.82        79.80756
1020.20        80.26411
1020.58        79.50235
1020.95        77.54433
1021.33        74.84575
1021.71        72.99281
1022.09        73.04156
1022.46        74.39026
1022.84        76.11945
1023.22        77.61585
1023.60        78.86009
1023.97        80.14027
1024.35        81.37314
1024.73        82.20969
