SpectraSmart Spectrum 2.9.0.0
--------- Device Information -----------
Spectrum Name :  反射率_0
Saving Time :  2024/04/21 00:22:57
Spectro-Module Model Name : SE2030-DUVN
Spectro-Module Serial Number : OS361AC55029948
Wavelength Start : 200
Wavelength End : 1025
Wavelength Unit : Wavelength(nm)
Spectrum Unit : Reflectance(%)
-----------Spectrum Setting ------------
Integration Time : 20ms
Average : 10
Boxcar : 0
Background removal :  enabled
linearity correction :  enabled
SC :  disabled
Intensity correction :  disabled
DWT denoise :  enabled
savitzky-golay :  disabled
FFT :  disabled
Running average :  disabled
Kalman :  disabled
High pass :  disabled
---------------BEGIN--------------------
Wavelength(nm)             Reflectance(%)
200.29               0
200.75       -60.25123
201.21        3.098593
201.67         38.6855
202.13        49.80015
202.58        45.57945
203.04        31.95112
203.50        12.57605
203.96      -0.9923257
204.42       -2.265803
204.88        3.698404
205.34           12.17
205.80        16.79339
206.26        15.88655
206.72        13.65138
207.18         8.37926
207.64       -4.027337
208.10       -21.22647
208.55        -41.7673
209.01       -45.98519
209.47       -15.53515
209.93        21.74956
210.39         50.2438
210.85        68.15794
211.31        76.62806
211.77        78.77337
212.23        75.92585
212.69        66.06845
213.14        46.77068
213.60        10.38545
214.06       -92.34011
214.52        -333.906
214.98       -139.9651
215.44       -15.04218
215.90        28.67187
216.36        43.87265
216.81        46.44991
217.27        39.69041
217.73        0.142844
218.19        485.6178
218.65        228.0953
219.11       -382.9913
219.57        18.20613
220.02        43.21232
220.48        46.30222
220.94        41.12017
221.40        25.70354
221.86        -10.1766
222.32       -34.27858
222.77       -3.152342
223.23        24.37657
223.69        38.88588
224.15        45.13822
224.61        47.48764
225.06        48.46666
225.52        47.93501
225.98        44.73211
226.44        38.93327
226.90        30.15255
227.36        22.47089
227.81        23.96048
228.27        32.33692
228.73        41.92966
229.19        48.51272
229.65        49.99057
230.10        47.18166
230.56        41.56998
231.02        34.05322
231.48        28.52403
231.93        28.09008
232.39        31.47659
232.85        35.79079
233.31        38.51806
233.77        39.71297
234.22        40.55585
234.68        41.05884
235.14        41.10844
235.60        40.93986
236.05        39.89555
236.51        38.29248
236.97        41.52148
237.43        50.00504
237.88        55.75395
238.34        55.62974
238.80        71.95362
239.26        64.81026
239.71        63.30136
240.17        57.29436
240.63        52.14201
241.08        51.76635
241.54        58.47037
242.00        70.14331
242.46        77.11587
242.91        76.86986
243.37          68.711
243.83        55.32965
244.28         48.8876
244.74        55.89077
245.20        70.36887
245.66        83.10104
246.11        84.55441
246.57        74.14909
247.03        55.03799
247.48        31.24273
247.94        9.558831
248.40       -9.776013
248.85       -40.05577
249.31       -103.1168
249.77       -89.42173
250.22        26.45432
250.68        57.69668
251.14        64.04333
251.59        63.87653
252.05        61.21489
252.51        55.82417
252.96        47.63093
253.42        41.98592
253.88        43.35004
254.33        49.22856
254.79        58.77102
255.25        68.80001
255.70        76.42815
256.16        82.06791
256.62         84.8045
257.07         84.2047
257.53        82.05902
257.99        79.01654
258.44        75.94048
258.90        74.44916
259.35        73.70474
259.81        73.56712
260.27        73.19724
260.72        71.86274
261.18        70.18282
261.63        68.25777
262.09        66.60952
262.55        65.15884
263.00        63.77937
263.46        62.60249
263.91        61.51723
264.37        60.91175
264.83        60.63561
265.28        60.50705
265.74        60.37749
266.19        59.77017
266.65        58.72832
267.11        57.32217
267.56         55.7464
268.02        54.41796
268.47        53.37285
268.93        52.54375
269.38        51.72439
269.84        50.67012
270.30        49.32263
270.75        47.79401
271.21        46.29885
271.66        45.07362
272.12        44.20845
272.57        43.58044
273.03        43.06892
273.48        42.43641
273.94        41.65624
274.39        40.75455
274.85        39.85329
275.31        39.04931
275.76         38.3544
276.22        37.76735
276.67        37.20461
277.13        36.65376
277.58        36.06265
278.04        35.50347
278.49        34.94769
278.95        34.45857
279.40        33.98481
279.86        33.53643
280.31        33.07472
280.77        32.65541
281.22        32.23421
281.68        31.87158
282.13        31.46492
282.59        30.95849
283.04        30.33128
283.50        29.65388
283.95        29.05824
284.41        28.78349
284.86        28.84245
285.32        29.16773
285.77         29.5573
286.22        29.74704
286.68        29.69819
287.13        29.44209
287.59        29.17483
288.04        29.08152
288.50        29.18597
288.95        29.52254
289.41        29.97466
289.86        29.91096
290.32        29.24648
290.77        29.84998
291.22        28.88079
291.68        29.00403
292.13        29.39004
292.59        30.05587
293.04        30.91071
293.50        31.88451
293.95        32.94555
294.40        34.08344
294.86         35.2858
295.31        36.52082
295.77        37.77809
296.22        39.03949
296.68        40.30877
297.13        41.58938
297.58        42.90972
298.04        44.27869
298.49        45.73548
298.95        47.36122
299.40        49.13536
299.85        51.02924
300.31         52.9556
300.76        54.74815
301.21         56.3901
301.67         57.9657
302.12        59.52963
302.58        61.28216
303.03        63.23574
303.48        65.38284
303.94        67.68918
304.39        70.03701
304.84        72.39024
305.30        74.78321
305.75        77.15489
306.20        79.53455
306.66        81.92001
307.11        84.22713
307.57        86.47511
308.02        88.61235
308.47        90.66245
308.93        92.67516
309.38        94.59915
309.83        96.44303
310.29        98.23621
310.74        99.94237
311.19        101.6136
311.65        103.3084
312.10        105.0123
312.55        106.7069
313.00        108.3369
313.46        109.8183
313.91        111.1076
314.36        112.2393
314.82        113.2593
315.27        114.2288
315.72         115.187
316.18        116.1218
316.63        117.0283
317.08        117.8984
317.53        118.7215
317.99        119.4978
318.44        120.2238
318.89        120.8734
319.35        121.4392
319.80        121.9372
320.25        122.3699
320.70        122.7526
321.16        123.0836
321.61        123.3779
322.06        123.6508
322.51        123.9352
322.97        124.2216
323.42        124.5544
323.87        124.8818
324.32        125.1351
324.78        125.2838
325.23        125.3953
325.68        125.5207
326.13        125.7828
326.59        126.1737
327.04        126.7113
327.49        127.2844
327.94        127.7469
328.39         128.056
328.85        128.2225
329.30        128.3693
329.75        128.5452
330.20        128.7853
330.66        129.0163
331.11        129.3388
331.56        129.7551
332.01        130.2629
332.46        130.8632
332.92        131.4158
333.37        131.8467
333.82        132.0754
334.27         132.153
334.72        132.2153
335.17        132.4986
335.63        133.0255
336.08        133.7849
336.53        134.6424
336.98        135.4272
337.43        136.0685
337.88        136.6171
338.34         137.026
338.79         137.299
339.24          137.43
339.69        137.4293
340.14        137.4314
340.59        137.6578
341.05        138.1527
341.50        138.8739
341.95        139.6768
342.40        140.3126
342.85        140.7115
343.30        140.9439
343.75        141.1053
344.20        141.3592
344.66        141.7549
345.11        142.1962
345.56         142.634
346.01         143.003
346.46        143.2845
346.91        143.4705
347.36        143.5221
347.81        143.5108
348.26        143.4716
348.72        142.9035
349.17        142.8046
349.62        142.6038
350.07        142.6055
350.52        142.7386
350.97         142.905
351.42        142.9197
351.87        142.7224
352.32        142.3751
352.77        141.9387
353.22         141.507
353.67        141.1069
354.13        140.7157
354.58        140.2891
355.03        139.8214
355.48        139.3089
355.93        138.7708
356.38        138.2063
356.83        137.6012
357.28        136.9491
357.73        136.2438
358.18        135.4969
358.63        134.7413
359.08        133.9855
359.53        133.2191
359.98        132.4214
360.43        131.5511
360.88        130.5987
361.33        129.5883
361.78        128.5349
362.23        127.4625
362.68        126.3968
363.13        125.3438
363.58        124.3329
364.03        123.4068
364.48        122.5619
364.93        121.7725
365.38        121.0018
365.83        120.1923
366.28         119.321
366.73        118.3999
367.18        117.4224
367.63        116.3843
368.08        115.3059
368.53        114.2106
368.98        113.1354
369.43         112.123
369.88        111.1788
370.33        110.2847
370.78        109.4444
371.23        108.6773
371.68        107.9831
372.13        107.3507
372.58        106.7343
373.03        106.0488
373.48        105.2682
373.93        104.4178
374.38        103.5264
374.83        102.6584
375.28        101.8553
375.72        101.0888
376.17        100.4174
376.62        99.82966
377.07        99.29663
377.52        98.78946
377.97        98.26817
378.42        97.68459
378.87        97.03685
379.32        96.35599
379.77        95.63591
380.22         94.8485
380.67        93.99116
381.11        93.07967
381.56        92.18241
382.01        91.44799
382.46        90.92722
382.91        90.59154
383.36        90.34376
383.81        90.02352
384.26        89.58431
384.71        89.06109
385.15        88.51187
385.60        88.10255
386.05        87.82995
386.50        87.63678
386.95        87.42982
387.40        87.07794
387.85        86.57064
388.29        85.92331
388.74        85.32804
389.19        84.81998
389.64         84.4066
390.09        84.04099
390.54        83.70797
390.98        83.37506
391.43         83.0781
391.88        82.81604
392.33        82.54971
392.78        82.23044
393.23        81.85935
393.67        81.37575
394.12        80.93234
394.57        80.64792
395.02        80.48034
395.47        80.18698
395.91        79.79065
396.36        79.48187
396.81        79.29895
397.26        79.17237
397.71        79.01349
398.15        78.75701
398.60        78.48657
399.05        77.95333
399.50        77.38417
399.95        77.51252
400.39        78.14771
400.84        78.24873
401.29        77.72923
401.74        77.05788
402.18        76.44593
402.63        76.18719
403.08        76.23689
403.53         76.0439
403.97        75.58964
404.42        75.31734
404.87        75.24439
405.32        75.18457
405.76        75.11286
406.21        75.10273
406.66        75.10326
407.11        75.00418
407.55        74.82241
408.00         74.6229
408.45        74.42802
408.90        74.13518
409.34        73.78216
409.79        73.54817
410.24        73.44128
410.68        73.36747
411.13         73.3232
411.58        73.36559
412.03        73.44633
412.47        73.46393
412.92        73.36583
413.37        73.19453
413.81        72.99787
414.26         72.9077
414.71        72.92364
415.15        73.02474
415.60        73.11669
416.05        73.10444
416.49        72.96463
416.94        72.72969
417.39        72.46444
417.83        72.25327
418.28        72.12556
418.73        72.05328
419.17        72.00976
419.62        71.96191
420.07        71.89731
420.51        71.82205
420.96        71.77116
421.41        71.74115
421.85        71.70091
422.30        71.68933
422.74        71.67989
423.19        71.70944
423.64        71.75288
424.08        71.91452
424.53        72.11084
424.98        71.94907
425.42        72.07249
425.87        71.86844
426.31        71.66162
426.76        71.83011
427.21        72.31484
427.65        72.61165
428.10        72.59803
428.54        72.55888
428.99        72.52594
429.44        72.36442
429.88        72.08088
430.33        71.79796
430.77        71.54486
431.22        71.50249
431.66        71.64647
432.11        71.92885
432.56        72.29002
433.00        72.42573
433.45        72.05304
433.89        71.80807
434.34        71.93261
434.78         70.7679
435.23        70.11762
435.67        71.78297
436.12        72.69656
436.57        72.92055
437.01        71.70637
437.46         71.2225
437.90        71.84822
438.35        72.33178
438.79        72.01358
439.24        71.96027
439.68        71.97599
440.13        71.90173
440.57        71.76949
441.02        71.84232
441.46        72.05536
441.91        72.02553
442.35        71.77673
442.80        72.00328
443.24        72.54335
443.69        72.66742
444.13        72.36433
444.58        72.14166
445.02        72.05715
445.47        72.23945
445.91        72.55099
446.36        72.60846
446.80        72.37201
447.24        72.03216
447.69        71.71675
448.13        71.71565
448.58        71.81042
449.02        71.82825
449.47        71.70444
449.91        71.71729
450.36        71.88015
450.80        71.88537
451.25        71.74939
451.69        71.93131
452.13        71.95496
452.58        71.80755
453.02        71.40875
453.47        71.16301
453.91        71.08535
454.36        70.98929
454.80        70.86376
455.24        70.78237
455.69        70.76116
456.13        70.72546
456.58        70.67227
457.02        70.70949
457.46        70.46442
457.91        70.37283
458.35        70.42094
458.79        70.34303
459.24        70.18069
459.68        70.07664
460.13        70.07279
460.57        69.92196
461.01         69.6081
461.46        69.97684
461.90        69.25691
462.34        69.69508
462.79        69.31938
463.23        69.51671
463.68        69.72131
464.12        69.41208
464.56        68.78604
465.01        68.85181
465.45        69.39268
465.89        69.58785
466.34        69.41553
466.78        69.02058
467.22        68.50909
467.67        68.76758
468.11        68.49245
468.55        68.52568
468.99        68.40904
469.44        68.25182
469.88        68.03319
470.32        67.69518
470.77        67.34019
471.21         67.1347
471.65        67.11636
472.10        67.24334
472.54        67.40439
472.98        67.47173
473.42        67.41828
473.87        67.22679
474.31        66.96539
474.75        67.02265
475.20        67.32254
475.64        67.34703
476.08        67.12785
476.52        67.09582
476.97        66.94466
477.41        67.06366
477.85        67.43811
478.29        66.49277
478.74        66.52908
479.18        66.92329
479.62        66.78138
480.06        66.91373
480.50        66.84358
480.95        66.92084
481.39        67.09119
481.83        66.82346
482.27        67.13297
482.72        67.00074
483.16        66.80073
483.60        67.13818
484.04        67.17878
484.48        66.90175
484.93        66.75973
485.37        66.91901
485.81        67.07984
486.25        66.85082
486.69        68.40943
487.14        68.73725
487.58        67.84279
488.02        66.77542
488.46        66.59852
488.90        66.15125
489.34        66.22714
489.79        65.66814
490.23        66.36088
490.67        66.34817
491.11        66.17328
491.55        66.05346
491.99        66.03838
492.43        65.99677
492.88        65.92573
493.32        65.95696
493.76        66.00075
494.20        65.99014
494.64        65.94222
495.08        65.50769
495.52        65.27798
495.96         65.4155
496.41        65.92262
496.85        65.94564
497.29        65.48159
497.73        65.51519
498.17        65.67178
498.61         65.6956
499.05        65.45271
499.49        65.22337
499.93        65.10765
500.37        65.10162
500.82        65.19126
501.26        65.49835
501.70        65.89235
502.14        65.61713
502.58        65.28867
503.02        65.08099
503.46        65.13422
503.90        65.14583
504.34        65.07302
504.78        65.04112
505.22        65.05865
505.66        65.04017
506.10        64.98502
506.54        65.00891
506.98        65.13208
507.42        64.62683
507.86        65.24883
508.30        64.56929
508.74        65.00318
509.18        64.94553
509.62        64.95488
510.06        64.96967
510.50        64.95747
510.94         64.8503
511.38        64.65421
511.82        64.50439
512.26        64.41667
512.70        64.33413
513.14        64.26011
513.58        64.24065
514.02        64.27743
514.46        64.31953
514.90        64.32604
515.34        64.46872
515.78         64.4102
516.22        64.40058
516.66         64.1943
517.10        64.37465
517.54        64.13472
517.98        64.10645
518.42        64.05949
518.86        64.02249
519.30        63.99886
519.74        63.95264
520.18        63.91398
520.62        64.00751
521.06         64.1857
521.50        64.20638
521.93        64.08186
522.37        64.03856
522.81        64.08758
523.25        64.09699
523.69        64.05492
524.13        64.00465
524.57        63.94875
525.01        63.87967
525.45        63.81874
525.89        63.79841
526.32        63.82313
526.76        63.88929
527.20        63.96991
527.64        64.03117
528.08        64.06119
528.52        64.04617
528.96        64.00542
529.40        64.01626
529.83        64.05688
530.27        64.03154
530.71        63.93744
531.15        63.87443
531.59        63.84988
532.03        63.80723
532.46         63.7569
532.90        63.76121
533.34        63.81452
533.78        63.89192
534.22        63.96177
534.66        63.97621
535.09        63.91636
535.53        63.82506
535.97         63.7049
536.41        63.57692
536.85         63.4571
537.28        63.34397
537.72        63.26668
538.16        63.27242
538.60        63.36093
539.04        63.51242
539.47        63.66289
539.91        63.76708
540.35        63.79286
540.79        63.76404
541.22        63.69838
541.66        63.64398
542.10        63.61127
542.54        63.57843
542.97        63.55286
543.41        63.58838
543.85        63.68064
544.29        63.82375
544.72        63.93685
545.16        64.02475
545.60        63.88621
546.04        63.71703
546.47        63.40038
546.91        63.45671
547.35        63.76497
547.79         63.9903
548.22        64.02213
548.66        63.83243
549.10        63.53384
549.53        63.49418
549.97        63.70356
550.41        63.75001
550.84        63.63002
551.28        63.58687
551.72        63.61426
552.15        63.66791
552.59        63.76744
553.03        63.50688
553.46        63.68836
553.90        63.56548
554.34        63.35135
554.77        63.44387
555.21        63.18111
555.65        63.19389
556.08        63.26418
556.52        63.38747
556.96        63.51167
557.39        63.64072
557.83        63.74784
558.27        63.69246
558.70        63.51686
559.14        63.40925
559.57        63.37882
560.01        63.41292
560.45        63.45952
560.88        63.38404
561.32        63.27617
561.75        63.27348
562.19        63.40757
562.63        63.60419
563.06        63.75839
563.50        63.65513
563.93        63.33906
564.37        63.11087
564.80        63.02525
565.24        63.14054
565.68        63.39257
566.11        63.49702
566.55        63.43467
566.98        63.46815
567.42        63.65715
567.85        63.35657
568.29        63.52156
568.72        63.53474
569.16        63.69067
569.60        63.75449
570.03        64.02073
570.47         64.1366
570.90        64.08341
571.34        64.49784
571.77         64.7359
572.21        64.31126
572.64        64.39167
573.08        64.29368
573.51        64.18002
573.95        64.64474
574.38        64.50198
574.82        65.26537
575.25        65.21392
575.69        64.82896
576.12        64.38156
576.56        64.45016
576.99        64.94736
577.42        65.08896
577.86        64.85565
578.29        65.73725
578.73        65.77206
579.16        65.30251
579.60         64.8646
580.03        64.83982
580.47        65.11862
580.90        65.08849
581.33        65.17412
581.77        65.28653
582.20        65.55507
582.64        66.21798
583.07        65.58025
583.51        65.16129
583.94        64.38605
584.37        64.59815
584.81        64.05486
585.24        64.32173
585.68        65.12432
586.11        65.01089
586.54        65.10461
586.98        64.79366
587.41        64.76268
587.85        64.73328
588.28          65.069
588.71        65.01074
589.15        64.70205
589.58        64.43499
590.01        63.96318
590.45        64.16961
590.88         64.2855
591.31        63.99692
591.75        63.86893
592.18        63.95135
592.61        64.41224
593.05        64.72525
593.48        64.73785
593.91        64.94177
594.35        64.64198
594.78        64.69848
595.21        64.15957
595.65         64.2457
596.08        64.58784
596.51        64.82196
596.94        64.34676
597.38         64.2349
597.81        64.39183
598.24        64.21832
598.68        64.11884
599.11        64.05265
599.54        64.42316
599.97        64.45947
600.41        64.38638
600.84        64.65351
601.27        64.58722
601.70        64.45991
602.14        64.00927
602.57        63.88402
603.00        64.08331
603.43        64.14579
603.87        64.54437
604.30        64.35622
604.73        64.31989
605.16        63.88116
605.60        64.17377
606.03        64.29957
606.46        64.57788
606.89        64.06195
607.32        63.80401
607.76        64.69228
608.19        64.33295
608.62        63.97472
609.05         64.6754
609.48        64.20592
609.92        64.30367
610.35        64.10904
610.78        64.31202
611.21        64.20341
611.64        64.12922
612.07        64.03316
612.50        64.01944
612.94        63.94207
613.37        63.79923
613.80        64.04731
614.23        64.05959
614.66        63.84888
615.09        63.97852
615.52        63.89761
615.96        63.85064
616.39        63.76551
616.82         63.6413
617.25        63.75219
617.68        63.70418
618.11        63.54575
618.54        63.41616
618.97        63.45839
619.40        63.63329
619.84        63.80356
620.27        63.39051
620.70        63.34166
621.13        63.47667
621.56         63.5327
621.99        63.51331
622.42        63.55507
622.85        63.61452
623.28        63.74463
623.71        63.52283
624.14        63.54715
624.57        63.83247
625.00        63.70187
625.43        63.48834
625.86        63.43349
626.29        63.69254
626.72        63.17891
627.15        63.35178
627.58        63.29377
628.01        63.47148
628.44        63.13237
628.87         62.8778
629.30        63.36066
629.73        63.45535
630.16        63.35273
630.59        63.22068
631.02        63.38153
631.45        63.11007
631.88        63.11068
632.31        63.15573
632.74        62.94245
633.17         63.0842
633.60        63.00218
634.03        62.88997
634.46        62.79973
634.89        62.68135
635.32        62.69176
635.75        62.80319
636.18        62.99365
636.61        63.19306
637.04         63.2945
637.47        63.27202
637.89         63.1624
638.32        63.00767
638.75        62.90505
639.18        62.88338
639.61        62.91604
640.04        62.97492
640.47        63.01468
640.90        63.01967
641.33        63.00636
641.76        62.98682
642.18         62.9836
642.61         62.9882
643.04        62.99977
643.47        63.00838
643.90        63.00508
644.33        62.98867
644.76        62.95201
645.18        62.91231
645.61        62.91716
646.04        62.95779
646.47        62.96716
646.90        62.94429
647.33        62.93803
647.75        62.94384
648.18         62.9579
648.61        62.98478
649.04        62.98966
649.47        62.94521
649.89        63.12676
650.32        62.88773
650.75        63.01164
651.18        63.22332
651.61         63.1985
652.03        62.96616
652.46        62.74353
652.89        62.64105
653.32        62.77525
653.74         63.1097
654.17        63.10073
654.60        62.94493
655.03        62.80893
655.46        62.96126
655.88        63.49842
656.31        65.45301
656.74        69.94285
657.16        69.15687
657.59        67.21558
658.02        64.34101
658.45        63.96032
658.87        63.20921
659.30        63.45638
659.73        63.01027
660.15        62.54398
660.58        62.85797
661.01        63.12059
661.44        63.47894
661.86         63.5306
662.29        63.28187
662.72        63.06727
663.14         62.9713
663.57        62.95671
664.00         63.0111
664.42        63.04324
664.85        63.05581
665.27        63.02394
665.70        63.14529
666.13        63.19879
666.55        63.23872
666.98        63.25995
667.41        63.26068
667.83        63.24876
668.26        63.23765
668.69         63.1749
669.11        63.04715
669.54         63.0579
669.96        63.26268
670.39        62.76623
670.82        63.10537
671.24        63.09336
671.67        63.15991
672.09        63.27345
672.52        63.42086
672.94        63.42409
673.37        63.31153
673.80        63.31401
674.22        63.43146
674.65        63.43954
675.07        63.35299
675.50        63.28747
675.92        63.26667
676.35        63.25091
676.77        63.24313
677.20         63.2698
677.62        63.33854
678.05        63.38126
678.47        63.37788
678.90        63.59271
679.32        63.55157
679.75        63.62339
680.17        63.66733
680.60        63.69706
681.02        63.70893
681.45        63.71057
681.87        63.71475
682.30        63.67546
682.72        63.63168
683.15        63.68226
683.57        63.77979
684.00        63.85548
684.42        63.59639
684.85        63.53262
685.27        63.57746
685.70        63.58081
686.12        63.51185
686.54         63.5182
686.97         63.6134
687.39        63.41069
687.82        63.60016
688.24         63.5952
688.66         63.5759
689.09        63.78648
689.51        63.74245
689.94        63.83927
690.36        63.90802
690.78        63.92857
691.21        63.90583
691.63        63.82949
692.06        63.75845
692.48        63.81999
692.90        63.97418
693.33        64.03033
693.75        63.97899
694.17        63.86516
694.60        63.73342
695.02        63.82659
695.44        63.85916
695.87        63.95074
696.29          64.011
696.71        63.89394
697.14        63.68559
697.56         63.9264
697.98        64.51942
698.41        64.52018
698.83         64.5402
699.25        64.36644
699.68        64.24728
700.10        64.13515
700.52        64.05859
700.94        64.02811
701.37        63.99873
701.79        63.95755
702.21        63.87846
702.64        63.77979
703.06        63.69571
703.48        63.68508
703.90        63.75979
704.33        63.89486
704.75        64.04253
705.17        64.10734
705.59        64.07101
706.01         63.9594
706.44        63.84377
706.86        63.86247
707.28        64.02715
707.70        64.28672
708.12        64.56657
708.55         64.7468
708.97        64.78899
709.39        64.74004
709.81         64.6313
710.23        64.52221
710.66        64.44553
711.08        64.39992
711.50        64.37392
711.92         64.3674
712.34        64.37794
712.76        64.40572
713.19        64.44842
713.61        64.54333
714.03        64.66045
714.45        64.80132
714.87         64.9279
715.29        64.94072
715.71        64.82306
716.13        64.76984
716.56        64.51714
716.98        64.44629
717.40        64.48047
717.82        64.60017
718.24        64.75646
718.66        64.86944
719.08        64.91842
719.50         64.9276
719.92        64.92371
720.34        64.94769
720.76        65.01012
721.19        65.08011
721.61        65.16734
722.03        65.26115
722.45        65.35478
722.87        65.45472
723.29        65.53781
723.71        65.56495
724.13        65.53148
724.55        65.44402
724.97        65.35233
725.39         65.3403
725.81        65.42405
726.23        65.57953
726.65        65.74052
727.07          65.804
727.49         65.7514
727.91        65.60857
728.33        65.44312
728.75        65.39894
729.17        65.49319
729.59        65.61526
730.01        65.74404
730.43        65.90433
730.85        66.07181
731.27        66.20824
731.69        66.30042
732.10        66.28927
732.52        66.40463
732.94         66.2005
733.36        65.79582
733.78         65.6857
734.20        65.97036
734.62        65.50293
735.04        65.97775
735.46        65.99716
735.88        66.05273
736.30        66.11067
736.72        66.16473
737.13          66.181
737.55        66.10101
737.97         65.9733
738.39        65.85197
738.81        65.80849
739.23        65.87087
739.65        66.07329
740.06        66.28254
740.48        66.37567
740.90        66.29691
741.32        66.09814
741.74        65.88336
742.16         65.8256
742.57        65.98003
742.99        66.27219
743.41        66.58351
743.83         66.7094
744.25        66.60324
744.67        66.32298
745.08        66.01519
745.50         65.8783
745.92        65.98591
746.34        66.27932
746.75        66.61842
747.17        66.77529
747.59        66.69717
748.01         66.4192
748.42        66.10676
748.84        66.04968
749.26        66.26287
749.68        66.60442
750.09        66.91593
750.51        66.85356
750.93         66.4908
751.35        66.37939
751.76        66.51616
752.18        66.43958
752.60        66.15717
753.01         65.9845
753.43        65.92002
753.85        65.85006
754.27        65.77412
754.68        65.74969
755.10        65.81066
755.52        65.82993
755.93        66.04395
756.35        66.25703
756.77        66.48036
757.18        66.59876
757.60        66.58466
758.02          66.468
758.43        66.38284
758.85        66.22144
759.26        66.65366
759.68        66.87881
760.10        66.61564
760.51        66.20919
760.93        66.39886
761.34        66.41676
761.76          66.507
762.18        66.63819
762.59         66.7122
763.01        66.77018
763.42        66.00119
763.84        66.02344
764.26        66.27312
764.67        66.68412
765.09        67.01405
765.50        67.22454
765.92        67.29322
766.33        67.09592
766.75         66.7185
767.16         66.7591
767.58        66.73739
768.00        67.11246
768.41        67.58884
768.83        67.47572
769.24        66.87049
769.66        66.97479
770.07        66.98495
770.49        67.28014
770.90        67.48676
771.32        67.30968
771.73        66.85845
772.15         66.7119
772.56        66.92588
772.97         67.1278
773.39        67.21117
773.80        67.26463
774.22        67.23122
774.63        67.11739
775.05        66.94818
775.46        66.81947
775.88        66.73779
776.29        66.70793
776.70         66.7091
777.12        66.71598
777.53        66.73924
777.95          66.786
778.36        66.84676
778.77        66.89323
779.19        66.92088
779.60        66.93878
780.02        66.97124
780.43        67.08163
780.84        67.27523
781.26        67.50586
781.67        67.75864
782.09        67.94174
782.50        68.02225
782.91        68.04734
783.33        68.01514
783.74        67.99277
784.15        67.96225
784.57        67.93096
784.98         67.9237
785.39        67.95657
785.81        68.03008
786.22        68.13284
786.63        68.24638
787.04        68.33958
787.46        68.41392
787.87        68.45576
788.28        68.46532
788.70        68.43741
789.11        68.35622
789.52        68.23061
789.93        68.11468
790.35        68.08633
790.76        68.17992
791.17        68.38451
791.58        68.60963
792.00        68.71799
792.41        68.71519
792.82        68.52683
793.23        68.30411
793.65        68.49823
794.06        69.04743
794.47        69.37622
794.88        69.44011
795.29        69.42001
795.71        69.67464
796.12        69.62176
796.53        69.38197
796.94        69.26955
797.35        69.25911
797.76        68.99162
798.18        68.54169
798.59        68.32128
799.00        68.36698
799.41        68.49065
799.82        68.62643
800.23         68.7423
800.64        68.80187
801.06        68.78458
801.47        68.76141
801.88        68.77134
802.29        68.83424
802.70        68.94505
803.11        69.05961
803.52        69.10357
803.93        69.05564
804.34        68.93005
804.75        68.82828
805.17        68.85365
805.58        69.04453
805.99        69.49135
806.40         70.0163
806.81        69.96684
807.22        69.44843
807.63        69.33444
808.04         69.6601
808.45        69.77165
808.86        69.65408
809.27        69.72489
809.68        69.96156
810.09        70.09126
810.50        70.08221
810.91         70.0247
811.32        69.91641
811.73        69.74969
812.14         69.5416
812.55        69.28496
812.96        69.05882
813.37        69.00479
813.78        69.14884
814.19        69.45159
814.60        69.79213
815.01        69.98334
815.42        69.97842
815.83        69.81467
816.24        69.59713
816.65        69.52628
817.05        69.66875
817.46        69.93903
817.87        70.23833
818.28        70.37535
818.69        70.31218
819.10        70.10761
819.51        69.89441
819.92        69.90143
820.33        70.18034
820.74        70.63832
821.14        71.11689
821.55        71.39944
821.96         71.4157
822.37        71.23378
822.78        70.93768
823.19        70.68013
823.60        70.52176
824.00        70.42989
824.41        70.35634
824.82        70.29263
825.23        70.22849
825.64        70.20216
826.04        70.20104
826.45        70.14816
826.86        70.05214
827.27         69.9266
827.68        69.84644
828.08        69.97286
828.49        70.25721
828.90        70.68081
829.31        71.15039
829.72        71.44045
830.12        71.50175
830.53         71.6827
830.94        71.39716
831.35        71.13573
831.75        70.77536
832.16        70.31825
832.57        69.90098
832.97        69.74028
833.38        69.87362
833.79        70.22868
834.20         70.6862
834.60        71.05772
835.01        71.27895
835.42        71.39738
835.82        71.41826
836.23        71.30646
836.64        71.10322
837.04        70.83337
837.45         70.5659
837.86         70.4808
838.26        70.62411
838.67        70.92866
839.08         71.3242
839.48        71.67297
839.89        71.90845
840.29        72.06244
840.70        72.12541
841.11        72.08749
841.51        71.98319
841.92        71.79166
842.33         71.5813
842.73         71.4675
843.14        71.44341
843.54        71.51957
843.95        71.68503
844.35        71.93657
844.76        72.23881
845.17        72.58275
845.57         72.9095
845.98          73.089
846.38        73.12194
846.79        73.01286
847.19        72.85294
847.60        72.71667
848.00        72.67692
848.41        72.68427
848.81        72.77579
849.22        72.92616
849.62        73.15523
850.03        73.41926
850.43        73.70457
850.84        73.88313
851.24        73.97778
851.65          73.938
852.05        73.84603
852.46        73.74729
852.86        73.67476
853.27        73.66716
853.67        73.61802
854.07        73.52123
854.48        73.34301
854.88        73.12197
855.29        72.90108
855.69        72.93462
856.10        73.16999
856.50        73.62845
856.90        74.07721
857.31        74.18068
857.71        73.91478
858.12        73.30979
858.52        72.58266
858.92        72.03126
859.33        71.75412
859.73        71.74214
860.13        71.86633
860.54        71.90651
860.94        71.85614
861.34        71.72083
861.75        71.59464
862.15        71.70799
862.55        72.04587
862.96        72.50845
863.36        72.88947
863.76        72.81274
864.17        72.21141
864.57         71.2541
864.97        70.20827
865.38        69.50745
865.78        69.34588
866.18        69.60204
866.58        70.17912
866.99        70.84158
867.39        71.47508
867.79        72.07942
868.19        72.56118
868.60         72.7185
869.00        72.59216
869.40        72.34804
869.80         71.9938
870.21        71.43193
870.61        70.79866
871.01        70.22716
871.41        69.77753
871.81          69.417
872.22        69.16061
872.62        69.03345
873.02        69.07783
873.42        69.49686
873.82        70.09392
874.22        70.36724
874.63         70.4211
875.03         70.5139
875.43         70.6496
875.83        71.47124
876.23        70.80444
876.63        69.98848
877.03        68.84981
877.44        66.88306
877.84          159.19
878.24        67.74779
878.64        68.68648
879.04        70.33479
879.44        71.15434
879.84        68.78336
880.24         73.0517
880.64        73.33932
881.04        71.43384
881.44        69.76342
881.84          68.781
882.24        68.61766
882.65        68.99263
883.05        69.05849
883.45        68.61605
883.85        68.34248
884.25        68.32871
884.65        68.34007
885.05        68.37533
885.45        68.43666
885.85        68.52229
886.25        68.67307
886.65        68.87778
887.05        69.10596
887.45        69.29149
887.85        69.32626
888.25        69.19582
888.65        68.95036
889.04         68.6763
889.44        68.52268
889.84        68.52712
890.24        68.62545
890.64        68.79135
891.04         68.9894
891.44        69.18871
891.84        69.40511
892.24        69.53959
892.64         69.4246
893.04        69.04939
893.44        68.48408
893.83        67.93692
894.23        67.69028
894.63        67.82863
895.03        68.29746
895.43        68.93123
895.83        69.44074
896.23        69.72843
896.63        69.83114
897.02        69.89507
897.42        70.21914
897.82         70.8013
898.22        71.53214
898.62        72.13457
899.01        72.17987
899.41        71.57787
899.81        70.52007
900.21        69.33949
900.61        68.57938
901.00        68.38712
901.40        68.65727
901.80        69.20564
902.20        69.61774
902.59        69.75552
902.99        69.95056
903.39        70.28772
903.79        69.50377
904.18        69.84408
904.58        69.50356
904.98        69.16695
905.38        68.82813
905.77        68.50625
906.17        68.24272
906.57        68.04939
906.96        68.02657
907.36        68.18414
907.76        68.51125
908.15        68.96291
908.55         69.3133
908.95        69.54604
909.34        69.63916
909.74        69.70164
910.14        69.88319
910.53        70.20288
910.93        70.59788
911.33         70.8835
911.72        70.76987
912.12         70.2342
912.52        69.39999
912.91        68.51562
913.31        68.04573
913.70        68.07928
914.10         68.4935
914.49        69.09812
914.89        69.47292
915.29         69.5167
915.68        69.32277
916.08        69.07324
916.47         69.0076
916.87         69.2215
917.26         69.6294
917.66        70.07548
918.05        70.34383
918.45        70.36057
918.84        70.19922
919.24        70.03234
919.64        70.19643
920.03        70.74408
920.42        71.53113
920.82        72.25372
921.21        72.45266
921.61        72.05526
922.00        71.28197
922.40        70.47882
922.79        70.08384
923.19        69.91871
923.58        70.58253
923.98        72.20135
924.37        72.50484
924.77        70.30613
925.16        76.83278
925.55        71.86489
925.95        72.25649
926.34        72.27228
926.74        71.74728
927.13        70.60892
927.52        69.72276
927.92        69.50715
928.31        69.49243
928.70        69.67371
929.10        69.94656
929.49        70.27657
929.89        70.70612
930.28        71.08575
930.67        71.04397
931.07         70.5418
931.46        69.59955
931.85        68.60704
932.24        68.61813
932.64         69.7921
933.03        71.29565
933.42        72.33703
933.82        74.56347
934.21         73.4202
934.60        72.46606
934.99         71.4357
935.39        71.22426
935.78        71.87366
936.17        73.65792
936.56        78.87074
936.96        73.06321
937.35        75.79961
937.74        72.54057
938.13        69.99199
938.53        68.18083
938.92        67.89346
939.31        69.45583
939.70        71.50266
940.09        72.62354
940.49        72.52142
940.88        71.67149
941.27        70.54401
941.66        70.02773
942.05        70.42722
942.44        71.35443
942.84        72.36861
943.23         72.9623
943.62        72.98511
944.01        72.62153
944.40        72.12151
944.79        71.88059
945.18        72.01601
945.57        72.39079
945.97        72.74517
946.36        72.79736
946.75        72.43526
947.14        71.77707
947.53        71.06878
947.92        70.71907
948.31        70.84209
948.70        71.30483
949.09        71.85859
949.48        72.12506
949.87        72.01222
950.26        71.63961
950.65        71.19279
951.04        70.97006
951.43        71.05952
951.82        71.36265
952.21         71.7388
952.60        71.96029
952.99        71.94602
953.38        71.76052
953.77        71.51747
954.16          71.369
954.55        71.35695
954.94        71.46001
955.33        71.55908
955.72        71.44997
956.11        71.10361
956.50        70.59306
956.89        70.17065
957.28        70.22513
957.66        70.84063
958.05        71.79634
958.44        72.77132
958.83        73.28547
959.22        73.21329
959.61         72.6553
960.00        71.83545
960.39         71.2095
960.78        70.96752
961.16        71.04672
961.55        71.16997
961.94        71.01339
962.33         70.5114
962.72        69.75984
963.11        69.04844
963.49        68.94964
963.88        69.58753
964.27        70.71867
964.66        71.87602
965.04        72.45423
965.43        72.28442
965.82        71.58849
966.21        70.65705
966.60        70.01818
966.98        69.86873
967.37        70.05029
967.76        70.42775
968.15         70.7673
968.53        71.00256
968.92        71.20467
969.31        71.38886
969.69        71.55184
970.08        71.66176
970.47        71.66625
970.86        71.64041
971.24        71.74598
971.63        71.98472
972.02        72.33536
972.40        72.61404
972.79        72.45445
973.17         71.8651
973.56        70.95054
973.95        70.04585
974.33        69.74509
974.72        70.18719
975.11        71.16581
975.49         72.3917
975.88        73.30218
976.26        73.78461
976.65        73.92616
977.04        73.81409
977.42        73.54587
977.81        73.13689
978.19        72.49805
978.58        71.97623
978.96         72.1298
979.35        72.99801
979.74        74.35269
980.12        75.67932
980.51        76.15233
980.89        75.78572
981.28        74.70415
981.66        73.29031
982.05        72.52083
982.43        72.76973
982.82        73.76974
983.20        75.07156
983.59        75.95255
983.97        76.25244
984.35        76.14088
984.74        75.71937
985.12        75.27398
985.51         74.8937
985.89        74.55998
986.28        74.24807
986.66        73.96677
987.04        73.76805
987.43        73.62331
987.81        73.38796
988.20        74.00963
988.58         75.5956
988.96        75.82219
989.35        74.12968
989.73        79.18356
990.12        76.56976
990.50        77.30026
990.88        77.35335
991.27        76.89829
991.65        75.83232
992.03        74.37152
992.42        73.10264
992.80        72.56218
993.18        72.94105
993.56        74.13868
993.95        75.65087
994.33        76.59598
994.71        76.72291
995.10        76.21602
995.48        75.47755
995.86         75.1814
996.24        75.49532
996.63        76.10468
997.01        76.76632
997.39        76.91681
997.77        76.42713
998.15        75.52786
998.54         74.5177
998.92        73.72061
999.30        73.31738
999.68        73.26938
1000.06        73.49902
1000.45        73.79305
1000.83         74.1582
1001.21        74.59358
1001.59        75.22272
1001.97        76.22005
1002.35        77.49899
1002.73        78.85265
1003.12        80.00803
1003.50        80.70148
1003.88        80.89607
1004.26        80.68129
1004.64        80.17237
1005.02        79.62677
1005.40        79.17026
1005.78        78.75665
1006.16        78.37253
1006.54        77.94059
1006.92        77.48643
1007.30        77.18112
1007.69        76.97436
1008.07        76.84154
1008.45        76.75552
1008.83        76.64742
1009.21        76.84049
1009.59        77.91831
1009.97        79.75763
1010.35        81.88662
1010.73        83.61065
1011.11        84.39218
1011.49        84.31052
1011.86        83.31458
1012.24        81.51257
1012.62        82.03734
1013.00        82.84579
1013.38        83.45982
1013.76        82.57825
1014.14        85.88632
1014.52         90.1289
1014.90        84.20058
1015.28        84.48253
1015.66        85.14105
1016.04        82.18536
1016.41        82.51988
1016.79        82.13831
1017.17        82.29008
1017.55        82.47912
1017.93        82.94537
1018.31        83.73975
1018.69        84.46079
1019.06        85.04102
1019.44        85.47254
1019.82        85.69912
1020.20        85.63084
1020.58        85.27739
1020.95         84.5592
1021.33        83.72033
1021.71        83.35302
1022.09         83.7434
1022.46        84.59629
1022.84        85.48471
1023.22        86.12505
1023.60        86.54585
1023.97        86.90226
1024.35        87.16836
1024.73        87.26435
