SpectraSmart Spectrum 2.9.0.0
--------- Device Information -----------
Spectrum Name :  反射率_0
Saving Time :  2024/04/21 00:22:41
Spectro-Module Model Name : SE2030-DUVN
Spectro-Module Serial Number : OS361AC55029948
Wavelength Start : 200
Wavelength End : 1025
Wavelength Unit : Wavelength(nm)
Spectrum Unit : Reflectance(%)
-----------Spectrum Setting ------------
Integration Time : 20ms
Average : 10
Boxcar : 0
Background removal :  enabled
linearity correction :  enabled
SC :  disabled
Intensity correction :  disabled
DWT denoise :  enabled
savitzky-golay :  disabled
FFT :  disabled
Running average :  disabled
Kalman :  disabled
High pass :  disabled
---------------BEGIN--------------------
Wavelength(nm)             Reflectance(%)
200.29               0
200.75       -61.65666
201.21       -10.53534
201.67        18.67854
202.13        31.17937
202.58        34.44137
203.04        33.42594
203.50        29.47909
203.96        25.42397
204.42        22.85478
204.88        19.66081
205.34        16.98675
205.80        16.26877
206.26        17.98952
206.72        25.43365
207.18        33.06218
207.64        26.11492
208.10       0.9849246
208.55        -37.1944
209.01       -59.96954
209.47       -34.90403
209.93         6.44723
210.39        40.45527
210.85        62.06519
211.31         70.8613
211.77        70.04366
212.23        60.56277
212.69        38.22349
213.14      -0.6170042
213.60       -62.75709
214.06       -220.0529
214.52       -531.4185
214.98       -201.5918
215.44        -29.6303
215.90        25.04175
216.36        42.78873
216.81         45.1271
217.27        35.80147
217.73       -15.97593
218.19        618.1713
218.65        284.7001
219.11       -538.3216
219.57        3.711739
220.02        38.56403
220.48        45.19043
220.94        42.92541
221.40        31.85689
221.86        5.106328
222.32       -10.26244
222.77         16.0231
223.23        37.56634
223.69        47.80729
224.15        50.42644
224.61        48.92076
225.06        45.37175
225.52        40.64329
225.98        35.78403
226.44        31.59853
226.90        27.07257
227.36        24.81716
227.81        29.00348
228.27        36.69092
228.73        44.31168
229.19        49.06733
229.65        49.45583
230.10        46.11355
230.56        40.20629
231.02        32.54659
231.48        26.94145
231.93        26.46125
232.39        29.88478
232.85        34.37778
233.31        37.45469
233.77        39.16474
234.22        40.70697
234.68        41.80153
235.14        41.78077
235.60         40.7228
236.05         38.0323
236.51        34.55703
236.97        37.15778
237.43        46.62854
237.88        53.98894
238.34        55.63883
238.80        72.43614
239.26        64.31285
239.71        60.02698
240.17        49.11686
240.63         37.8344
241.08        31.52636
241.54        33.77374
242.00        44.53242
242.46        52.55376
242.91        54.92664
243.37        53.09277
243.83        48.75752
244.28        47.93786
244.74        53.29487
245.20        60.44432
245.66        65.12282
246.11        63.62326
246.57        55.72107
247.03        42.89933
247.48        26.93717
247.94        10.55873
248.40       -8.382443
248.85       -45.41935
249.31       -146.7032
249.77       -216.5391
250.22       -59.19703
250.68        4.442093
251.14        25.36838
251.59        33.21591
252.05        37.03822
252.51        39.35384
252.96        40.93315
253.42        43.82634
253.88        48.00386
254.33        52.27992
254.79        56.42441
255.25        59.07458
255.70        60.33567
256.16        61.10575
256.62        61.97274
257.07        63.34758
257.53        65.30194
257.99         67.1382
258.44        67.96669
258.90        67.74225
259.35        66.20976
259.81        64.32924
260.27        62.41776
260.72        60.90522
261.18        60.13123
261.63        59.52836
262.09        59.02566
262.55        58.10276
263.00        56.69451
263.46         55.2016
263.91        53.72013
264.37        52.82597
264.83        52.43538
265.28        52.28514
265.74        52.20879
266.19        51.76329
266.65        50.96399
267.11        49.89739
267.56        48.67711
268.02        47.57682
268.47        46.61021
268.93        45.72467
269.38        44.83342
269.84        43.87973
270.30        42.83207
270.75        41.73994
271.21        40.64442
271.66        39.52306
272.12        38.43023
272.57        37.35853
273.03        36.38851
273.48        35.58192
273.94         34.9673
274.39        34.48206
274.85        34.08628
275.31        33.64376
275.76        33.11276
276.22        32.55973
276.67        32.01049
277.13        31.59626
277.58        31.28001
278.04        31.03889
278.49        30.76354
278.95        30.39636
279.40        29.88031
279.86        29.29551
280.31        28.64341
280.77        28.01695
281.22        27.41372
281.68        26.88254
282.13        26.39549
282.59        25.99334
283.04         25.6491
283.50        25.37293
283.95        25.17597
284.41        25.10563
284.86        25.13864
285.32        25.26688
285.77        25.37587
286.22        25.32416
286.68        25.11466
287.13        24.75516
287.59        24.42387
288.04        24.28391
288.50         24.3434
288.95        24.65768
289.41        25.11682
289.86        25.07374
290.32        24.42132
290.77        25.12828
291.22        24.10439
291.68        24.11839
292.13        24.27257
292.59        24.60793
293.04        25.07046
293.50        25.65002
293.95        26.34496
294.40        27.13752
294.86        28.01074
295.31        28.92448
295.77        29.86082
296.22        30.80147
296.68        31.75634
297.13        32.73942
297.58         33.7684
298.04        34.84542
298.49        35.96313
298.95         37.1302
299.40        38.33134
299.85         39.5734
300.31        40.85418
300.76        42.14789
301.21        43.45776
301.67        44.81263
302.12        46.20386
302.58        47.70945
303.03        49.32048
303.48        51.06979
303.94        52.93776
304.39        54.84371
304.84        56.77378
305.30        58.74831
305.75        60.76765
306.20        62.93399
306.66        65.23911
307.11        67.58347
307.57        69.89323
308.02        71.99874
308.47        73.89642
308.93        75.68931
309.38        77.40085
309.83        79.11102
310.29        80.93229
310.74        82.75245
311.19        84.62125
311.65        86.57172
312.10        88.56935
312.55        90.59441
313.00        92.54833
313.46        94.27631
313.91        95.72314
314.36        96.93774
314.82        98.00922
315.27         99.0808
315.72        100.2113
316.18        101.3661
316.63        102.5168
317.08         103.615
317.53        104.6313
317.99         105.574
318.44        106.4368
318.89        107.1901
319.35        107.8296
319.80        108.3734
320.25        108.8269
320.70        109.2105
321.16        109.5341
321.61        109.8191
322.06        110.1058
322.51        110.4641
322.97        110.8885
323.42        111.3979
323.87        111.9122
324.32         112.313
324.78        112.5482
325.23        112.6911
325.68        112.7857
326.13        112.9405
326.59        113.1675
327.04        113.5021
327.49         113.885
327.94        114.2541
328.39        114.5884
328.85        114.8678
329.30        115.2031
329.75        115.6314
330.20        116.1603
330.66        116.7264
331.11        117.3098
331.56        117.7321
332.01        117.9651
332.46         118.056
332.92        118.0775
333.37        118.3121
333.82        118.7764
334.27        119.4195
334.72        120.1558
335.17        120.8383
335.63        121.3776
336.08        121.8708
336.53        122.3251
336.98        122.8078
337.43        123.3362
337.88         123.881
338.34        124.3717
338.79        124.7677
339.24        125.0375
339.69        125.2213
340.14        125.4007
340.59        125.7015
341.05         126.153
341.50        126.7201
341.95         127.339
342.40        127.9075
342.85        128.3825
343.30        128.7859
343.75         129.117
344.20        129.3812
344.66        129.6008
345.11         129.758
345.56        129.8863
346.01        130.0428
346.46        130.2515
346.91        130.4757
347.36        130.6856
347.81        130.9287
348.26        131.2083
348.72         131.155
349.17         131.421
349.62        131.4966
350.07        131.5837
350.52        131.6567
350.97        131.6878
351.42        131.6264
351.87        131.4533
352.32        131.1805
352.77        130.8582
353.22        130.5604
353.67           130.3
354.13         130.081
354.58        129.7956
355.03        129.3285
355.48        128.6706
355.93        127.8707
356.38        127.0709
356.83        126.4809
357.28        126.1284
357.73        125.9383
358.18        125.7468
358.63        125.2937
359.08        124.5241
359.53        123.5324
359.98        122.4612
360.43        121.5256
360.88        120.7785
361.33        120.1439
361.78        119.5524
362.23        118.8963
362.68        118.1449
363.13        117.3521
363.58        116.5202
364.03        115.6449
364.48        114.7334
364.93        113.7684
365.38        112.8162
365.83        111.9935
366.28        111.3128
366.73        110.7408
367.18        110.1552
367.63        109.3577
368.08        108.3195
368.53        107.1208
368.98        105.8918
369.43        104.8213
369.88        103.9553
370.33         103.232
370.78        102.5913
371.23        101.9448
371.68        101.2622
372.13         100.573
372.58        99.89185
373.03        99.22332
373.48        98.56276
373.93        97.90073
374.38        97.21684
374.83        96.49861
375.28        95.76198
375.72        95.00455
376.17        94.31401
376.62        93.72746
377.07        93.23512
377.52        92.80482
377.97         92.3776
378.42        91.87231
378.87        91.28067
379.32        90.64051
379.77        89.99152
380.22        89.37479
380.67        88.79163
381.11        88.22978
381.56        87.67338
382.01        87.12688
382.46        86.60613
382.91         86.1283
383.36        85.68916
383.81        85.27354
384.26        84.87183
384.71        84.47568
385.15        84.08481
385.60        83.77014
386.05        83.50502
386.50        83.26941
386.95         83.0034
387.40        82.62421
387.85        82.13565
388.29        81.53343
388.74        80.99183
389.19        80.53799
389.64        80.17465
390.09        79.86165
390.54        79.57964
390.98        79.28476
391.43        79.01118
391.88        78.76908
392.33        78.53342
392.78        78.25182
393.23        77.92418
393.67        77.53417
394.12        77.24402
394.57        76.97682
395.02         77.0292
395.47        76.93904
395.91        76.77079
396.36        76.58517
396.81        76.39242
397.26        76.15228
397.71        75.86306
398.15         75.5472
398.60        75.30028
399.05        74.98045
399.50        74.68111
399.95        74.67608
400.39         74.8924
400.84        74.95131
401.29          74.782
401.74        74.38786
402.18        73.88593
402.63        73.62489
403.08        73.59061
403.53        73.38285
403.97        72.99252
404.42        72.71891
404.87        72.57826
405.32        72.46091
405.76        72.35324
406.21        72.32471
406.66        72.31251
407.11        72.18389
407.55        71.96246
408.00        71.71582
408.45        71.51792
408.90        71.39135
409.34        71.31834
409.79        71.32536
410.24        71.23482
410.68        71.14047
411.13        70.99701
411.58        70.77466
412.03        70.54859
412.47        70.50531
412.92        70.64831
413.37        70.92061
413.81        71.20193
414.26        71.37799
414.71        71.39449
415.15        71.30298
415.60        71.12473
416.05        70.96569
416.49        70.86531
416.94        70.78928
417.39        70.71778
417.83        70.60902
418.28        70.46103
418.73        70.29823
419.17        70.14355
419.62        70.03626
420.07        69.98542
420.51        69.96698
420.96        69.99577
421.41        70.03251
421.85         70.0349
422.30        70.08275
422.74        70.13151
423.19        70.15399
423.64        70.16537
424.08        70.35706
424.53         70.6068
424.98        70.70265
425.42        70.63359
425.87        70.40525
426.31        70.15376
426.76        70.22196
427.21         70.5621
427.65        70.71667
428.10        70.60229
428.54        70.56557
428.99        70.62822
429.44        70.51041
429.88        70.28465
430.33        70.28078
430.77        70.40164
431.22        70.66628
431.66        70.92525
432.11        70.74637
432.56        70.28331
433.00        70.10977
433.45        70.11592
433.89        70.36008
434.34        70.85304
434.78        69.75707
435.23        69.82719
435.67        70.43185
436.12        70.81504
436.57         71.1475
437.01        70.55626
437.46        70.29163
437.90        70.95241
438.35        71.06091
438.79        71.25082
439.24        71.22099
439.68        71.12083
440.13        70.87351
440.57        70.60806
441.02        70.63269
441.46        70.90582
441.91        71.22735
442.35        71.39747
442.80        71.56319
443.24         71.6872
443.69        71.70351
444.13        71.55863
444.58        71.74084
445.02        71.17805
445.47        71.29191
445.91         71.6425
446.36         71.7422
446.80        71.54648
447.24          71.283
447.69        71.07194
448.13        71.17799
448.58        71.36485
449.02        71.41508
449.47        71.28076
449.91        71.28455
450.36        71.44252
450.80         71.4726
451.25        71.39399
451.69        71.41661
452.13        71.49024
452.58        71.27131
453.02        70.82792
453.47        70.58472
453.91        70.55869
454.36        70.54544
454.80        70.50787
455.24        70.45637
455.69        70.36479
456.13        70.31424
456.58        70.32782
457.02        70.17161
457.46        69.45776
457.91        70.02959
458.35        69.71494
458.79        69.83597
459.24        69.79398
459.68        69.83376
460.13        69.94568
460.57        69.82828
461.01        69.42158
461.46         69.4556
461.90        68.92043
462.34        68.69242
462.79        68.62057
463.23        68.75332
463.68        68.99866
464.12        68.74941
464.56        68.16534
465.01        68.34492
465.45        69.01157
465.89        69.00758
466.34        68.44851
466.78         68.1643
467.22        68.19373
467.67         68.4502
468.11        68.12971
468.55        67.98452
468.99        67.81195
469.44        67.68646
469.88        67.61132
470.32        67.51639
470.77        67.40852
471.21        67.32462
471.65        67.26483
472.10        67.22166
472.54        67.16975
472.98        67.10007
473.42        67.02743
473.87        66.93441
474.31        66.79898
474.75        66.81529
475.20        67.01196
475.64        66.75352
476.08        67.07749
476.52        67.01558
476.97        66.85134
477.41        66.73381
477.85        66.68984
478.29         66.2598
478.74        66.09387
479.18        66.03267
479.62        66.33984
480.06        66.45003
480.50        66.36733
480.95        66.42506
481.39        66.60009
481.83        66.41656
482.27        66.70834
482.72        66.64034
483.16        66.50771
483.60        66.83573
484.04        66.75013
484.48         66.4898
484.93        66.61001
485.37        66.05084
485.81        66.73335
486.25        66.36976
486.69        67.88668
487.14        68.02905
487.58        67.03419
488.02        66.33743
488.46        66.04416
488.90        66.19193
489.34        65.92881
489.79        65.36122
490.23        66.02668
490.67        66.19892
491.11        66.33224
491.55        66.23064
491.99        65.98618
492.43        65.82581
492.88        65.74879
493.32        65.90433
493.76        65.74036
494.20        65.71416
494.64        65.69366
495.08        65.39452
495.52        65.34655
495.96        65.35627
496.41          65.511
496.85        65.63267
497.29        65.62232
497.73        65.63117
498.17        65.34942
498.61        65.36723
499.05         65.5462
499.49         65.4304
499.93         65.1275
500.37        65.21132
500.82        65.58686
501.26        65.79999
501.70        65.76535
502.14        65.24249
502.58        64.90157
503.02         64.6881
503.46        64.75155
503.90         64.9464
504.34        65.15514
504.78        65.28586
505.22        65.29728
505.66        65.18835
506.10        65.01522
506.54        64.93487
506.98        64.98168
507.42        64.74165
507.86        65.10254
508.30        64.76553
508.74        64.96412
509.18        64.88663
509.62        64.82946
510.06        64.78944
510.50        64.74815
510.94        64.62512
511.38         64.4421
511.82         64.3343
512.26         64.3125
512.70        64.31676
513.14        64.32539
513.58        64.32249
514.02         64.2972
514.46        64.25587
514.90        64.19833
515.34        64.15694
515.78         64.1417
516.22         64.1265
516.66        63.95514
517.10          64.189
517.54        64.00966
517.98        64.05093
518.42        64.07057
518.86        64.08848
519.30        64.10052
519.74        64.06617
520.18        64.01668
520.62         64.0817
521.06        64.21855
521.50        64.19159
521.93        64.01458
522.37        63.91416
522.81        63.90778
523.25        63.86783
523.69        63.80368
524.13        63.78904
524.57        63.82588
525.01        63.89075
525.45        63.96751
525.89        64.03017
526.32        64.06653
526.76        64.08746
527.20        64.09048
527.64         64.0841
528.08        64.07283
528.52         64.0337
528.96        63.97802
529.40        63.97437
529.83        63.99601
530.27        63.94247
530.71        63.82578
531.15         63.7767
531.59         63.8014
532.03        63.82372
532.46        63.82828
532.90        63.83953
533.34        63.84814
533.78         63.8527
534.22        63.83903
534.66        63.78627
535.09        63.68661
535.53        63.56742
535.97        63.45559
536.41        63.41085
536.85        63.44249
537.28        63.53313
537.72        63.63396
538.16        63.66517
538.60        63.60923
539.04        63.49631
539.47        63.35767
539.91        63.29367
540.35        63.30625
540.79         63.3705
541.22        63.45578
541.66         63.5288
542.10        63.56823
542.54        63.58177
542.97        63.57008
543.41        63.56552
543.85        63.57191
544.29        63.59599
544.72        63.60727
545.16        63.61777
545.60        63.61442
546.04         63.5178
546.47        63.40176
546.91        63.53317
547.35        63.82726
547.79        63.94857
548.22        63.83284
548.66        63.57323
549.10         63.2753
549.53        63.17871
549.97         63.2819
550.41         63.2834
550.84        63.17122
551.28         63.1664
551.72         63.2748
552.15        63.36092
552.59        63.40496
553.03        63.56588
553.46        63.50164
553.90        63.50716
554.34        63.47718
554.77        63.39131
555.21        63.29506
555.65        63.25873
556.08        63.28587
556.52         63.3882
556.96        63.51226
557.39        63.54136
557.83        63.49679
558.27        63.48326
558.70        63.50106
559.14        63.48491
559.57        63.43063
560.01        63.41454
560.45         63.4157
560.88        63.41564
561.32        63.45098
561.75        63.37438
562.19        63.27134
562.63        63.41971
563.06        63.71195
563.50        63.66753
563.93        63.31852
564.37        63.10242
564.80        63.06982
565.24        63.20889
565.68        63.44068
566.11        63.53924
566.55         63.5006
566.98        63.47475
567.42        63.47548
567.85        63.42657
568.29        63.42115
568.72        63.40163
569.16        63.36818
569.60         63.9076
570.03        63.61286
570.47        63.82625
570.90        64.08638
571.34        63.86295
571.77        64.04657
572.21        63.94348
572.64        64.12494
573.08        64.06895
573.51        64.22749
573.95        64.37851
574.38        64.23603
574.82        64.67679
575.25        64.77856
575.69        64.55084
576.12        64.02026
576.56        64.24657
576.99        64.61118
577.42        64.32431
577.86        64.54874
578.29        64.97977
578.73        65.28312
579.16        64.70191
579.60        64.53008
580.03        64.48912
580.47        64.20518
580.90        64.60072
581.33        64.52736
581.77        64.70256
582.20         65.1898
582.64        64.95977
583.07         64.8801
583.51        64.42207
583.94        64.56693
584.37        64.19388
584.81        63.81741
585.24        63.78761
585.68        64.42699
586.11         64.6081
586.54        64.29451
586.98        64.23773
587.41        63.71373
587.85        64.43193
588.28        64.41496
588.71        64.47718
589.15        64.55123
589.58         64.2243
590.01        64.00373
590.45        63.79562
590.88        64.00077
591.31        63.69675
591.75        63.69162
592.18        63.55782
592.61        63.53099
593.05        64.01393
593.48        64.16628
593.91        64.42976
594.35         64.1933
594.78        64.06789
595.21        63.70218
595.65         63.8543
596.08        64.26381
596.51        64.43129
596.94        63.79193
597.38        63.60563
597.81        63.81217
598.24        63.87585
598.68        63.57513
599.11        63.86372
599.54        64.05383
599.97        63.76162
600.41        64.18414
600.84        64.09513
601.27        64.25777
601.70        64.00759
602.14        63.81475
602.57        63.60206
603.00        63.45148
603.43        64.14843
603.87        64.18472
604.30        64.15392
604.73        64.23032
605.16        63.38691
605.60        63.75744
606.03        63.85259
606.46        64.22461
606.89        63.83712
607.32        63.51509
607.76        64.09718
608.19        63.89412
608.62        63.78654
609.05        64.25341
609.48         63.8479
609.92        64.04724
610.35        63.79215
610.78        63.89606
611.21        63.62021
611.64        63.76583
612.07         63.7968
612.50        63.87178
612.94        63.89413
613.37        63.86766
613.80          63.829
614.23        63.80045
614.66        63.62989
615.09        63.71437
615.52        63.64251
615.96        63.51224
616.39        63.49414
616.82        63.62882
617.25        63.22055
617.68        63.40995
618.11        63.30388
618.54         63.4004
618.97        63.27216
619.40        62.99725
619.84        63.03186
620.27        62.97987
620.70        63.06121
621.13         63.1168
621.56        63.08863
621.99        63.05222
622.42        63.15705
622.85         63.3437
623.28        63.42229
623.71        63.49997
624.14         63.2137
624.57        63.59098
625.00        63.72911
625.43         63.3102
625.86        63.20873
626.29        63.28161
626.72        63.03872
627.15        62.97356
627.58        62.92645
628.01        63.10098
628.44         62.7957
628.87        62.74891
629.30        63.12976
629.73        63.04854
630.16        62.89618
630.59        62.89791
631.02         63.1992
631.45        63.03122
631.88        63.10138
632.31        63.16417
632.74        62.91569
633.17        62.99559
633.60        62.86992
634.03        62.74604
634.46        62.66736
634.89        62.56407
635.32        62.55907
635.75        62.61872
636.18        62.73532
636.61        62.86557
637.04        62.94179
637.47        62.94685
637.89        62.90533
638.32        62.82885
638.75        62.76605
639.18        62.73307
639.61        62.71537
640.04        62.71473
640.47        62.73516
640.90        62.77114
641.33         62.8216
641.76        62.86658
642.18        62.87708
642.61        62.83349
643.04        62.75607
643.47         62.6628
643.90         62.5892
644.33        62.54797
644.76         62.5169
645.18        62.50603
645.61        62.54868
646.04        62.63081
646.47        62.69788
646.90        62.72974
647.33        62.73962
647.75        62.71074
648.18        62.64471
648.61        62.60019
649.04        62.57798
649.47        62.56875
649.89        62.97647
650.32        63.03572
650.75        63.06539
651.18        62.86172
651.61        62.67506
652.03        62.58091
652.46        62.43477
652.89        62.32438
653.32        62.58056
653.74        63.07732
654.17        63.11124
654.60        62.61866
655.03         62.4673
655.46        62.61293
655.88        63.06053
656.31        64.16379
656.74        68.33299
657.16        67.45743
657.59        65.75539
658.02        63.61434
658.45        63.02713
658.87        63.09634
659.30        62.95553
659.73        62.79594
660.15         62.6278
660.58        62.93172
661.01        63.12124
661.44        63.19733
661.86        62.98472
662.29        62.57669
662.72        62.44545
663.14        62.62299
663.57        62.75247
664.00        62.78215
664.42        62.84328
664.85        62.92397
665.27        62.82614
665.70        62.77514
666.13        62.70009
666.55        62.67979
666.98        62.66719
667.41        62.65451
667.83        62.64177
668.26        62.63691
668.69        62.59836
669.11        62.50972
669.54        62.56024
669.96        62.80101
670.39        62.34196
670.82        62.70684
671.24        62.71679
671.67        62.79776
672.09        62.91594
672.52        63.06145
672.94        63.06284
673.37        62.94979
673.80        62.95248
674.22        63.06473
674.65        63.05261
675.07         62.9304
675.50        62.81778
675.92        62.75197
676.35        62.71502
676.77        62.71367
677.20        62.76781
677.62        62.86982
678.05        62.92517
678.47        62.90815
678.90        63.09637
679.32        63.01896
679.75        63.06507
680.17        63.09396
680.60        63.11083
681.02        63.11541
681.45        63.10756
681.87         63.0969
682.30        63.08385
682.72        63.08284
683.15        63.05667
683.57        62.99752
684.00         63.0649
684.42        62.93556
684.85        62.94037
685.27        62.97203
685.70        63.03962
686.12        63.09615
686.54        63.08868
686.97        63.02079
687.39        62.97124
687.82        62.95692
688.24        62.99063
688.66          63.019
689.09        63.14981
689.51         62.9495
689.94        63.01091
690.36        63.18984
690.78        63.34756
691.21        63.43936
691.63        63.42102
692.06        63.32939
692.48        63.29597
692.90        63.33435
693.33        63.32698
693.75        63.28368
694.17        63.28368
694.60        63.30614
695.02        63.37093
695.44        63.23716
695.87        63.29641
696.29        63.45781
696.71        63.46661
697.14        63.35652
697.56        63.47732
697.98        63.76169
698.41        63.86818
698.83        63.77573
699.25         63.6549
699.68         63.5481
700.10        63.47186
700.52         63.4446
700.94        63.46454
701.37        63.49035
701.79        63.49839
702.21        63.45861
702.64        63.38836
703.06        63.31507
703.48         63.2878
703.90        63.32089
704.33        63.39815
704.75        63.48438
705.17         63.5031
705.59        63.43965
706.01        63.31344
706.44        63.19748
706.86        63.21426
707.28        63.36834
707.70         63.6612
708.12         63.9918
708.55        64.08785
708.97        63.96112
709.39        63.92165
709.81        63.98407
710.23        63.94482
710.66        63.81685
711.08        63.74894
711.50        63.74203
711.92        63.74304
712.34        63.75163
712.76        63.78635
713.19        63.82912
713.61         63.8913
714.03         63.9431
714.45        63.99231
714.87        64.04021
715.29        64.04985
715.71        64.01283
716.13        64.10231
716.56        64.00402
716.98        64.00422
717.40        64.00327
717.82        64.00905
718.24        64.02374
718.66        64.05441
719.08        64.10336
719.50        64.16253
719.92        64.22894
720.34        64.29639
720.76         64.3595
721.19        64.40989
721.61         64.4528
722.03        64.46741
722.45        64.45498
722.87        64.42515
723.29        64.39778
723.71        64.40556
724.13        64.45672
724.55         64.5369
724.97        64.63964
725.39        64.75346
725.81        64.86578
726.23        64.97574
726.65        65.05683
727.07        65.07227
727.49        65.02374
727.91        64.91819
728.33        64.79834
728.75         64.7696
729.17        64.83829
729.59        64.90605
730.01        64.97871
730.43         65.1238
730.85        65.32372
731.27        65.52314
731.69        65.67547
732.10        65.66003
732.52        65.67078
732.94        65.35173
733.36        64.88074
733.78        64.61156
734.20        64.61031
734.62        64.71159
735.04        64.85243
735.46        64.98658
735.88        65.08345
736.30        65.16851
736.72        65.22354
737.13        65.25867
737.55        65.24484
737.97        65.10937
738.39        64.93724
738.81        65.06991
739.23        65.44354
739.65        65.55589
740.06        65.36134
740.48        65.31037
740.90        65.37173
741.32        65.30067
741.74        65.12513
742.16        65.03404
742.57        65.06358
742.99        65.14721
743.41        65.24265
743.83        65.26025
744.25        65.18105
744.67        65.03277
745.08        64.90815
745.50        64.91169
745.92        65.08353
746.34        65.38868
746.75        65.71321
747.17        65.87214
747.59        65.82401
748.01        65.58511
748.42        65.30119
748.84        65.23408
749.26        65.39689
749.68        65.66977
750.09        65.91593
750.51        65.81969
750.93        65.45718
751.35        65.37737
751.76        65.58512
752.18        65.58401
752.60        65.36221
753.01        65.44601
753.43        65.41669
753.85        65.42316
754.27        65.34404
754.68        65.23222
755.10        65.14925
755.52        65.17552
755.93        65.32398
756.35        65.55863
756.77         65.8013
757.18        65.91618
757.60        65.86776
758.02        65.72897
758.43        65.59692
758.85        65.39924
759.26        65.46875
759.68        65.66715
760.10        65.32232
760.51        65.07615
760.93        65.48564
761.34        65.75892
761.76        66.03007
762.18        66.04893
762.59        65.80248
763.01        65.79721
763.42        65.24498
763.84        65.30556
764.26        65.39841
764.67        65.78934
765.09         66.2254
765.50        66.42415
765.92        66.37852
766.33        66.19318
766.75        65.95452
767.16        65.85927
767.58        65.89826
768.00        66.14957
768.41        66.50578
768.83        66.41769
769.24        65.92535
769.66        66.01155
770.07        65.85185
770.49        65.93115
770.90        65.96476
771.32         65.9199
771.73        65.83503
772.15        65.88404
772.56        66.09075
772.97        66.31753
773.39        66.48323
773.80        66.60151
774.22        66.61916
774.63        66.55367
775.05        66.42874
775.46        66.34051
775.88         66.2936
776.29        66.29375
776.70        66.29927
777.12        66.25217
777.53        66.16163
777.95        66.04714
778.36        65.94589
778.77        65.90503
779.19         65.9397
779.60        66.03855
780.02        66.17659
780.43        66.35602
780.84        66.56567
781.26        66.71746
781.67        66.83765
782.09        67.06333
782.50        67.30233
782.91        67.23454
783.33        66.90641
783.74        66.78304
784.15        66.87776
784.57        66.97652
784.98        67.04155
785.39        67.07888
785.81        67.07275
786.22         67.0226
786.63        66.96954
787.04        66.97881
787.46         67.0728
787.87        67.20454
788.28        67.33503
788.70        67.39449
789.11        67.34843
789.52        67.23389
789.93          67.103
790.35        67.02746
790.76        67.04615
791.17        67.14539
791.58         67.2818
792.00        67.37527
792.41        67.43808
792.82        67.44836
793.23        67.47516
793.65        67.66535
794.06        68.00439
794.47        68.33077
794.88        68.57637
795.29        68.57507
795.71         68.6604
796.12        68.51278
796.53        68.26962
796.94        68.07926
797.35        67.96683
797.76        67.83094
798.18        67.68323
798.59        67.60986
799.00        67.60884
799.41        67.64563
799.82         67.6971
800.23        67.73853
800.64        67.75877
801.06        67.74212
801.47        67.73335
801.88        67.73811
802.29        67.76055
802.70        67.78146
803.11         67.8203
803.52        67.91296
803.93        68.07038
804.34        68.28838
804.75        68.49416
805.17        68.62712
805.58        68.70824
805.99         68.5321
806.40        68.22681
806.81        68.52252
807.22        69.21062
807.63        69.08446
808.04        68.27509
808.45        68.04822
808.86        68.49263
809.27        68.88029
809.68        69.08853
810.09        69.24531
810.50        69.30492
810.91        69.23434
811.32        69.07455
811.73        68.89952
812.14        68.74166
812.55        68.59019
812.96        68.47555
813.37        68.43954
813.78        68.48743
814.19        68.61916
814.60        68.77048
815.01        68.83112
815.42        68.77929
815.83        68.64067
816.24        68.48109
816.65         68.4299
817.05        68.53045
817.46         68.7095
817.87        68.93195
818.28        69.10471
818.69        69.20502
819.10        69.26469
819.51        69.30379
819.92        69.36665
820.33        69.46629
820.74        69.53774
821.14        69.58625
821.55        69.73819
821.96        69.93954
822.37        69.98051
822.78        69.85683
823.19        69.75333
823.60        69.68424
824.00        69.55092
824.41        69.33599
824.82        69.14895
825.23        69.00739
825.64        68.89346
826.04         68.8254
826.45        68.78351
826.86        68.77654
827.27        68.82288
827.68        68.89283
828.08        68.95376
828.49        68.92766
828.90        68.86386
829.31        68.85174
829.72        68.94807
830.12        69.17211
830.53        69.82166
830.94        70.10313
831.35        70.25466
831.75        70.03837
832.16        69.51491
832.57        68.92474
832.97        68.66816
833.38        68.83883
833.79        69.30961
834.20        69.85916
834.60        70.15076
835.01         70.1017
835.42        69.82175
835.82        69.46397
836.23        69.23644
836.64        69.23454
837.04        69.39739
837.45        69.62066
837.86        69.80311
838.26        69.91315
838.67        69.97013
839.08        70.01799
839.48        70.10691
839.89        70.23726
840.29         70.3828
840.70        70.50256
841.11        70.53899
841.51         70.4956
841.92        70.36308
842.33        70.19794
842.73        70.08677
843.14        70.01426
843.54        69.99759
843.95        70.00955
844.35        70.02705
844.76         70.0333
845.17        70.04489
845.57        70.09013
845.98        70.17462
846.38        70.32822
846.79        70.51669
847.19        70.73838
847.60        70.91696
848.00        71.06632
848.41        71.15419
848.81        71.25474
849.22        71.41836
849.62        71.68609
850.03        71.99441
850.43         72.2751
850.84        72.31969
851.24          72.144
851.65        71.73235
852.05        71.28569
852.46        71.05982
852.86        71.13171
853.27        71.46106
853.67        71.78294
854.07        71.86722
854.48        71.63737
854.88        71.19631
855.29        70.68167
855.69        70.52227
856.10        70.73363
856.50        71.27856
856.90        71.87965
857.31        72.12227
857.71        71.95208
858.12        71.44433
858.52        70.80481
858.92        70.30899
859.33        70.05538
859.73        70.01559
860.13        70.12786
860.54        70.29319
860.94        70.51729
861.34        70.77225
861.75        71.00848
862.15        71.21576
862.55        71.32936
862.96        71.32291
863.36        71.16727
863.76        70.77742
864.17         70.1663
864.57        69.42463
864.97        68.67414
865.38        68.09583
865.78        67.80531
866.18         67.7587
866.58        67.97404
866.99         68.4208
867.39         69.0542
867.79        69.80609
868.19        70.49389
868.60        70.79799
869.00         70.7421
869.40        70.54964
869.80        70.26555
870.21        69.84135
870.61        69.41041
871.01         69.0471
871.41        68.79242
871.81        68.60441
872.22        68.49191
872.62        68.50525
873.02        68.59491
873.42        68.80812
873.82        68.95055
874.22        68.56521
874.63        67.99265
875.03        67.90759
875.43        68.39102
875.83        69.97624
876.23        70.07069
876.63        69.67297
877.03         68.4659
877.44        66.00218
877.84        161.9523
878.24        65.79361
878.64        66.68398
879.04        68.56648
879.44         69.6312
879.84        67.17682
880.24        71.50018
880.64        71.50146
881.04        69.17628
881.44        67.40154
881.84        66.76085
882.24        67.30365
882.65        68.37081
883.05        68.58206
883.45        67.66591
883.85        66.46429
884.25        65.51084
884.65        65.27367
885.05         65.8831
885.45        67.05676
885.85        68.35942
886.25        69.20612
886.65        69.43477
887.05        69.22606
887.45        68.70847
887.85        68.10295
888.25        67.53556
888.65        66.95069
889.04        66.46384
889.44        66.27679
889.84         66.4158
890.24        66.84251
890.64        67.38912
891.04        67.78165
891.44        67.95363
891.84        67.97068
892.24        67.89986
892.64        67.87418
893.04        67.93311
893.44        68.01173
893.83        68.12125
894.23        68.25992
894.63         68.4334
895.03        68.67473
895.43        68.90115
895.83        68.96506
896.23        68.84885
896.63        68.57592
897.02        68.31483
897.42        68.38665
897.82        68.79338
898.22        69.43515
898.62        70.03184
899.01        70.13533
899.41        69.63564
899.81        68.70824
900.21        67.65185
900.61        66.95994
901.00        66.76947
901.40        66.99592
901.80        67.47272
902.20        67.81065
902.59        67.88885
902.99        68.04724
903.39        68.42172
903.79        67.74361
904.18        68.38362
904.58        68.39518
904.98        68.39496
905.38        68.21756
905.77        67.85498
906.17        67.40049
906.57        66.94723
906.96        66.73278
907.36        66.81464
907.76        67.14434
908.15        67.65372
908.55        68.07795
908.95        68.37228
909.34        68.51939
909.74          68.611
910.14        68.76284
910.53        68.99172
910.93        69.25552
911.33        69.36883
911.72        69.04494
912.12        68.28266
912.52        67.21347
912.91        66.16019
913.31        65.70418
913.70        65.93661
914.10         66.6794
914.49        67.62759
914.89        68.16234
915.29        68.13027
915.68        67.70596
916.08        67.11978
916.47        66.69434
916.87        66.57706
917.26        66.64996
917.66          66.876
918.05        67.22888
918.45        67.64007
918.84        68.12322
919.24         68.5977
919.64        68.97639
920.03        69.22527
920.42        69.33453
920.82        69.26987
921.21        69.01347
921.61        68.62041
922.00        68.18414
922.40        67.89146
922.79        67.90536
923.19        67.92909
923.58        68.69266
923.98        70.38567
924.37        70.66782
924.77        68.30684
925.16        75.25793
925.55        69.92466
925.95         70.3159
926.34        70.30902
926.74         69.7308
927.13         68.5471
927.52        67.74593
927.92        67.76986
928.31        68.09455
928.70        68.59727
929.10        69.01122
929.49        69.28469
929.89        69.50297
930.28        69.65172
930.67        69.59962
931.07        69.36089
931.46        68.86604
931.85        68.33846
932.24        68.55568
932.64        69.59523
933.03        70.71609
933.42        71.23621
933.82        73.08295
934.21         71.5249
934.60        70.28658
934.99        69.03029
935.39        68.60789
935.78        69.05987
936.17        70.75546
936.56        76.42297
936.96        70.14543
937.35        73.67793
937.74        70.92825
938.13        69.05408
938.53        67.58828
938.92        67.14363
939.31        68.18195
939.70        69.59963
940.09        70.31206
940.49        70.08537
940.88        69.31622
941.27        68.43013
941.66        68.20916
942.05        68.88669
942.44        70.09698
942.84        71.36347
943.23        72.13206
943.62        72.24245
944.01        71.86326
944.40         71.2689
944.79        70.91688
945.18        70.95111
945.57        71.24197
945.97        71.50452
946.36        71.40742
946.75        70.83562
947.14        69.92399
947.53        69.00296
947.92        68.61854
948.31        68.90388
948.70        69.67386
949.09        70.53532
949.48        70.89114
949.87        70.60373
950.26        69.85719
950.65        68.97443
951.04        68.48196
951.43          68.542
951.82        69.00468
952.21        69.62968
952.60        70.01402
952.99        70.01585
953.38        69.74046
953.77        69.40168
954.16        69.29553
954.55        69.49268
954.94        69.93802
955.33        70.36019
955.72        70.29279
956.11        69.64073
956.50        68.54234
956.89        67.50973
957.28        67.34454
957.66        68.20856
958.05        69.75704
958.44         71.3467
958.83        72.00673
959.22        71.52026
959.61        70.13936
960.00        68.41268
960.39        67.42554
960.78         67.5499
961.16        68.46572
961.55        69.56413
961.94        70.12275
962.33        69.97578
962.72        69.33681
963.11        68.52615
963.49        68.17588
963.88        68.48257
964.27        69.20565
964.66        69.95439
965.04        70.22621
965.43        69.87813
965.82        69.13382
966.21        68.29376
966.60        67.87612
966.98        68.03957
967.37        68.58871
967.76        69.30187
968.15        69.81891
968.53        70.02919
968.92        70.02593
969.31         69.8471
969.69        69.54123
970.08        69.12914
970.47        68.58144
970.86         68.0672
971.24         67.8976
971.63        68.11778
972.02        68.66892
972.40        69.29359
972.79         69.5031
973.17        69.26513
973.56         68.7111
973.95        68.14252
974.33        68.10088
974.72         68.7058
975.11         69.7294
975.49        70.95492
975.88        71.95785
976.26        72.65015
976.65        73.08595
977.04        73.24171
977.42        73.04205
977.81        72.47765
978.19        71.51776
978.58        70.64315
978.96        70.67643
979.35        71.73103
979.74        73.45766
980.12         75.1992
980.51        75.98137
980.89        75.77995
981.28        74.74438
981.66        73.25157
982.05        72.26984
982.43        72.20309
982.82        72.83859
983.20        73.72109
983.59        74.09978
983.97        73.82896
984.35        73.08416
984.74        72.21171
985.12        71.88515
985.51        72.23452
985.89        73.10048
986.28        73.97398
986.66        74.19524
987.04        73.69793
987.43        72.59505
987.81        71.21342
988.20        71.51687
988.58        73.83031
988.96        75.28362
989.35        74.92043
989.73        80.26724
990.12         77.3755
990.50        76.98912
990.88        75.68367
991.27        74.41628
991.65        73.37415
992.03        72.59364
992.42        72.25253
992.80        72.10876
993.18         72.1231
993.56        72.44627
993.95        72.96497
994.33        73.41511
994.71        73.71475
995.10        73.81624
995.48        73.85863
995.86        74.09805
996.24        74.57677
996.63        75.16686
997.01        75.70457
997.39        75.73611
997.77        75.19612
998.15        74.22556
998.54        73.26768
998.92        72.91883
999.30        73.37628
999.68        74.53397
1000.06        75.91676
1000.45        76.49628
1000.83        76.04567
1001.21        74.87183
1001.59        73.60435
1001.97        73.17519
1002.35        73.72156
1002.73        74.80603
1003.12        76.04962
1003.50        77.05925
1003.88        77.71839
1004.26        78.20992
1004.64        78.45831
1005.02        78.27619
1005.40        77.64464
1005.78        76.56793
1006.16         75.4202
1006.54        74.84283
1006.92        75.01035
1007.30        75.82817
1007.69        76.82961
1008.07        77.39526
1008.45        77.35096
1008.83        76.82885
1009.21        76.26316
1009.59        76.52966
1009.97        77.72738
1010.35        79.31596
1010.73        80.67974
1011.11        81.37701
1011.49         81.4634
1011.86        80.86358
1012.24        79.48457
1012.62        80.18623
1013.00        80.58454
1013.38        80.37787
1013.76        78.26274
1014.14        81.94906
1014.52        87.49068
1014.90        80.64681
1015.28        81.95879
1015.66        83.64474
1016.04        81.28864
1016.41        82.40184
1016.79        82.55011
1017.17         82.8243
1017.55        82.73721
1017.93         82.5059
1018.31        82.49454
1018.69        82.89827
1019.06        83.77256
1019.44        84.92061
1019.82        85.87409
1020.20        85.97305
1020.58          85.095
1020.95        83.23881
1021.33        80.83482
1021.71         79.3972
1022.09        79.78807
1022.46        81.28774
1022.84        83.05349
1023.22        84.51647
1023.60        85.69475
1023.97        86.95392
1024.35        88.02331
1024.73         88.2529
