SpectraSmart Spectrum 2.9.0.0
--------- Device Information -----------
Spectrum Name :  反射率_0
Saving Time :  2024/04/21 00:44:41
Spectro-Module Model Name : SE2030-DUVN
Spectro-Module Serial Number : OS361AC55029948
Wavelength Start : 200
Wavelength End : 1025
Wavelength Unit : Wavelength(nm)
Spectrum Unit : Reflectance(%)
-----------Spectrum Setting ------------
Integration Time : 20ms
Average : 10
Boxcar : 0
Background removal :  enabled
linearity correction :  enabled
SC :  disabled
Intensity correction :  disabled
DWT denoise :  enabled
savitzky-golay :  disabled
FFT :  disabled
Running average :  disabled
Kalman :  disabled
High pass :  disabled
---------------BEGIN--------------------
Wavelength(nm)             Reflectance(%)
200.29               0
200.75        -62.2708
201.21       -4.691639
201.67        25.21382
202.13        34.79866
202.58        32.27414
203.04        21.45239
203.50        6.249467
203.96       -2.182688
204.42        1.314779
204.88         12.4615
205.34        23.80277
205.80        24.77698
206.26        12.04088
206.72       -12.31748
207.18       -44.35396
207.64       -71.08801
208.10       -80.91197
208.55       -77.18477
209.01       -54.59957
209.47       -18.07037
209.93        10.47005
210.39        28.26707
210.85        37.54296
211.31        39.89089
211.77        36.87962
212.23        27.93568
212.69         7.65318
213.14       -33.81616
213.60       -115.9419
214.06       -359.2326
214.52        -907.366
214.98       -399.6884
215.44       -103.8601
215.90       -7.272965
216.36        23.87897
216.81         26.4233
217.27        5.348688
217.73       -103.4565
218.19        1212.438
218.65        516.3172
219.11       -1156.803
219.57       -57.22145
220.02        13.44356
220.48        27.76741
220.94         25.0419
221.40        6.912481
221.86       -39.67123
222.32       -73.18208
222.77       -34.15901
223.23         1.00167
223.69        19.06694
224.15        25.57063
224.61        26.17069
225.06        24.46719
225.52        21.06526
225.98        16.15007
226.44         10.3513
226.90        2.608989
227.36        -2.94557
227.81        1.172408
228.27        11.45483
228.73        22.37635
229.19        29.53117
229.65         30.6339
230.10        26.63924
230.56        19.17428
231.02        9.573503
231.48        3.111076
231.93        3.658609
232.39        9.245372
232.85        15.58993
233.31          18.979
233.77        19.61331
234.22         19.2007
234.68         18.1907
235.14        17.33157
235.60        17.32757
236.05         17.0587
236.51        16.75451
236.97        23.01697
237.43        35.72882
237.88         44.4724
238.34        45.69464
238.80        66.26617
239.26        57.74001
239.71        55.13402
240.17        45.85696
240.63        35.90755
241.08        29.81587
241.54        30.91434
242.00        39.65578
242.46        45.49662
242.91         45.6411
243.37        41.54727
243.83        34.73336
244.28         31.1515
244.74        34.29679
245.20        40.07612
245.66        44.57412
246.11        44.51846
246.57        39.51268
247.03        30.89231
247.48        19.80289
247.94        8.207946
248.40       -5.627796
248.85       -34.05317
249.31       -113.5371
249.77       -171.5727
250.22       -49.43311
250.68       0.1365235
251.14        16.27068
251.59        21.71098
252.05        23.53798
252.51         24.5331
252.96        24.71189
253.42        25.16253
253.88        27.09521
254.33        30.38723
254.79        37.63615
255.25        48.64474
255.70        59.30358
256.16        67.66711
256.62        72.99749
257.07        75.11947
257.53        75.54984
257.99        74.94886
258.44        73.49422
258.90        72.11951
259.35        70.36755
259.81        68.62177
260.27        66.85471
260.72        65.17723
261.18        63.96759
261.63         62.8576
262.09        61.78722
262.55        60.16244
263.00        57.96717
263.46        55.65033
263.91        53.47263
264.37        52.25596
264.83         51.9033
265.28        52.01129
265.74        52.24141
266.19        51.93028
266.65        51.05198
267.11        49.77398
267.56        48.26479
268.02        46.87803
268.47        45.67249
268.93          44.583
269.38        43.55134
269.84        42.56673
270.30        41.60281
270.75        40.69318
271.21        39.85313
271.66        39.01424
272.12        38.19321
272.57        37.36611
273.03        36.57301
273.48        35.82737
273.94        35.15576
274.39        34.51801
274.85        33.91242
275.31        33.26293
275.76        32.55794
276.22        31.86313
276.67         31.2176
277.13        30.76176
277.58        30.45605
278.04        30.27112
278.49        30.07552
278.95        29.77733
279.40         29.3072
279.86        28.74322
280.31        28.09727
280.77        27.47811
281.22        26.88978
281.68        26.38388
282.13         25.9149
282.59        25.49692
283.04        25.10806
283.50        24.77047
283.95         24.5483
284.41        24.56418
284.86        24.79922
285.32        25.21333
285.77        25.61749
286.22        25.76258
286.68        25.63438
287.13        25.27595
287.59        24.93116
288.04        24.86383
288.50        25.10258
288.95        25.66247
289.41        26.38196
289.86        26.54635
290.32        26.03862
290.77        26.81674
291.22        25.89407
291.68        26.02688
292.13        26.35335
292.59         26.8987
293.04        27.60229
293.50        28.44343
293.95        29.41283
294.40         30.4996
294.86        31.67907
295.31        32.89497
295.77        34.12646
296.22        35.35409
296.68        36.59908
297.13         37.8958
297.58        39.26477
298.04        40.69553
298.49        42.16769
298.95         43.6689
299.40        45.17411
299.85        46.70137
300.31         48.2358
300.76          49.728
301.21         51.1817
301.67        52.62196
302.12        54.07887
302.58        55.70781
303.03        57.48888
303.48        59.41722
303.94        61.38364
304.39        63.16494
304.84        64.72865
305.30        66.15864
305.75        67.53384
306.20         69.0822
306.66        70.84366
307.11        72.69046
307.57        74.53456
308.02        76.17293
308.47        77.58067
308.93        78.85268
309.38        80.00866
309.83        81.12995
310.29        82.31442
310.74        83.45552
311.19        84.55706
311.65        85.58488
312.10        86.51575
312.55        87.37588
313.00        88.18642
313.46        88.97726
313.91        89.74189
314.36        90.48126
314.82        91.18512
315.27        91.83243
315.72        92.42706
316.18        92.97415
316.63        93.49224
317.08        94.01495
317.53         94.5421
317.99        95.05643
318.44        95.52289
318.89        95.87221
319.35        96.09366
319.80        96.22285
320.25        96.31013
320.70        96.44106
321.16        96.63556
321.61        96.88828
322.06          97.173
322.51        97.45297
322.97        97.69799
323.42        97.94939
323.87        98.19048
324.32        98.41042
324.78        98.58981
325.23         98.7627
325.68        98.92049
326.13        99.08427
326.59        99.23621
327.04        99.41971
327.49        99.61543
327.94        99.82201
328.39        100.0401
328.85        100.2501
329.30        100.4965
329.75        100.7251
330.20        100.9327
330.66          101.09
331.11        101.2997
331.56        101.6045
332.01        102.0171
332.46        102.5164
332.92        102.9888
333.37        103.3785
333.82        103.6124
334.27        103.7261
334.72        103.8062
335.17        104.0011
335.63        104.3254
336.08        104.7946
336.53        105.3156
336.98         105.776
337.43        106.1369
337.88        106.4292
338.34        106.6701
338.79         106.943
339.24        107.2466
339.69        107.5601
340.14        107.8634
340.59        108.1336
341.05         108.371
341.50        108.5994
341.95        108.8427
342.40        109.1398
342.85        109.4967
343.30        109.8936
343.75        110.2964
344.20        110.6584
344.66        110.9653
345.11        111.2008
345.56        111.3781
346.01         111.518
346.46        111.6335
346.91        111.7213
347.36        111.7531
347.81         111.723
348.26        111.6445
348.72        111.4056
349.17        111.3106
349.62        111.3039
350.07        111.4721
350.52        111.7579
350.97         112.033
351.42        112.0873
351.87        111.8601
352.32        111.4075
352.77        110.8413
353.22        110.3322
353.67        109.9323
354.13        109.6245
354.58        109.3046
355.03        108.8588
355.48        108.2738
355.93        107.5986
356.38         106.963
356.83        106.5545
357.28        106.3839
357.73        106.3642
358.18         106.311
358.63        105.9381
359.08        105.1839
359.53         104.153
359.98        103.0041
360.43        101.9759
360.88        101.1437
361.33        100.4462
361.78        99.82895
362.23        99.20575
362.68         98.5437
363.13         97.8709
363.58        97.20248
364.03        96.54951
364.48        95.91042
364.93        95.27483
365.38        94.60076
365.83        93.83586
366.28        92.97778
366.73        92.03947
367.18        91.11604
367.63        90.35806
368.08        89.79089
368.53        89.37598
368.98        88.96805
369.43        88.32689
369.88        87.40151
370.33        86.26076
370.78        85.07293
371.23        84.14693
371.68        83.57796
372.13        83.27232
372.58        83.08419
373.03        82.77123
373.48        82.25198
373.93        81.59821
374.38        80.86543
374.83         80.1526
375.28        79.51054
375.72        78.89594
376.17         78.3339
376.62        77.80445
377.07        77.28807
377.52        76.78013
377.97        76.28468
378.42          75.814
378.87        75.37923
379.32         74.9888
379.77        74.59863
380.22        74.13324
380.67        73.57544
381.11         72.9413
381.56        72.31029
382.01        71.83936
382.46        71.56883
382.91        71.45531
383.36        71.37235
383.81        71.12265
384.26        70.66257
384.71        70.05006
385.15        69.39484
385.60        68.92939
386.05        68.67577
386.50        68.56354
386.95        68.47386
387.40        68.22765
387.85        67.79803
388.29        67.22709
388.74        66.69701
389.19         66.2757
389.64        65.97984
390.09        65.76206
390.54        65.58604
390.98        65.38557
391.43        65.17099
391.88        64.95242
392.33        64.73473
392.78        64.48391
393.23        64.19537
393.67        63.94528
394.12        63.78903
394.57        63.41706
395.02        62.93652
395.47        62.90358
395.91        63.21121
396.36        63.15354
396.81        62.69796
397.26        62.24291
397.71        61.87168
398.15        61.54918
398.60        61.37759
399.05        61.21643
399.50        61.07553
399.95         61.1918
400.39        61.46085
400.84        61.31594
401.29        60.80882
401.74        60.53853
402.18        60.53083
402.63        60.36457
403.08        60.03106
403.53        59.75397
403.97        59.55105
404.42        59.36676
404.87        59.18377
405.32        59.03749
405.76        58.92155
406.21        58.75474
406.66        58.57933
407.11        58.64135
407.55        58.86879
408.00        58.83153
408.45        58.53524
408.90        58.23501
409.34        58.02398
409.79        58.00959
410.24        58.13571
410.68        58.14987
411.13        58.03442
411.58        57.96494
412.03        57.94712
412.47        57.90669
412.92        57.82505
413.37        57.74047
413.81        57.66365
414.26        57.65334
414.71          57.696
415.15        57.78142
415.60        57.84909
416.05        57.84642
416.49        57.75915
416.94        57.60234
417.39        57.40028
417.83        57.18063
418.28        56.96301
418.73        56.74269
419.17         56.5467
419.62        56.42886
420.07        56.39654
420.51        56.43094
420.96        56.50885
421.41        56.54878
421.85        56.50653
422.30        56.43621
422.74        56.34886
423.19        56.33821
423.64        56.41063
424.08        56.60229
424.53        56.78333
424.98        56.84729
425.42        56.78461
425.87        56.50818
426.31        56.19291
426.76        56.34084
427.21        56.87839
427.65        57.15915
428.10        57.06601
428.54        56.99665
428.99        56.97451
429.44        56.76655
429.88        56.41055
430.33         56.1648
430.77        56.04231
431.22        56.03356
431.66        56.11981
432.11        56.41706
432.56        56.85133
433.00        56.93775
433.45        56.53298
433.89         56.3839
434.34        56.62788
434.78        55.81149
435.23        55.89717
435.67         56.1381
436.12        56.70937
436.57        56.85339
437.01        56.54473
437.46        56.37475
437.90        56.98443
438.35        56.64001
438.79        56.85042
439.24        56.69309
439.68        56.59571
440.13        56.39017
440.57        56.16823
441.02        56.33955
441.46        56.77805
441.91        56.86881
442.35         56.5948
442.80        56.77573
443.24        57.31967
443.69        57.35751
444.13        56.81321
444.58        57.16059
445.02        56.58788
445.47         56.7234
445.91        56.95305
446.36        57.04786
446.80        56.96201
447.24        56.88685
447.69         56.9002
448.13        56.91505
448.58        57.09975
449.02        57.05675
449.47        56.86054
449.91        56.73028
450.36        56.69831
450.80        56.56175
451.25        56.37815
451.69        56.37645
452.13        56.52026
452.58        56.50927
453.02        56.34113
453.47        56.26252
453.91         56.2686
454.36        56.23266
454.80        56.14348
455.24        56.03843
455.69        55.92422
456.13        55.79688
456.58        55.74733
457.02        55.60089
457.46        55.72669
457.91        55.87002
458.35        55.57011
458.79        55.48436
459.24         55.4421
459.68        55.36195
460.13        55.30145
460.57        55.13258
461.01        54.83616
461.46        55.21544
461.90        54.98078
462.34        54.77023
462.79        54.44204
463.23        54.50209
463.68        54.89037
464.12        54.68989
464.56        54.05132
465.01         54.0554
465.45        54.50954
465.89        54.60219
466.34        54.38056
466.78        54.14484
467.22        53.88348
467.67        54.43033
468.11        53.84831
468.55          53.844
468.99        53.83019
469.44        53.78598
469.88        53.69851
470.32        53.61024
470.77        53.54277
471.21         53.4665
471.65        53.38505
472.10        53.30707
472.54        53.23618
472.98        53.18635
473.42        53.16158
473.87        53.18923
474.31        53.22219
474.75        53.22916
475.20        53.20388
475.64         53.2006
476.08        53.24137
476.52        53.22989
476.97        53.11087
477.41         53.2155
477.85        53.53913
478.29        52.95346
478.74        52.48375
479.18        52.98488
479.62        52.69674
480.06        52.83728
480.50         52.7844
480.95        52.89557
481.39        53.11292
481.83         53.0158
482.27        53.23909
482.72        53.14874
483.16        53.10784
483.60        53.13198
484.04        53.30786
484.48        53.02713
484.93        52.92769
485.37        52.87757
485.81        53.07991
486.25        52.68744
486.69        53.54334
487.14        53.28315
487.58        53.31934
488.02        52.81431
488.46        52.73288
488.90        53.02321
489.34        52.70937
489.79        52.58968
490.23         52.8581
490.67        52.88999
491.11        52.82584
491.55        52.65501
491.99        52.46299
492.43        52.37476
492.88        52.41183
493.32        52.52689
493.76        52.60832
494.20        52.63255
494.64        52.60746
495.08        52.11816
495.52        51.93443
495.96         51.9539
496.41        52.29247
496.85        52.39304
497.29        52.20642
497.73        52.27806
498.17        52.29388
498.61        52.30202
499.05        52.20902
499.49        51.89602
499.93        51.53992
500.37        51.75452
500.82        52.41382
501.26        52.60081
501.70        52.68073
502.14        52.16725
502.58        51.78998
503.02        51.53426
503.46        51.54468
503.90        51.66191
504.34        51.79214
504.78        51.90732
505.22        51.98236
505.66        51.96311
506.10        51.87353
506.54         51.9034
506.98        52.09196
507.42        51.66079
507.86         52.1834
508.30        51.67876
508.74        51.78526
509.18        51.53019
509.62        51.32825
510.06        51.25047
510.50        51.29369
510.94         51.3718
511.38        51.42781
511.82          51.462
512.26        51.45364
512.70        51.38512
513.14        51.28597
513.58        51.22195
514.02        51.20962
514.46         51.2271
514.90        51.24207
515.34        51.25887
515.78        51.27678
516.22        51.23387
516.66        51.01078
517.10        51.33373
517.54        51.11664
517.98        51.20782
518.42        51.26076
518.86        51.26723
519.30         51.2178
519.74        51.10129
520.18        50.97928
520.62        50.99886
521.06        51.13585
521.50        51.18301
521.93        51.12737
522.37        51.11061
522.81        51.13197
523.25        51.10179
523.69        51.02464
524.13         50.9549
524.57        50.90125
525.01        50.84939
525.45        50.81341
525.89        50.81603
526.32        50.85586
526.76        50.93007
527.20        51.01203
527.64        51.05968
528.08        51.06163
528.52        51.03141
528.96        50.98631
529.40        50.94778
529.83        50.92402
530.27         50.9349
530.71        50.96172
531.15         50.9742
531.59        50.96555
532.03        50.94322
532.46        50.92181
532.90         50.9343
533.34        50.97895
533.78        51.04745
534.22        51.09505
534.66        51.05434
535.09        50.91229
535.53        50.71078
535.97        50.50898
536.41        50.41269
536.85        50.44523
537.28        50.57581
537.72         50.7392
538.16        50.82922
538.60        50.81539
539.04         50.7285
539.47        50.60912
539.91        50.56138
540.35        50.59088
540.79        50.67025
541.22        50.74926
541.66        50.76301
542.10        50.69308
542.54        50.56461
542.97        50.42373
543.41         50.3662
543.85        50.40728
544.29        50.52648
544.72        50.65749
545.16        50.74529
545.60        50.76302
546.04        50.66789
546.47        50.53579
546.91        50.62174
547.35         50.8739
547.79        50.96566
548.22        50.85471
548.66        50.73957
549.10        50.64783
549.53        50.52457
549.97        50.41199
550.41        50.35604
550.84        50.37444
551.28        50.46375
551.72         50.5726
552.15        50.65087
552.59        50.70143
553.03        50.50996
553.46        50.51482
553.90        50.43014
554.34        50.38541
554.77        50.35635
555.21        50.36591
555.65        50.41687
556.08        50.52083
556.52        50.65076
556.96        50.76923
557.39        50.86393
557.83        50.90754
558.27        50.78707
558.70        50.56888
559.14        50.45861
559.57        50.47436
560.01         50.5971
560.45        50.72138
560.88        50.65455
561.32        50.46895
561.75        50.25648
562.19        50.13012
562.63        50.32121
563.06        50.69711
563.50        50.65174
563.93        50.23831
564.37        50.10338
564.80        50.24101
565.24        50.33607
565.68        50.37576
566.11        50.31775
566.55        50.44378
566.98        50.53459
567.42        50.65182
567.85        50.59054
568.29        50.43179
568.72        50.42741
569.16        50.60898
569.60        50.63111
570.03        50.72437
570.47        50.79487
570.90        50.86496
571.34        51.00946
571.77        51.01296
572.21        50.99174
572.64        50.84153
573.08        50.54718
573.51        50.83543
573.95        51.01047
574.38         50.5799
574.82        51.05548
575.25         51.2099
575.69        51.11995
576.12          50.556
576.56        50.84102
576.99        50.86483
577.42        51.02768
577.86        51.09442
578.29        51.43385
578.73         51.4149
579.16        50.95995
579.60        50.86972
580.03        51.16156
580.47        51.03604
580.90        50.96365
581.33        51.11655
581.77        51.43879
582.20        51.48118
582.64        51.34029
583.07        51.16701
583.51        50.68647
583.94         50.7906
584.37        50.67794
584.81        50.67633
585.24        50.67489
585.68        51.06722
586.11        50.74061
586.54        50.66941
586.98        50.89002
587.41        50.69935
587.85        50.76171
588.28        50.85337
588.71         50.8932
589.15        50.93625
589.58        50.66527
590.01        50.67387
590.45        50.64808
590.88        50.64666
591.31        50.30748
591.75         50.2478
592.18        50.19059
592.61        50.22746
593.05        50.74107
593.48        50.75121
593.91        50.57559
594.35        50.86693
594.78        50.87182
595.21        50.50707
595.65        50.42288
596.08        50.50868
596.51        50.64119
596.94        50.33756
597.38        50.31007
597.81        50.48893
598.24        50.38561
598.68        50.44866
599.11        50.54414
599.54        50.71687
599.97        50.49173
600.41        50.60561
600.84        50.70846
601.27        50.63549
601.70        50.67299
602.14        50.36822
602.57        50.31047
603.00        50.57106
603.43         50.6464
603.87        51.00225
604.30        50.76682
604.73        50.56779
605.16        50.20357
605.60        50.44286
606.03        50.54868
606.46        50.64326
606.89        50.44778
607.32        50.09503
607.76        50.49482
608.19         50.5102
608.62        50.40415
609.05        51.31232
609.48        50.57669
609.92        50.31469
610.35        50.35437
610.78        50.73235
611.21        50.36432
611.64        50.42631
612.07        50.33197
612.50        50.44567
612.94        50.47954
613.37        50.44892
613.80        50.41985
614.23        50.39301
614.66        50.37739
615.09        50.35807
615.52        50.37243
615.96        50.31997
616.39        50.24785
616.82        50.10995
617.25        50.16463
617.68        49.97065
618.11        49.90136
618.54        49.97896
618.97        50.04605
619.40        50.06268
619.84        50.15881
620.27        49.89124
620.70         49.7924
621.13        49.76641
621.56        49.88432
621.99        50.10827
622.42        50.18555
622.85        50.07599
623.28        50.09578
623.71        50.15467
624.14        50.06279
624.57        49.81536
625.00        50.09045
625.43        49.76067
625.86        49.90509
626.29        50.14321
626.72        50.08818
627.15        50.02851
627.58        49.91525
628.01        49.92438
628.44        49.62135
628.87        49.62646
629.30        49.99358
629.73        49.60118
630.16        50.07535
630.59        49.60375
631.02        49.83438
631.45        49.63657
631.88        49.67926
632.31         49.7728
632.74         49.6695
633.17        49.85769
633.60        49.83628
634.03        49.75322
634.46        49.66145
634.89        49.52554
635.32        49.47629
635.75        49.50003
636.18         49.5829
636.61        49.68525
637.04        49.74032
637.47        49.72149
637.89        49.68195
638.32        49.64888
638.75        49.58508
639.18        49.48172
639.61         49.7425
640.04        49.62344
640.47        49.66862
640.90        49.65531
641.33        49.61463
641.76        49.56551
642.18        49.55687
642.61        49.59376
643.04        49.65951
643.47        49.73052
643.90        49.77426
644.33        49.77902
644.76        49.73742
645.18        49.67111
645.61        49.64399
646.04        49.65015
646.47        49.60682
646.90        49.51551
647.33         49.4501
647.75        49.40832
648.18        49.36661
648.61        49.35585
649.04         49.3737
649.47        49.41039
649.89        49.74216
650.32        49.76844
650.75        49.88168
651.18        49.88172
651.61        49.64254
652.03        49.27622
652.46        49.20257
652.89        49.42685
653.32        49.54726
653.74        49.50308
654.17        49.60268
654.60        49.25341
655.03        49.37988
655.46        49.33749
655.88        49.64625
656.31        50.35294
656.74        52.78059
657.16        51.66132
657.59        51.15284
658.02        50.06405
658.45        49.63686
658.87        49.37525
659.30        49.85094
659.73        49.63121
660.15        48.91359
660.58         49.4882
661.01        49.62767
661.44        49.85912
661.86        49.90593
662.29        49.77371
662.72        49.49527
663.14        49.19445
663.57        49.24153
664.00        49.57143
664.42        49.68898
664.85        49.57198
665.27        49.43972
665.70        49.47359
666.13        49.43251
666.55        49.37555
666.98        49.32848
667.41        49.29346
667.83        49.27835
668.26        49.29451
668.69        49.29167
669.11        49.26855
669.54        49.40434
669.96        49.73218
670.39        49.52572
670.82        49.94073
671.24         49.9616
671.67        49.91563
672.09         49.8006
672.52        49.66746
672.94        49.49849
673.37        49.33408
673.80        49.26378
674.22         49.2976
674.65         49.3314
675.07        49.36983
675.50        49.46201
675.92        49.57751
676.35         49.6214
676.77        49.57589
677.20        49.48889
677.62        49.41943
678.05        49.36292
678.47        49.31982
678.90        49.63133
679.32        49.62132
679.75        49.75627
680.17        49.82482
680.60        49.85673
681.02         49.8508
681.45        49.81622
681.87        49.76735
682.30        49.68251
682.72        49.59481
683.15        49.54063
683.57        49.49092
684.00        49.55302
684.42         49.2955
684.85        49.28526
685.27        49.38447
685.70        49.51192
686.12        49.61438
686.54         49.6812
686.97        49.69522
687.39        49.67768
687.82        49.65233
688.24        49.63762
688.66        49.62865
689.09        49.80941
689.51        49.78896
689.94        49.87857
690.36        49.94099
690.78        49.92077
691.21        49.84523
691.63        49.77249
692.06        49.75461
692.48        49.85337
692.90        50.01752
693.33         50.0788
693.75        50.02404
694.17        49.89815
694.60        49.74364
695.02        49.77345
695.44        49.77643
695.87        49.80139
696.29        49.79575
696.71        49.76659
697.14         49.7369
697.56        49.90739
697.98        50.22693
698.41        50.18002
698.83        50.25119
699.25        50.15396
699.68        50.06201
700.10        49.96296
700.52         49.8757
700.94        49.80001
701.37          49.727
701.79        49.69027
702.21        49.67699
702.64        49.69168
703.06        49.72099
703.48        49.74594
703.90         49.7645
704.33         49.7769
704.75        49.79308
705.17        49.81461
705.59         49.8424
706.01        49.86699
706.44        49.89938
706.86        49.97224
707.28        50.07419
707.70        50.19491
708.12        50.29818
708.55        50.32078
708.97        50.24744
709.39        50.10549
709.81        49.93827
710.23        49.82713
710.66        49.80167
711.08        49.85036
711.50        49.92838
711.92        49.97555
712.34        49.97532
712.76        49.94483
713.19        49.90349
713.61        49.92077
714.03        49.98873
714.45        50.09522
714.87        50.21119
715.29        50.26153
715.71        50.22765
716.13        50.25928
716.56         50.1321
716.98        50.10677
717.40        50.11399
717.82        50.14632
718.24        50.18242
718.66        50.19125
719.08        50.16841
719.50        50.12661
719.92         50.0852
720.34        50.07072
720.76        50.09074
721.19        50.12917
721.61        50.18956
722.03        50.25432
722.45        50.31683
722.87        50.37992
723.29        50.44127
723.71        50.49744
724.13        50.54605
724.55        50.58382
724.97        50.61859
725.39        50.64771
725.81         50.6696
726.23        50.71776
726.65        50.78882
727.07        50.70764
727.49        50.75476
727.91        50.69275
728.33        50.62796
728.75        50.63729
729.17        50.71096
729.59        50.73165
730.01        50.69746
730.43        50.70995
730.85        50.76796
731.27        50.78488
731.69         50.7644
732.10        50.74245
732.52        50.85078
732.94        50.67646
733.36        50.33736
733.78         50.1775
734.20        50.23725
734.62        50.32799
735.04        50.41725
735.46        50.53102
735.88        50.65284
736.30        50.78161
736.72        50.88509
737.13        50.93896
737.55        50.90999
737.97        50.76566
738.39        50.58811
738.81        50.63149
739.23        50.86851
739.65        50.98684
740.06        50.91726
740.48        50.89125
740.90        50.87676
741.32        50.73986
741.74        50.54366
742.16        50.48177
742.57        50.59541
742.99         50.8095
743.41        51.04578
743.83        51.16678
744.25        51.13806
744.67        51.00008
745.08        50.84171
745.50        50.77503
745.92         50.8469
746.34        51.02224
746.75        51.22204
747.17        51.31757
747.59        51.27794
748.01        51.11406
748.42        50.92458
748.84        50.88642
749.26         51.0045
749.68        51.19433
750.09        51.35515
750.51        51.26413
750.93        50.98532
751.35        50.90165
751.76        51.03744
752.18        51.10137
752.60        51.09252
753.01        51.22298
753.43        51.40201
753.85        51.41707
754.27        51.24181
754.68        50.93765
755.10        50.63045
755.52        50.49247
755.93        50.56804
756.35        50.81868
756.77         51.1315
757.18        51.28718
757.60        51.21985
758.02        51.04295
758.43         50.9306
758.85        50.66568
759.26        51.07317
759.68        51.45321
760.10        51.32256
760.51        51.01323
760.93        51.06449
761.34        50.85851
761.76        51.16028
762.18         51.2659
762.59        51.28649
763.01        51.39256
763.42        50.96148
763.84        51.20524
764.26        51.40568
764.67        51.86756
765.09        52.26208
765.50        52.21054
765.92        51.79372
766.33        51.46841
766.75        51.32158
767.16        51.18993
767.58        51.05912
768.00        51.24419
768.41        51.65631
768.83        51.63609
769.24        51.19199
769.66        51.46434
770.07        51.26283
770.49        51.43164
770.90        51.55146
771.32        51.44022
771.73        51.18122
772.15         51.1653
772.56        51.43696
772.97        51.76026
773.39        52.00856
773.80        52.14138
774.22        52.09484
774.63        51.90576
775.05        51.64788
775.46        51.48519
775.88        51.44772
776.29        51.51339
776.70        51.62485
777.12         51.6938
777.53        51.70565
777.95        51.68753
778.36         51.6562
778.77        51.63144
779.19         51.6208
779.60        51.61313
780.02           51.61
780.43        51.64499
780.84        51.71872
781.26        51.78424
781.67        51.84122
782.09        51.90329
782.50        51.92767
782.91        51.80284
783.33        51.56914
783.74        51.49195
784.15         51.5809
784.57        51.71767
784.98        51.87909
785.39         52.0412
785.81        52.17878
786.22        52.29085
786.63        52.36774
787.04        52.40001
787.46        52.39907
787.87        52.34756
788.28        52.27056
788.70        52.20277
789.11        52.13913
789.52         52.0843
789.93        52.04761
790.35        52.03258
790.76        52.05888
791.17        52.13567
791.58        52.23638
792.00        52.34804
792.41        52.49405
792.82        52.52149
793.23        52.50892
793.65        52.87559
794.06        53.46325
794.47        53.54239
794.88        53.22933
795.29        52.85847
795.71        53.25565
796.12         53.3556
796.53        53.32685
796.94        53.26979
797.35        53.17179
797.76         52.9865
798.18        52.75867
798.59        52.58718
799.00        52.49485
799.41        52.46273
799.82        52.47557
800.23        52.50317
800.64        52.53143
801.06        52.55629
801.47        52.59806
801.88        52.62168
802.29        52.62511
802.70        52.61039
803.11        52.59893
803.52        52.63206
803.93        52.71627
804.34        52.83216
804.75        52.96027
805.17        53.05767
805.58        53.13038
805.99         53.1866
806.40        53.21372
806.81        53.16947
807.22        53.06628
807.63        52.95749
808.04        52.88378
808.45        52.87426
808.86        52.94012
809.27        53.08449
809.68        53.26355
810.09        53.38443
810.50        53.41946
810.91        53.39518
811.32        53.33047
811.73        53.25924
812.14        53.19973
812.55        53.14132
812.96        53.10107
813.37        53.11093
813.78        53.17113
814.19        53.26886
814.60        53.37323
815.01        53.43299
815.42        53.43654
815.83        53.40297
816.24         53.3379
816.65        53.25678
817.05        53.18294
817.46        53.09467
817.87        53.05421
818.28        53.12026
818.69        53.30041
819.10        53.58007
819.51        53.89748
819.92        54.13475
820.33        54.24472
820.74        54.24144
821.14         54.1722
821.55        54.14052
821.96        54.16185
822.37        54.21286
822.78        54.23882
823.19        54.14784
823.60        53.92271
824.00        53.61003
824.41        53.27678
824.82        53.07474
825.23        53.04361
825.64        53.14894
826.04        53.31627
826.45        53.38935
826.86        53.34049
827.27        53.21306
827.68        53.07578
828.08        53.06536
828.49        53.15587
828.90        53.35539
829.31        53.62644
829.72        53.77837
830.12        53.76999
830.53        54.16292
830.94        53.97771
831.35        53.97478
831.75        53.88263
832.16        53.70813
832.57        53.53831
832.97        53.52904
833.38        53.70475
833.79        54.00574
834.20        54.32806
834.60        54.51199
835.01         54.5164
835.42        54.39591
835.82         54.2108
836.23        54.03532
836.64         53.9199
837.04        53.84745
837.45        53.81228
837.86        53.85585
838.26        53.98116
838.67        54.16901
839.08        54.36201
839.48        54.44849
839.89        54.39947
840.29        54.24045
840.70        54.05143
841.11         53.9581
841.51        54.00978
841.92        54.14726
842.33        54.31972
842.73        54.43789
843.14        54.43787
843.54         54.3776
843.95         54.3003
844.35        54.29119
844.76        54.36302
845.17        54.47881
845.57        54.61499
845.98        54.70868
846.38        54.76296
846.79        54.78167
847.19        54.77866
847.60        54.70255
848.00        54.58656
848.41        54.41839
848.81        54.29298
849.22        54.32402
849.62        54.55566
850.03        54.90062
850.43        55.28154
850.84        55.47942
851.24        55.48283
851.65        55.29624
852.05        55.00835
852.46        54.72092
852.86        54.49545
853.27        54.35415
853.67        54.23949
854.07        54.17741
854.48        54.13708
854.88        54.13438
855.29         54.1576
855.69        54.30315
856.10        54.49793
856.50         54.7818
856.90        55.00629
857.31         54.9737
857.71        54.69811
858.12        54.20534
858.52        53.66986
858.92        53.34934
859.33        53.31759
859.73        53.54921
860.13        53.93473
860.54        54.27893
860.94        54.55479
861.34        54.75339
861.75         54.8758
862.15        54.99712
862.55        55.09182
862.96        55.11813
863.36         55.0307
863.76        54.72272
864.17        54.20144
864.57        53.55681
864.97        52.91601
865.38        52.46441
865.78        52.29908
866.18        52.37979
866.58        52.69812
866.99        53.17081
867.39        53.74236
867.79        54.38555
868.19        54.96857
868.60        55.20976
869.00        55.16348
869.40        55.11555
869.80        55.04077
870.21        54.65356
870.61        54.02729
871.01        53.38473
871.41         52.8263
871.81        52.35272
872.22        52.02295
872.62        51.85079
873.02        51.84641
873.42        52.24421
873.82        52.76718
874.22        52.69472
874.63        52.34334
875.03        52.37437
875.43        52.84081
875.83         54.6447
876.23        54.16905
876.63         53.3468
877.03        51.81792
877.44         48.8538
877.84        191.6755
878.24        49.65866
878.64        50.56988
879.04        52.54287
879.44        53.27932
879.84        49.08776
880.24         56.0262
880.64        56.67982
881.04        53.98717
881.44        51.89197
881.84        51.04519
882.24         51.6162
882.65        52.89796
883.05        53.17579
883.45        52.14096
883.85        50.89222
884.25        49.96497
884.65        49.66895
885.05        50.12338
885.45         51.0998
885.85        52.16573
886.25         52.7325
886.65        52.66024
887.05          52.153
887.45        51.39582
887.85        50.70429
888.25        50.23317
888.65        49.89217
889.04        49.77347
889.44        50.04123
889.84        50.65646
890.24        51.53865
890.64         52.4379
891.04        52.98061
891.44        53.08822
891.84         52.8662
892.24        52.43357
892.64        52.01996
893.04        51.74136
893.44        51.55891
893.83        51.53887
894.23        51.73558
894.63        52.15456
895.03        52.78491
895.43        53.50708
895.83        54.09832
896.23        54.47359
896.63        54.64832
897.02        54.68145
897.42        54.73267
897.82        54.81412
898.22        54.87904
898.62        54.85526
899.01        54.63826
899.41        54.20512
899.81        53.64104
900.21        53.04851
900.61        52.57752
901.00        52.27027
901.40        52.16201
901.80        52.24405
902.20        52.30283
902.59        52.26686
902.99        52.54256
903.39        53.23962
903.79        52.34968
904.18        53.34006
904.58        53.40077
904.98        53.47403
905.38        53.34698
905.77        53.01812
906.17        52.54346
906.57        52.05979
906.96        51.91174
907.36        52.16326
907.76        52.73288
908.15        53.42571
908.55        53.77295
908.95        53.69689
909.34        53.27363
909.74        52.76198
910.14        52.53737
910.53        52.69051
910.93        53.08825
911.33        53.48071
911.72        53.47392
912.12        52.99991
912.52        52.21997
912.91        51.38095
913.31        50.93645
913.70        50.97542
914.10        51.36528
914.49        51.93376
914.89        52.32093
915.29        52.43081
915.68        52.34304
916.08        52.19463
916.47         52.1523
916.87        52.28929
917.26        52.52756
917.66        52.76674
918.05        52.87556
918.45        52.80746
918.84        52.62889
919.24        52.42992
919.64        52.40855
920.03        52.60026
920.42        52.90339
920.82        53.19432
921.21        53.29206
921.61        53.18693
922.00        53.03468
922.40         52.9462
922.79        52.91162
923.19        52.47148
923.58        52.77111
923.98        54.42709
924.37         54.2818
924.77        50.48284
925.16        61.57905
925.55        53.77958
925.95        54.68662
926.34        54.71223
926.74        53.70832
927.13        51.78403
927.52        50.75642
927.92        51.33774
928.31        52.55104
928.70        53.98386
929.10        54.97073
929.49        55.37254
929.89        55.43564
930.28        55.19742
930.67        54.63136
931.07        53.84711
931.46          52.707
931.85        51.60972
932.24          51.813
932.64        53.46383
933.03        55.41176
933.42        56.53656
933.82        59.58468
934.21        57.39263
934.60        55.60088
934.99        53.78336
935.39        53.38997
935.78        54.47914
936.17        57.44513
936.56        66.04944
936.96        57.26487
937.35        62.31115
937.74        58.18625
938.13        55.11343
938.53        52.43367
938.92        51.10961
939.31        51.89536
939.70        53.37938
940.09         54.1617
940.49        53.88802
940.88        53.09227
941.27        52.18264
941.66        51.86948
942.05        52.38513
942.44        53.34066
942.84         54.3219
943.23        54.92688
943.62        55.01241
944.01         54.7142
944.40        54.26541
944.79        54.04477
945.18        54.16151
945.57        54.49975
945.97        54.79596
946.36        54.75162
946.75        54.26235
947.14        53.46083
947.53          52.634
947.92        52.26087
948.31        52.46648
948.70        53.08014
949.09        53.81514
949.48         54.2366
949.87        54.22686
950.26        53.92033
950.65        53.46968
951.04        53.12235
951.43        52.97165
951.82        52.93922
952.21        52.98099
952.60        53.03955
952.99        53.07456
953.38        53.09805
953.77        53.12889
954.16        53.17217
954.55        53.23901
954.94         53.3648
955.33        53.45123
955.72        53.33937
956.11        53.01298
956.50        52.48906
956.89        52.09119
957.28        52.32361
957.66        53.28254
958.05        54.73914
958.44        56.15164
958.83         56.7038
959.22        56.22289
959.61        54.86242
960.00         53.2366
960.39         52.5446
960.78        53.12054
961.16        54.61964
961.55        56.12079
961.94        56.49154
962.33        55.53509
962.72        53.58019
963.11        51.35478
963.49        50.34955
963.88        51.06851
964.27        52.94003
964.66        55.11357
965.04        56.44704
965.43         56.6203
965.82        56.06448
966.21         55.1068
966.60        54.31837
966.98        53.94332
967.37        53.75972
967.76        53.80237
968.15        54.15702
968.53        54.80281
968.92        55.76099
969.31        56.71783
969.69        57.10953
970.08         56.7822
970.47        55.81915
970.86        54.68181
971.24        54.21289
971.63        54.58993
972.02        55.56195
972.40        56.55761
972.79        56.61635
973.17        55.62102
973.56        53.89173
973.95        52.02794
974.33        51.09322
974.72        51.41833
975.11        52.62726
975.49        54.32125
975.88        55.76008
976.26        56.74293
976.65        57.43433
977.04        57.83245
977.42        57.89748
977.81        57.64628
978.19        56.95661
978.58        56.40236
978.96        56.92685
979.35        58.57878
979.74        60.90705
980.12        63.05603
980.51        63.76954
980.89        63.01899
981.28        61.03266
981.66          58.333
982.05        56.39785
982.43        55.87125
982.82        56.48633
983.20        57.67498
983.59        58.48475
983.97        58.66524
984.35        58.44676
984.74        58.05555
985.12         57.9213
985.51        58.12835
985.89        58.57393
986.28        58.93258
986.66        58.86478
987.04        58.38801
987.43        57.51765
987.81        56.32994
988.20        57.03606
988.58        59.96612
988.96        61.12634
989.35        59.34302
989.73        67.56825
990.12        63.17953
990.50        63.49721
990.88        62.66623
991.27        61.76423
991.65        60.83001
992.03        60.00031
992.42        59.54492
992.80        59.09262
993.18        58.65388
993.56        58.44154
993.95        58.39557
994.33        58.30967
994.71         58.1732
995.10         57.9793
995.48         57.9486
995.86        58.47212
996.24        59.55416
996.63        60.91169
997.01         62.2581
997.39        62.95775
997.77        62.84956
998.15        62.13775
998.54        61.10766
998.92        60.08192
999.30        59.28009
999.68        58.71654
1000.06        58.45172
1000.45        58.53465
1000.83        59.04456
1001.21        59.90277
1001.59        61.16826
1001.97        62.90175
1002.35        64.89256
1002.73         66.9039
1003.12        68.47505
1003.50        69.12617
1003.88        68.80479
1004.26         67.6726
1004.64         66.0688
1005.02        64.76891
1005.40        64.14343
1005.78        64.05003
1006.16        64.34274
1006.54        64.65669
1006.92        64.86327
1007.30        65.17384
1007.69        65.44514
1008.07        65.55078
1008.45        65.45892
1008.83        65.09706
1009.21         64.8683
1009.59        65.61049
1009.97        67.30066
1010.35        69.37077
1010.73        71.09042
1011.11        71.96166
1011.49        72.11469
1011.86         71.3664
1012.24        69.58226
1012.62        70.87849
1013.00        71.62581
1013.38        71.35059
1013.76        68.25389
1014.14        73.74304
1014.52        81.95336
1014.90         72.4079
1015.28        74.34554
1015.66        75.99456
1016.04        70.59686
1016.41        69.73222
1016.79        67.35367
1017.17          66.331
1017.55        65.99935
1017.93        66.56525
1018.31        68.17291
1018.69        70.09782
1019.06        72.06014
1019.44        74.01698
1019.82        75.46424
1020.20        75.75833
1020.58        74.80535
1020.95        72.38908
1021.33        69.12286
1021.71        67.12543
1022.09        67.62836
1022.46        69.87562
1022.84        72.29231
1023.22        73.66691
1023.60          74.017
1023.97        73.77232
1024.35        73.36958
1024.73        73.58745
