SpectraSmart Spectrum 2.9.0.0
--------- Device Information -----------
Spectrum Name :  反射率_0
Saving Time :  2024/04/21 00:19:18
Spectro-Module Model Name : SE2030-DUVN
Spectro-Module Serial Number : OS361AC55029948
Wavelength Start : 200
Wavelength End : 1025
Wavelength Unit : Wavelength(nm)
Spectrum Unit : Reflectance(%)
-----------Spectrum Setting ------------
Integration Time : 20ms
Average : 10
Boxcar : 0
Background removal :  enabled
linearity correction :  enabled
SC :  disabled
Intensity correction :  disabled
DWT denoise :  enabled
savitzky-golay :  disabled
FFT :  disabled
Running average :  disabled
Kalman :  disabled
High pass :  disabled
---------------BEGIN--------------------
Wavelength(nm)             Reflectance(%)
200.29               0
200.75        15.00022
201.21        30.49503
201.67        38.87925
202.13        44.68202
202.58        49.94664
203.04         56.0118
203.50        62.20332
203.96        65.04008
204.42        62.68569
204.88        56.39817
205.34        48.75874
205.80        42.66484
206.26        38.74454
206.72        37.47263
207.18        37.86658
207.64        36.55239
208.10        33.06968
208.55        28.96818
209.01        29.66153
209.47        40.34123
209.93        52.15048
210.39        60.34087
210.85        65.18004
211.31        67.37189
211.77        67.84523
212.23        67.47089
212.69        64.61613
213.14        54.00441
213.60        21.75386
214.06       -94.54848
214.52       -394.6371
214.98       -155.6247
215.44        1.961684
215.90        54.66978
216.36        72.08904
216.81        74.10429
217.27        63.93137
217.73        10.67113
218.19        671.8249
218.65        341.5675
219.11       -682.3151
219.57       -1.703319
220.02        42.87183
220.48        51.85534
220.94        49.66265
221.40        37.30692
221.86        6.096664
222.32       -15.93353
222.77        10.40284
223.23        33.88094
223.69        45.72394
224.15         49.6632
224.61        49.43526
225.06        47.38102
225.52        43.95997
225.98        39.30999
226.44         33.8872
226.90        26.77307
227.36        21.18731
227.81        23.26794
228.27        30.62972
228.73        38.88672
229.19        44.21276
229.65        44.39619
230.10        40.04827
230.56        32.42318
231.02        22.79897
231.48        16.58614
231.93        17.54638
232.39        23.47398
232.85        30.14235
233.31        34.08184
233.77        35.45725
234.22        35.81146
234.68        35.35395
235.14        34.36002
235.60        33.32615
236.05        31.43312
236.51        29.06264
236.97        32.45779
237.43        42.12533
237.88         48.7579
238.34        48.85499
238.80        68.04765
239.26        60.65877
239.71        60.05331
240.17        54.49836
240.63        48.57135
241.08        45.45163
241.54        47.50872
242.00        55.28105
242.46        62.02366
242.91        66.77192
243.37        70.42743
243.83        75.74047
244.28        87.63418
244.74        104.2439
245.20        120.8502
245.66        130.7447
246.11        127.4522
246.57        111.5695
247.03        84.61005
247.48        52.15139
247.94        23.70437
248.40       0.1221672
248.85       -29.82439
249.31       -85.75484
249.77       -93.91664
250.22       -2.671384
250.68        27.80324
251.14        36.95516
251.59        40.83621
252.05        43.90826
252.51        47.16009
252.96        50.22521
253.42        52.49086
253.88        53.22353
254.33        53.05553
254.79        55.83335
255.25        62.31356
255.70        69.20299
256.16        74.84745
256.62        78.16764
257.07        78.68966
257.53        77.82326
257.99         76.1628
258.44        73.91241
258.90        72.03749
259.35        70.04671
259.81        68.26411
260.27        66.58148
260.72        65.04259
261.18        63.97768
261.63        62.97696
262.09        62.03631
262.55        60.62328
263.00        58.70047
263.46        56.70272
263.91        54.75225
264.37        53.49294
264.83        52.85606
265.28        52.53919
265.74         52.4086
266.19        52.06685
266.65        51.49615
267.11        50.74181
267.56        49.78634
268.02        48.70405
268.47        47.48441
268.93        46.15975
269.38        44.77835
269.84        43.49433
270.30          42.347
270.75        41.33486
271.21        40.45643
271.66         39.6179
272.12        38.82507
272.57        38.06216
273.03        37.38478
273.48        36.82135
273.94        36.37948
274.39        35.98582
274.85        35.57084
275.31         34.9618
275.76         34.1422
276.22        33.23272
276.67        32.33711
277.13        31.69291
277.58         31.2852
278.04        31.05153
278.49        30.86491
278.95        30.63817
279.40         30.2872
279.86        29.89381
280.31        29.39589
280.77        28.79723
281.22        28.09076
281.68        27.35602
282.13        26.65867
282.59         26.1801
283.04        25.91656
283.50        25.83686
283.95        25.86534
284.41         25.9163
284.86        25.94391
285.32        25.99253
285.77        26.02594
286.22        26.01689
286.68        25.98776
287.13        25.89734
287.59        25.86133
288.04        25.95009
288.50        26.14616
288.95        26.52787
289.41        27.01819
289.86        27.02665
290.32        26.46707
290.77        27.24465
291.22        26.34616
291.68        26.44852
292.13        26.68343
292.59        27.10878
293.04        27.70106
293.50        28.49128
293.95        29.48448
294.40        30.65064
294.86        31.94376
295.31        33.27419
295.77        34.61011
296.22        35.94393
296.68        37.30154
297.13        38.72451
297.58        40.23734
298.04        41.82206
298.49         43.4644
298.95        45.16537
299.40        46.89462
299.85        48.66074
300.31         50.4315
300.76        52.12674
301.21         53.7525
301.67        55.36134
302.12        56.99547
302.58        58.83064
303.03        60.86218
303.48        63.08398
303.94        65.42097
304.39        67.69725
304.84        69.86577
305.30        71.96913
305.75        74.00631
306.20        76.09656
306.66        78.25658
307.11        80.38997
307.57        82.44718
308.02        84.27429
308.47        85.88185
308.93        87.35782
309.38        88.74766
309.83        90.19682
310.29        91.77271
310.74        93.36201
311.19         94.9167
311.65        96.32938
312.10        97.54953
312.55        98.62677
313.00        99.57044
313.46        100.3977
313.91        101.1184
314.36        101.7468
314.82        102.3553
315.27        103.0473
315.72        103.8498
316.18        104.7306
316.63        105.6164
317.08        106.3842
317.53        106.9889
317.99        107.4549
318.44        107.8102
318.89        108.0887
319.35        108.3144
319.80        108.4963
320.25        108.6541
320.70        108.8277
321.16        109.0226
321.61        109.2512
322.06        109.5179
322.51        109.8307
322.97        110.1633
323.42        110.5453
323.87        110.9068
324.32        111.1528
324.78        111.2487
325.23         111.267
325.68        111.2659
326.13        111.3788
326.59        111.6153
327.04        111.9885
327.49        112.4325
327.94        112.8685
328.39        113.2617
328.85        113.6047
329.30        113.9387
329.75        114.1926
330.20        114.3623
330.66        114.4046
331.11        114.4617
331.56        114.6352
332.01        114.9544
332.46        115.3926
332.92        115.7942
333.37        116.0379
333.82        116.0408
334.27        115.8845
334.72        115.7119
335.17        115.7602
335.63        116.0673
336.08        116.6159
336.53        117.3054
336.98        118.0158
337.43         118.679
337.88        119.3185
338.34        119.8474
338.79          120.19
339.24        120.3177
339.69        120.2619
340.14        120.1527
340.59        120.2105
341.05        120.4948
341.50        120.9618
341.95        121.5302
342.40        122.0546
342.85        122.4839
343.30        122.8618
343.75        123.1952
344.20        123.5003
344.66        123.7923
345.11        124.0235
345.56        124.2264
346.01        124.4632
346.46        124.7456
346.91        125.0428
347.36        125.2679
347.81        125.3635
348.26        125.3312
348.72        124.9163
349.17        124.7577
349.62        124.6371
350.07        124.7522
350.52        125.0239
350.97        125.3125
351.42         125.381
351.87        125.1583
352.32        124.7146
352.77        124.1691
353.22        123.7017
353.67        123.3611
354.13         123.117
354.58        122.8465
355.03        122.4135
355.48        121.7972
355.93        121.0544
356.38        120.3241
356.83        119.8065
357.28        119.5233
357.73        119.3937
358.18        119.2415
358.63        118.7918
359.08        117.9895
359.53        116.9366
359.98         115.797
360.43        114.8163
360.88        114.0593
361.33        113.4486
361.78        112.9025
362.23        112.2922
362.68        111.5781
363.13        110.8111
363.58        110.0115
364.03        109.2042
364.48        108.3968
364.93        107.5643
365.38        106.7229
365.83        105.9094
366.28        105.1325
366.73        104.3968
367.18        103.6622
367.63        102.8609
368.08        101.9892
368.53        101.0737
368.98        100.1824
369.43        99.41006
369.88        98.76651
370.33         98.2161
370.78        97.68242
371.23        97.05105
371.68        96.29903
372.13        95.46412
372.58        94.62707
373.03         93.9017
373.48        93.30663
373.93        92.80417
374.38        92.31779
374.83        91.73274
375.28        91.03412
375.72        90.25475
376.17        89.50212
376.62        88.85054
377.07        88.30364
377.52        87.81168
377.97        87.33481
378.42        86.82517
378.87        86.28162
379.32        85.74586
379.77        85.20847
380.22         84.6361
380.67        84.01939
381.11        83.35509
381.56        82.70882
382.01        82.22086
382.46        81.92284
382.91        81.77966
383.36        81.64943
383.81        81.31032
384.26        80.71851
384.71        79.93861
385.15        79.11824
385.60        78.55389
386.05        78.27879
386.50        78.20846
386.95        78.17696
387.40        77.92937
387.85        77.42525
388.29        76.72374
388.74        76.07187
389.19        75.60651
389.64        75.34834
390.09        75.21302
390.54        75.11604
390.98        74.91682
391.43         74.6254
391.88        74.28571
392.33        73.92802
392.78        73.61403
393.23        73.36591
393.67        73.05197
394.12        72.77644
394.57         72.6968
395.02        72.71831
395.47        72.42033
395.91        71.88573
396.36        71.58708
396.81        71.57937
397.26        71.63435
397.71        71.61602
398.15         71.4208
398.60        71.10799
399.05         70.5498
399.50        69.97265
399.95         69.8948
400.39        70.22552
400.84        70.42136
401.29        70.34245
401.74        69.84666
402.18         69.1322
402.63        68.97385
403.08        69.29986
403.53        69.20462
403.97        68.65412
404.42        68.24793
404.87        68.05563
405.32         67.9316
405.76        67.87583
406.21        67.92345
406.66        67.99273
407.11        67.98646
407.55        67.87164
408.00        67.58411
408.45        67.20841
408.90        66.86674
409.34        66.64095
409.79        66.65314
410.24        66.80054
410.68        66.80306
411.13        66.62764
411.58        66.40577
412.03        66.21708
412.47         66.1659
412.92        66.25513
413.37        66.45227
413.81        66.64764
414.26        66.73864
414.71        66.67731
415.15        66.51022
415.60        66.26863
416.05        66.07035
416.49        65.95947
416.94        65.90119
417.39        65.85539
417.83        65.75467
418.28         65.5823
418.73        65.34856
419.17        65.11254
419.62        64.97813
420.07        64.97478
420.51        65.07317
420.96        65.18679
421.41          65.195
421.85        65.06108
422.30         64.7038
422.74        64.28273
423.19        64.50156
423.64        65.21909
424.08        65.50875
424.53        65.24837
424.98        65.24464
425.42        65.53109
425.87        65.39878
426.31        64.98586
426.76        65.17732
427.21        65.82166
427.65        65.81495
428.10        65.18389
428.54         64.8994
428.99        65.02193
429.44        65.07085
429.88        64.98501
430.33        64.84827
430.77        64.65552
431.22        64.72237
431.66        64.98446
432.11        65.05473
432.56        64.98288
433.00        65.01246
433.45        64.88533
433.89        64.75114
434.34        64.90656
434.78        63.32995
435.23        63.76906
435.67        64.82087
436.12        65.18538
436.57        65.19202
437.01        64.43204
437.46        64.05663
437.90        64.58879
438.35        65.04278
438.79        64.98141
439.24        64.97225
439.68        64.87025
440.13        64.60248
440.57        64.27833
441.02        64.26147
441.46        64.52394
441.91        64.67963
442.35        64.65639
442.80        64.97623
443.24        65.48489
443.69        65.51757
444.13        65.09081
444.58        64.79982
445.02        64.75606
445.47        64.63387
445.91        65.03405
446.36        65.09184
446.80        64.97283
447.24        64.81966
447.69        64.70136
448.13        64.77459
448.58        64.82427
449.02        64.76575
449.47        64.56554
449.91        64.46017
450.36        64.47758
450.80        64.40242
451.25        64.28356
451.69        64.33627
452.13        64.51258
452.58        64.48656
453.02        64.25935
453.47        64.11884
453.91         64.0614
454.36         63.9462
454.80         63.8131
455.24        63.66921
455.69        63.51612
456.13        63.55838
456.58        63.86509
457.02        63.21315
457.46        63.64399
457.91        63.47915
458.35        63.42999
458.79         63.3425
459.24        63.28489
459.68        63.23089
460.13         63.2078
460.57        63.13878
461.01        63.02201
461.46        63.07743
461.90        63.08225
462.34        62.85766
462.79        62.94746
463.23        62.97951
463.68        63.10008
464.12        62.77496
464.56        62.21355
465.01        62.30624
465.45        62.75822
465.89        63.07629
466.34        62.44877
466.78        62.24321
467.22        62.20573
467.67        62.78259
468.11        62.42783
468.55        62.35997
468.99        62.17943
469.44        62.07781
469.88        62.06366
470.32        62.02375
470.77         61.9561
471.21        61.88698
471.65        61.81494
472.10        61.73563
472.54         61.6566
472.98        61.60109
473.42        61.57497
473.87        61.61171
474.31        61.66077
474.75        61.68082
475.20        61.67125
475.64        61.72278
476.08        61.85001
476.52         61.8755
476.97        61.73819
477.41        61.86339
477.85        62.29166
478.29          61.495
478.74        61.46562
479.18        61.80338
479.62         61.7314
480.06        61.88175
480.50         61.8702
480.95        61.87522
481.39        61.83658
481.83        62.03813
482.27        62.28732
482.72        62.16299
483.16        62.32029
483.60        62.67191
484.04        62.59515
484.48        62.18165
484.93        62.06566
485.37        61.78513
485.81        62.27924
486.25        62.23312
486.69         63.2291
487.14        62.94446
487.58        62.41527
488.02        62.29405
488.46        61.68737
488.90        62.00488
489.34        61.77031
489.79        61.48676
490.23        62.05725
490.67        62.17953
491.11        62.20599
491.55        62.06263
491.99        61.85337
492.43        61.76335
492.88        61.81229
493.32        61.92685
493.76        62.00748
494.20        62.05742
494.64         62.0864
495.08        61.73915
495.52         61.6222
495.96         61.7038
496.41        62.03509
496.85         62.0181
497.29        61.66847
497.73        61.71164
498.17         61.7957
498.61        61.95906
499.05        62.01294
499.49        61.69258
499.93        61.19251
500.37        61.29439
500.82        61.90233
501.26        62.13544
501.70        62.15923
502.14        61.77343
502.58        61.65382
503.02        61.52429
503.46        61.51548
503.90        61.56175
504.34        61.59887
504.78        61.61787
505.22        61.61444
505.66         61.5402
506.10        61.43353
506.54        61.45459
506.98        61.63041
507.42        61.29388
507.86         62.0111
508.30        61.39041
508.74        61.81743
509.18        61.69109
509.62        61.60674
510.06        61.54848
510.50        61.50649
510.94        61.40346
511.38        61.24195
511.82        61.15262
512.26        61.14974
512.70        61.15667
513.14        61.16318
513.58         61.2402
514.02        61.39235
514.46        61.32525
514.90        61.49652
515.34        61.49083
515.78         61.4535
516.22         61.3531
516.66        61.07283
517.10        61.25329
517.54        61.02689
517.98        61.07336
518.42         61.1174
518.86        61.15508
519.30        61.17556
519.74         61.1515
520.18        61.12135
520.62        61.21941
521.06        61.40272
521.50        61.42993
521.93        61.30531
522.37        61.23513
522.81        61.23062
523.25        61.17781
523.69        61.06983
524.13        60.95194
524.57        60.83179
525.01        60.70139
525.45        60.59916
525.89        60.58305
526.32        60.65712
526.76        60.80856
527.20        60.97441
527.64        61.05599
528.08        61.02857
528.52        60.91926
528.96        60.78514
529.40        60.70977
529.83        60.71186
530.27        60.79498
530.71        60.89361
531.15        60.90236
531.59        60.80302
532.03        60.63686
532.46        60.46484
532.90        60.39436
533.34        60.44191
533.78        60.57015
534.22        60.71231
534.66        60.76794
535.09        60.70578
535.53         60.5806
535.97        60.43133
536.41        60.33434
536.85        60.31263
537.28        60.34314
537.72        60.40033
538.16         60.4457
538.60        60.46408
539.04        60.46783
539.47        60.45615
539.91        60.47671
540.35        60.51743
540.79        60.56846
541.22        60.60544
541.66        60.60637
542.10          60.563
542.54        60.48557
542.97        60.39649
543.41        60.36039
543.85        60.38533
544.29        60.46774
544.72        60.56194
545.16        60.64244
545.60        60.68734
546.04        60.65565
546.47        60.61032
546.91         60.7498
547.35        61.02331
547.79        61.20037
548.22        61.21526
548.66        61.11457
549.10        60.95995
549.53        60.90035
549.97        60.94722
550.41        60.92828
550.84        60.84533
551.28        60.81846
551.72        60.84978
552.15        60.87408
552.59        60.90044
553.03        60.84515
553.46        61.00082
553.90        60.78446
554.34        60.78301
554.77        60.63624
555.21        60.58832
555.65        60.44288
556.08        60.67189
556.52        60.91516
556.96        61.19069
557.39        61.25375
557.83        61.12386
558.27        60.98925
558.70        60.91023
559.14        60.85912
559.57        60.84841
560.01        60.99899
560.45        61.20774
560.88        61.22258
561.32        61.11359
561.75        60.97277
562.19        60.89929
562.63        61.10328
563.06        61.43993
563.50        61.31004
563.93         60.7422
564.37        60.56167
564.80        60.75452
565.24        60.93842
565.68         61.0518
566.11        61.12843
566.55        61.15813
566.98        61.20958
567.42        61.32623
567.85         61.1043
568.29        61.21795
568.72        61.24383
569.16        61.38339
569.60         61.5635
570.03        61.48577
570.47        61.62186
570.90        61.86817
571.34        61.62238
571.77         61.6812
572.21        61.87861
572.64        61.81975
573.08        61.62716
573.51        61.91692
573.95        62.34961
574.38        62.11222
574.82        62.62971
575.25        62.33674
575.69        62.25515
576.12        61.94049
576.56        62.05706
576.99        62.26253
577.42        62.17301
577.86        62.32066
578.29        63.07515
578.73        62.94691
579.16        62.50498
579.60        61.79405
580.03        62.32991
580.47        62.46428
580.90        62.08421
581.33        62.59897
581.77         62.9492
582.20        62.91663
582.64         62.8054
583.07         62.7423
583.51        62.36862
583.94        62.04871
584.37        61.73492
584.81        61.52184
585.24        61.66156
585.68         62.4377
586.11        61.99207
586.54        62.19586
586.98        61.96842
587.41        61.82841
587.85        62.25343
588.28        62.06281
588.71         62.1166
589.15        62.06045
589.58        61.97916
590.01        61.62036
590.45        62.00471
590.88        61.69487
591.31        61.45098
591.75        61.56034
592.18         61.4281
592.61         61.2811
593.05        61.65556
593.48        61.93658
593.91         62.0317
594.35        62.00925
594.78         61.8786
595.21        61.71093
595.65        61.73282
596.08        61.92416
596.51        61.73929
596.94        61.80926
597.38        61.68444
597.81         61.5475
598.24        62.07254
598.68        62.00453
599.11         61.8071
599.54        62.02102
599.97        61.82581
600.41        62.11673
600.84        62.66266
601.27        62.27398
601.70        62.31594
602.14         62.1007
602.57        61.85611
603.00        61.54002
603.43        62.02081
603.87        62.49522
604.30        62.39602
604.73        62.13609
605.16        61.69468
605.60        62.37661
606.03        62.52757
606.46        62.49761
606.89        61.99219
607.32        61.80716
607.76        62.38925
608.19        62.25253
608.62          62.223
609.05        63.02435
609.48        62.58683
609.92        62.58319
610.35        61.99536
610.78        62.64638
611.21        62.08104
611.64        62.28135
612.07         62.2163
612.50        62.31532
612.94        62.33897
613.37        62.28825
613.80        62.20754
614.23        62.10933
614.66        62.04476
615.09        62.08786
615.52        62.07627
615.96        62.02545
616.39        62.05177
616.82        62.17196
617.25        62.02029
617.68        62.30176
618.11        62.10703
618.54        61.89156
618.97        61.82852
619.40        62.01668
619.84        61.93413
620.27         62.2408
620.70        62.21784
621.13        62.10432
621.56        62.04472
621.99        62.07146
622.42        62.19492
622.85        62.34937
623.28        62.20569
623.71        62.08981
624.14        62.14718
624.57        62.10833
625.00        62.31345
625.43          61.984
625.86         61.9446
626.29        61.97391
626.72        62.12556
627.15        61.95323
627.58        62.02001
628.01        62.24644
628.44        61.98597
628.87        61.89231
629.30        62.23291
629.73        62.02037
630.16         61.7487
630.59        61.62342
631.02        61.79018
631.45        61.51907
631.88        61.53889
632.31        61.61742
632.74        61.44218
633.17        61.62535
633.60        61.62334
634.03        61.61919
634.46        61.65063
634.89        61.62063
635.32        61.60861
635.75        61.57987
636.18        61.54673
636.61        61.50386
637.04        61.44694
637.47        61.38087
637.89        61.31428
638.32         61.2611
638.75        61.26467
639.18        61.32887
639.61        61.44839
640.04        61.57986
640.47        61.63341
640.90        61.60095
641.33        61.54531
641.76        61.49459
642.18        61.46309
642.61        61.45061
643.04        61.47453
643.47        61.51438
643.90        61.52785
644.33        61.50661
644.76        61.45543
645.18        61.39437
645.61        61.37412
646.04        61.39008
646.47        61.37493
646.90        61.33479
647.33        61.32994
647.75        61.35689
648.18        61.41319
648.61        61.50116
649.04        61.55457
649.47        61.54522
649.89         61.8134
650.32        61.69989
650.75         61.8021
651.18        61.86948
651.61        61.84134
652.03        61.73772
652.46        61.43432
652.89        61.09241
653.32        61.30165
653.74        61.93659
654.17        61.85492
654.60        61.60521
655.03        61.25415
655.46        61.12225
655.88        61.88453
656.31        62.92087
656.74        66.70918
657.16        65.78194
657.59        63.86751
658.02        62.13335
658.45        61.67683
658.87        61.93665
659.30        61.66528
659.73        61.58442
660.15         61.5855
660.58        61.93225
661.01        62.38904
661.44        62.75381
661.86        62.46944
662.29        61.69651
662.72        61.44205
663.14        61.74625
663.57        61.82704
664.00        61.65281
664.42        61.65651
664.85        61.83565
665.27        61.85872
665.70        61.91871
666.13        61.94043
666.55        61.98641
666.98        62.01888
667.41        62.02394
667.83        61.99087
668.26         61.9329
668.69        61.80993
669.11        61.65014
669.54        61.71191
669.96         62.0541
670.39        61.77366
670.82        62.30801
671.24         62.3712
671.67        62.36398
672.09        62.29789
672.52        62.22934
672.94        62.09373
673.37        61.94986
673.80        61.98683
674.22        62.17934
674.65        62.26385
675.07        62.23388
675.50        62.22187
675.92        62.23186
676.35        62.18983
676.77        62.09993
677.20        61.99839
677.62        61.94309
678.05        61.94843
678.47        62.00891
678.90        62.36832
679.32        62.48655
679.75        62.66214
680.17        62.72349
680.60        62.71453
681.02        62.64867
681.45        62.54255
681.87         62.4315
682.30        62.31648
682.72        62.24031
683.15        62.23455
683.57        62.27282
684.00        62.41374
684.42        62.30722
684.85        62.34625
685.27        62.41469
685.70        62.46064
686.12        62.45773
686.54        62.43972
686.97        62.40268
687.39         62.3607
687.82        62.34531
688.24        62.36862
688.66        62.41563
689.09        62.73034
689.51        62.79292
689.94        62.93473
690.36        62.98293
690.78         62.9275
691.21        62.81479
691.63        62.70718
692.06        62.67561
692.48        62.81182
692.90        63.05029
693.33        63.16332
693.75        63.13363
694.17        63.02801
694.60        62.87667
695.02        62.93107
695.44        62.92259
695.87        62.85751
696.29        62.72431
696.71        62.75651
697.14        62.93253
697.56        63.17248
697.98         63.4143
698.41        63.27579
698.83        63.37439
699.25        63.19376
699.68        62.96953
700.10        62.79687
700.52        62.71109
700.94        62.67852
701.37        62.67775
701.79         62.7317
702.21        62.80942
702.64         62.9191
703.06         63.0259
703.48        63.07708
703.90        63.06784
704.33        63.00911
704.75        62.93572
705.17        62.88873
705.59        62.88142
706.01        62.89649
706.44        62.94318
706.86        63.03372
707.28        63.14541
707.70        63.33017
708.12        63.53277
708.55        63.53061
708.97        63.36271
709.39        63.34951
709.81         63.4915
710.23        63.52774
710.66        63.45504
711.08         63.4534
711.50          63.504
711.92        63.51101
712.34        63.47061
712.76        63.40817
713.19        63.34596
713.61         63.3665
714.03        63.45711
714.45        63.60739
714.87        63.76868
715.29        63.82545
715.71        63.75174
716.13        63.74117
716.56        63.53061
716.98        63.48898
717.40        63.53783
717.82        63.65713
718.24        63.79416
718.66        63.86747
719.08        63.85843
719.50        63.79145
719.92        63.71251
720.34         63.6912
720.76         63.7437
721.19         63.8364
721.61        63.94809
722.03        64.01591
722.45        64.02454
722.87        63.99675
723.29        63.95782
723.71        63.94594
724.13        63.97165
724.55        64.02562
724.97        64.12341
725.39        64.19977
725.81        64.22923
726.23        64.38873
726.65        64.69879
727.07        64.30519
727.49        64.62409
727.91        64.51374
728.33        64.42737
728.75        64.41772
729.17        64.49319
729.59        64.54763
730.01        64.56514
730.43        64.62046
730.85        64.70406
731.27        64.77113
731.69        64.81335
732.10          64.772
732.52        64.84645
732.94        64.65897
733.36        64.35634
733.78        64.23685
734.20        64.34074
734.62        64.51438
735.04        64.69016
735.46        64.81876
735.88        64.87159
736.30           64.87
736.72        64.82894
737.13        64.79338
737.55        64.74219
737.97        64.67249
738.39        64.61787
738.81        64.65049
739.23        64.76858
739.65        64.92914
740.06        65.03144
740.48        65.06826
740.90         64.9967
741.32        64.82019
741.74        64.61998
742.16        64.55413
742.57        64.67233
742.99        64.90469
743.41        65.17737
743.83        65.35429
744.25        65.39618
744.67        65.33723
745.08        65.24958
745.50        65.20918
745.92        65.25923
746.34        65.37605
746.75        65.49905
747.17        65.52982
747.59        65.45026
748.01        65.26027
748.42        65.06335
748.84        65.04675
749.26        65.20271
749.68        65.42899
750.09        65.61811
750.51        65.51508
750.93        65.20612
751.35        65.17795
751.76        65.41253
752.18          65.456
752.60        65.29787
753.01        65.23665
753.43        65.24495
753.85        65.18659
754.27        65.06231
754.68        64.91786
755.10        64.80543
755.52        64.78087
755.93        64.85431
756.35        65.00845
756.77        65.21648
757.18        65.37336
757.60        65.44114
758.02        65.55531
758.43        65.76656
758.85        65.49374
759.26        65.82127
759.68        65.92632
760.10        65.36983
760.51        65.14555
760.93        65.85587
761.34        65.45854
761.76        65.99443
762.18        65.80124
762.59        65.48322
763.01        65.64176
763.42        65.43279
763.84        65.66751
764.26         65.6996
764.67        65.99479
765.09        66.33615
765.50        66.41402
765.92        66.24676
766.33        65.97029
766.75         65.6838
767.16        65.56482
767.58        65.60723
768.00        65.95529
768.41        66.45364
768.83        66.37231
769.24        65.78559
769.66        65.86454
770.07        65.79589
770.49        66.03176
770.90        66.22591
771.32        66.15809
771.73        65.89001
772.15        65.83907
772.56        66.04439
772.97        66.21585
773.39        66.28085
773.80        66.34898
774.22        66.37593
774.63        66.35519
775.05        66.29042
775.46        66.24486
775.88        66.21201
776.29        66.20523
776.70        66.20296
777.12        66.17651
777.53        66.14403
777.95        66.12149
778.36        66.11026
778.77        66.10044
779.19        66.08733
779.60         66.0673
780.02        66.07961
780.43        66.18124
780.84         66.3681
781.26        66.68087
781.67        67.03519
782.09        67.02154
782.50         66.7006
782.91        66.59002
783.33        66.69609
783.74        66.72159
784.15        66.63835
784.57        66.68755
784.98        66.85876
785.39        66.98943
785.81        67.05886
786.22        67.10566
786.63         67.1416
787.04        67.18607
787.46        67.25581
787.87        67.31558
788.28        67.35495
788.70        67.35353
789.11        67.29329
789.52        67.19961
789.93        67.11773
790.35        67.10771
790.76        67.19634
791.17        67.36617
791.58        67.56883
792.00         67.7023
792.41        67.76988
792.82        67.79411
793.23        67.81858
793.65        67.87421
794.06        68.01253
794.47        68.28108
794.88        68.57613
795.29        68.76423
795.71        68.70863
796.12        68.56778
796.53        68.36593
796.94        68.31168
797.35        68.39032
797.76        68.32539
798.18        68.12705
798.59        68.03933
799.00        68.06881
799.41         68.0778
799.82        68.05341
800.23        68.04542
800.64        68.05286
801.06         68.0415
801.47        68.05161
801.88        68.07684
802.29        68.11677
802.70         68.1622
803.11        68.22249
803.52        68.31163
803.93         68.4327
804.34        68.58558
804.75        68.72697
805.17        68.80534
805.58        68.84224
805.99         68.7474
806.40        68.60265
806.81        68.76108
807.22        69.13819
807.63        69.21008
808.04        69.00058
808.45         68.9804
808.86        69.16595
809.27        69.26739
809.68        69.26128
810.09        69.25079
810.50        69.23455
810.91        69.18835
811.32        69.10902
811.73        68.99249
812.14        68.84537
812.55        68.67879
812.96        68.53448
813.37        68.47578
813.78        68.51576
814.19        68.63686
814.60         68.7805
815.01        68.85364
815.42        68.83409
815.83        68.74494
816.24         68.6336
816.65        68.58997
817.05        68.65223
817.46        68.76974
817.87          68.928
818.28        69.06428
818.69        69.16354
819.10        69.23929
819.51        69.32914
819.92        69.49475
820.33        69.73323
820.74        70.00027
821.14         70.2212
821.55        70.30903
821.96        70.23489
822.37        70.03866
822.78        69.76319
823.19        69.48684
823.60        69.25504
824.00        69.07152
824.41        68.94072
824.82        68.93302
825.23        69.04716
825.64        69.26918
826.04        69.53443
826.45        69.69386
826.86        69.72781
827.27        69.67569
827.68        69.58678
828.08        69.58221
828.49        69.62878
828.90         69.7304
829.31        69.90823
829.72        70.11192
830.12        70.32921
830.53        70.87959
830.94        71.03392
831.35        71.07578
831.75        70.80331
832.16        70.26695
832.57        69.68691
832.97        69.43011
833.38        69.58389
833.79        70.03138
834.20        70.59358
834.60        70.99725
835.01        71.15955
835.42        71.15717
835.82        71.06075
836.23        70.93991
836.64        70.85242
837.04        70.77916
837.45        70.69147
837.86        70.61495
838.26        70.56573
838.67        70.54005
839.08        70.55932
839.48        70.63023
839.89        70.73947
840.29        70.88195
840.70        71.03054
841.11        71.14187
841.51        71.22118
841.92        71.24663
842.33        71.24784
842.73        71.27579
843.14         71.2988
843.54        71.32832
843.95        71.36452
844.35        71.43565
844.76        71.52862
845.17        71.64215
845.57        71.74245
845.98        71.73477
846.38        71.63626
846.79        71.45538
847.19        71.28085
847.60        71.17531
848.00        71.19854
848.41        71.29414
848.81        71.48254
849.22        71.71332
849.62        71.99582
850.03         72.2937
850.43        72.58541
850.84        72.73701
851.24        72.77742
851.65         72.6562
852.05        72.50555
852.46        72.45981
852.86        72.55792
853.27         72.7979
853.67        72.98312
854.07        72.98397
854.48        72.74387
854.88        72.33157
855.29        71.85159
855.69        71.67525
856.10        71.79846
856.50        72.21945
856.90        72.66275
857.31        72.71154
857.71        72.32479
858.12         71.5749
858.52        70.73083
858.92        70.17601
859.33        70.02307
859.73        70.20872
860.13        70.56568
860.54        70.81384
860.94        70.91888
861.34        70.91885
861.75          70.851
862.15        70.85551
862.55        70.92278
862.96        70.97318
863.36        70.98193
863.76        70.87132
864.17        70.62737
864.57        70.33472
864.97        70.00147
865.38        69.61659
865.78         69.2481
866.18        68.88557
866.58         68.6752
866.99        68.84184
867.39        69.42957
867.79        70.30854
868.19        71.18765
868.60        71.59188
869.00        71.50839
869.40        71.20415
869.80        70.79568
870.21        70.36415
870.61        70.07825
871.01         69.9539
871.41        69.93644
871.81        69.86432
872.22        69.71425
872.62        69.56293
873.02         69.4416
873.42        69.53329
873.82        69.69872
874.22        69.47545
874.63        69.09084
875.03         69.0282
875.43        69.32811
875.83           70.55
876.23        70.34291
876.63        69.96072
877.03        69.15635
877.44        67.47042
877.84        158.0637
878.24        67.99214
878.64         68.1899
879.04        68.92101
879.44        68.88809
879.84        65.84035
880.24        70.57993
880.64        71.32162
881.04        69.96703
881.44        68.91959
881.84        68.48439
882.24        68.81598
882.65         69.4911
883.05        69.51796
883.45        68.70777
883.85        67.74076
884.25        67.00362
884.65        66.76115
885.05        67.10518
885.45        67.88831
885.85        68.76318
886.25        69.24133
886.65        69.20817
887.05        68.80809
887.45        68.23566
887.85        67.82648
888.25        67.69935
888.65        67.74712
889.04        67.90154
889.44        68.05891
889.84         68.1622
890.24        68.24873
890.64        68.30991
891.04        68.31852
891.44        68.27898
891.84        68.20267
892.24        68.08858
892.64        67.95073
893.04        67.81152
893.44         67.6761
893.83        67.63588
894.23        67.79407
894.63        68.17003
895.03        68.73786
895.43        69.34615
895.83        69.73707
896.23        69.84798
896.63         69.7342
897.02        69.55866
897.42        69.64446
897.82         70.0072
898.22         70.5335
898.62        71.02053
899.01        71.15092
899.41        70.83144
899.81        70.20808
900.21        69.44052
900.61        68.78411
901.00        68.33601
901.40        68.10036
901.80        68.08177
902.20        68.16232
902.59        68.28502
902.99        68.69328
903.39        69.41219
903.79        69.04183
904.18        69.80013
904.58        69.88301
904.98        69.87547
905.38        69.60819
905.77        69.09682
906.17        68.42889
906.57        67.80077
906.96        67.62672
907.36        67.99032
907.76        68.79184
908.15        69.81522
908.55        70.53272
908.95         70.8281
909.34        70.76274
909.74        70.54516
910.14        70.48829
910.53        70.67306
910.93        70.99202
911.33        71.22704
911.72        71.04289
912.12        70.40616
912.52        69.46535
912.91        68.51181
913.31        68.06418
913.70        68.21609
914.10        68.82346
914.49        69.61679
914.89         70.0474
915.29         69.9855
915.68        69.55966
916.08        69.05196
916.47        68.86521
916.87        69.12737
917.26        69.69431
917.66        70.31783
918.05        70.63255
918.45        70.52525
918.84        70.12865
919.24        69.67117
919.64        69.57363
920.03        69.93656
920.42        70.60874
920.82        71.29694
921.21        71.55979
921.61         71.3149
922.00        70.75549
922.40        70.21754
922.79        70.11892
923.19        70.24988
923.58        71.18957
923.98        72.94384
924.37         73.1534
924.77        70.62022
925.16         76.6017
925.55        70.97684
925.95        71.03735
926.34        71.04515
926.74         70.7611
927.13        70.00414
927.52        69.44678
927.92        69.40678
928.31        69.44592
928.70        69.63254
929.10         69.9744
929.49        70.46223
929.89        71.10483
930.28        71.65338
930.67        71.57898
931.07        70.81562
931.46        69.43634
931.85        68.01407
932.24        67.91283
932.64        69.34482
933.03        71.35011
933.42        72.92406
933.82        75.32513
934.21        74.05516
934.60        72.67744
934.99        71.11227
935.39        70.58051
935.78        71.23453
936.17        73.23495
936.56        78.76812
936.96        73.23793
937.35        76.17513
937.74        73.18686
938.13        70.86719
938.53        69.14445
938.92        68.75593
939.31        70.02755
939.70         71.7449
940.09        72.68288
940.49         72.5654
940.88        71.82567
941.27        70.85268
941.66        70.36533
942.05        70.63018
942.44        71.34781
942.84          72.149
943.23        72.62241
943.62        72.64292
944.01        72.33663
944.40        71.98154
944.79        72.02645
945.18        72.55334
945.57         73.3857
945.97        74.09711
946.36        74.14556
946.75        73.38165
947.14         72.0182
947.53         70.4915
947.92          69.553
948.31        69.44717
948.70        69.95831
949.09         70.7728
949.48        71.39593
949.87        71.67086
950.26        71.74409
950.65        71.72488
951.04         71.7812
951.43         71.9681
951.82        72.19319
952.21        72.39265
952.60        72.50212
952.99        72.48885
953.38        72.37256
953.77        72.21715
954.16          72.093
954.55        72.02179
954.94        72.02094
955.33        71.97948
955.72         71.7075
956.11        71.18853
956.50        70.47752
956.89        69.87111
957.28        69.82794
957.66        70.44363
958.05        71.49992
958.44        72.57318
958.83        73.01956
959.22        72.69116
959.61        71.72089
960.00        70.51354
960.39        69.87234
960.78        70.04926
961.16        70.82474
961.55        71.64805
961.94        71.84818
962.33        71.29871
962.72        70.20001
963.11        68.96915
963.49        68.45711
963.88         68.9248
964.27        70.04958
964.66        71.32629
965.04        72.09277
965.43         72.1452
965.82        71.73586
966.21        71.09185
966.60        70.61111
966.98        70.45443
967.37        70.47798
967.76        70.62549
968.15        70.81357
968.53        71.01426
968.92        71.25565
969.31        71.49686
969.69        71.63254
970.08        71.61194
970.47        71.44602
970.86        71.23654
971.24        71.18689
971.63        71.32407
972.02        71.59146
972.40        71.87003
972.79        71.89845
973.17        71.67792
973.56        71.28302
973.95         70.8625
974.33        70.67244
974.72         70.7804
975.11        71.10018
975.49        71.59223
975.88         72.1137
976.26        72.66761
976.65        73.20042
977.04        73.65458
977.42        73.91645
977.81        73.92597
978.19        73.67064
978.58         73.4254
978.96        73.59953
979.35        74.22689
979.74        75.13589
980.12        76.00963
980.51        76.27029
980.89         75.9618
981.28        75.16139
981.66        74.14294
982.05        73.60527
982.43        73.80022
982.82        74.53583
983.20         75.4827
983.59        76.09714
983.97        76.26814
984.35        76.10777
984.74         75.6782
985.12        75.19988
985.51        74.75446
985.89         74.3791
986.28        74.05523
986.66        73.79956
987.04        73.65222
987.43        73.52343
987.81        73.33562
988.20        74.14734
988.58        76.04229
988.96        76.73032
989.35        75.48498
989.73        80.16532
990.12        77.03561
990.50        76.67384
990.88        75.66795
991.27        75.07702
991.65        75.03931
992.03        75.56011
992.42        76.42462
992.80        76.78047
993.18        76.41023
993.56        75.59585
993.95        74.61091
994.33        73.86961
994.71         73.5421
995.10        73.46916
995.48        73.66615
995.86        74.14547
996.24         74.8485
996.63         75.7114
997.01        76.61512
997.39        77.15921
997.77        77.24203
998.15         76.9128
998.54        76.45876
998.92        76.26254
999.30        76.49467
999.68        77.14699
1000.06        77.89725
1000.45        78.05246
1000.83        77.53532
1001.21         76.5146
1001.59        75.67397
1001.97        75.98886
1002.35        77.48483
1002.73        79.68713
1003.12        81.80525
1003.50        82.87753
1003.88        82.74592
1004.26        81.67614
1004.64        80.15459
1005.02        79.21834
1005.40        79.26773
1005.78        79.99102
1006.16         80.8875
1006.54        81.08547
1006.92        80.36536
1007.30        79.15478
1007.69        77.75293
1008.07        76.59612
1008.45        75.81792
1008.83        75.25767
1009.21        75.16936
1009.59        76.05854
1009.97        77.77783
1010.35        79.85372
1010.73        81.71728
1011.11        83.01099
1011.49        83.82785
1011.86        84.12357
1012.24        83.65228
1012.62        84.31014
1013.00        84.14965
1013.38        83.06519
1013.76        80.24541
1014.14        83.34187
1014.52        88.74816
1014.90        83.68617
1015.28        86.03457
1015.66        87.84927
1016.04         85.5835
1016.41         85.1358
1016.79        83.70419
1017.17        83.12685
1017.55        83.17465
1017.93           83.77
1018.31        84.83273
1018.69        85.77699
1019.06        86.42947
1019.44        86.93401
1019.82         87.0927
1020.20        86.54368
1020.58        85.20495
1020.95        82.84386
1021.33        80.05278
1021.71        78.81772
1022.09        80.06689
1022.46        82.87729
1022.84        85.62464
1023.22          87.068
1023.60        87.27849
1023.97        86.67518
1024.35        85.76313
1024.73        85.54723
