SpectraSmart Spectrum 2.9.0.0
--------- Device Information -----------
Spectrum Name :  反射率_0
Saving Time :  2024/04/21 00:21:21
Spectro-Module Model Name : SE2030-DUVN
Spectro-Module Serial Number : OS361AC55029948
Wavelength Start : 200
Wavelength End : 1025
Wavelength Unit : Wavelength(nm)
Spectrum Unit : Reflectance(%)
-----------Spectrum Setting ------------
Integration Time : 20ms
Average : 10
Boxcar : 0
Background removal :  enabled
linearity correction :  enabled
SC :  disabled
Intensity correction :  disabled
DWT denoise :  enabled
savitzky-golay :  disabled
FFT :  disabled
Running average :  disabled
Kalman :  disabled
High pass :  disabled
---------------BEGIN--------------------
Wavelength(nm)             Reflectance(%)
200.29               0
200.75       -18.47286
201.21      -0.4455806
201.67        9.712623
202.13        15.58812
202.58        19.51478
203.04        23.70896
203.50        27.31871
203.96        26.78505
204.42        20.68744
204.88        9.814009
205.34       -2.156455
205.80       -11.26002
206.26       -16.64927
206.72        -15.9198
207.18       -12.99244
207.64       -19.06004
208.10       -36.14529
208.55       -60.48534
209.01       -69.19855
209.47       -39.39331
209.93      -0.3509052
210.39        29.59003
210.85        47.88938
211.31         55.0826
211.77         53.9921
212.23        45.31063
212.69        24.31868
213.14       -16.01042
213.60       -90.03911
214.06        -299.817
214.52       -768.0103
214.98       -341.9127
215.44       -91.42137
215.90       -7.801431
216.36        19.58098
216.81        21.71693
217.27        2.823124
217.73       -95.45701
218.19        1082.787
218.65        445.2497
219.11       -919.5778
219.57       -28.33984
220.02        27.76153
220.48        38.13761
220.94          33.895
221.40        14.67067
221.86       -33.36164
222.32       -68.52818
222.77       -29.37887
223.23        6.885313
223.69        25.70751
224.15        32.43325
224.61        32.92863
225.06        30.81911
225.52        27.02271
225.98        22.30367
226.44        17.38075
226.90        11.00911
227.36        6.472086
227.81        9.793816
228.27        18.03362
228.73        26.82164
229.19        32.36522
229.65        32.41339
230.10        27.64701
230.56        19.51746
231.02        9.257785
231.48        2.183784
231.93        2.374099
232.39        7.859747
232.85        14.52061
233.31        18.83141
233.77        20.95867
234.22        22.57137
234.68        23.61749
235.14        23.80219
235.60        23.41884
236.05        21.56364
236.51        19.14634
236.97        24.13161
237.43        37.01074
237.88        47.14147
238.34        50.81792
238.80        70.60104
239.26        63.05464
239.71        59.06258
240.17        48.08532
240.63        38.16352
241.08        36.04994
241.54        45.15124
242.00        62.84311
242.46        75.76066
242.91        80.60978
243.37        78.42341
243.83         70.2009
244.28        62.53543
244.74         60.6729
245.20        61.56186
245.66        62.76909
246.11        61.99731
246.57         58.5904
247.03         53.9876
247.48        47.92501
247.94        39.31128
248.40        24.60464
248.85       -12.49181
249.31       -131.4569
249.77       -244.7291
250.22        -69.1699
250.68        9.853937
251.14        36.70927
251.59        45.32423
252.05         47.1864
252.51        46.07735
252.96        43.11688
253.42        42.99873
253.88         48.1671
254.33        55.40731
254.79        63.72842
255.25        70.94946
255.70        75.79778
256.16        79.21001
256.62        81.04837
257.07        81.31679
257.53        81.05167
257.99        80.19625
258.44        78.81457
258.90        77.82272
259.35        76.59585
259.81        75.54642
260.27        74.27636
260.72        72.50438
261.18        70.82178
261.63        69.06709
262.09        67.60789
262.55        66.22375
263.00        64.78012
263.46        63.48623
263.91        62.24547
264.37        61.46558
264.83        61.00586
265.28        60.66768
265.74        60.33555
266.19        59.57491
266.65        58.43056
267.11        56.97393
267.56        55.33448
268.02        53.82962
268.47        52.48666
268.93        51.26118
269.38        50.07102
269.84        48.86322
270.30        47.60396
270.75        46.34295
271.21        45.11443
271.66        43.87644
272.12        42.68054
272.57        41.51912
273.03        40.46951
273.48        39.58456
273.94        38.89235
274.39         38.3175
274.85        37.84253
275.31         37.3596
275.76        36.82624
276.22        36.30759
276.67        35.77782
277.13        35.30517
277.58        34.84753
278.04        34.41517
278.49        33.96781
278.95        33.55608
279.40        33.12663
279.86        32.71998
280.31        32.25146
280.77        31.70163
281.22        31.04102
281.68        30.36031
282.13        29.69752
282.59        29.19556
283.04        28.84876
283.50        28.65031
283.95        28.55006
284.41        28.50979
284.86        28.49726
285.32        28.54499
285.77        28.62207
286.22        28.71366
286.68        28.83255
287.13        28.92463
287.59        29.06493
288.04        29.25717
288.50        29.47783
288.95        29.82003
289.41        30.24715
289.86        30.24452
290.32         29.7512
290.77        30.57341
291.22        29.83289
291.68        30.07777
292.13        30.47505
292.59         31.0886
293.04        31.89093
293.50         32.9021
293.95          34.122
294.40        35.52155
294.86        37.05701
295.31        38.64514
295.77         40.2518
296.22        41.85638
296.68        43.48275
297.13        45.16867
297.58        46.93737
298.04        48.77356
298.49        50.64672
298.95        52.53389
299.40        54.40308
299.85        56.27579
300.31        58.15326
300.76        59.99857
301.21        61.82717
301.67        63.67479
302.12        65.54865
302.58        67.58876
303.03        69.76673
303.48        72.07949
303.94        74.46098
304.39        76.74287
304.84        78.88351
305.30        80.92992
305.75        82.85454
306.20        84.75135
306.66        86.64718
307.11        88.45718
307.57        90.19894
308.02        91.79928
308.47        93.28587
308.93        94.72465
309.38         96.0853
309.83        97.41196
310.29        98.73239
310.74        99.98965
311.19        101.2152
311.65        102.4374
312.10         103.629
312.55        104.7852
313.00        105.8386
313.46        106.6865
313.91        107.3025
314.36        107.7446
314.82        108.1154
315.27        108.5608
315.72        109.1337
316.18        109.7918
316.63        110.4883
317.08        111.1451
317.53        111.7216
317.99        112.2294
318.44        112.6579
318.89        112.9744
319.35        113.1792
319.80         113.294
320.25        113.3484
320.70        113.4039
321.16        113.4783
321.61         113.581
322.06        113.7263
322.51         113.939
322.97        114.1981
323.42         114.536
323.87        114.8789
324.32         115.122
324.78         115.222
325.23         115.247
325.68        115.2505
326.13          115.36
326.59        115.5829
327.04        115.9404
327.49        116.3507
327.94        116.7138
328.39        116.9958
328.85         117.191
329.30        117.4008
329.75        117.6476
330.20        117.9467
330.66        118.2364
331.11        118.5659
331.56        118.8692
332.01        119.1404
332.46        119.4035
332.92        119.6213
333.37        119.8857
333.82        120.1618
334.27        120.4465
334.72        120.7769
335.17        121.2173
335.63        121.7348
336.08        122.3632
336.53        122.9968
336.98        123.5134
337.43        123.8755
337.88        124.1165
338.34        124.2538
338.79        124.3912
339.24        124.5464
339.69        124.7168
340.14        124.9344
340.59        125.2489
341.05        125.6656
341.50        126.1778
341.95        126.7492
342.40        127.3155
342.85        127.8441
343.30        128.3382
343.75        128.7668
344.20        129.0965
344.66        129.3323
345.11        129.4521
345.56        129.5197
346.01        129.6412
346.46        129.8461
346.91        130.0893
347.36        130.2741
347.81        130.3411
348.26        130.2914
348.72        129.8216
349.17        129.6759
349.62        129.5492
350.07        129.6688
350.52        129.9428
350.97        130.2471
351.42        130.3699
351.87        130.2371
352.32        129.9116
352.77        129.4608
353.22        128.9864
353.67        128.5268
354.13        128.0731
354.58          127.58
355.03        127.0378
355.48        126.4511
355.93        125.8392
356.38        125.2506
356.83        124.7444
357.28        124.3143
357.73        123.9271
358.18        123.4939
358.63        122.8811
359.08        122.0698
359.53        121.1138
359.98        120.1031
360.43        119.1732
360.88        118.3542
361.33        117.5962
361.78        116.8627
362.23        116.0964
362.68        115.2776
363.13        114.4386
363.58        113.5532
364.03         112.573
364.48        111.5023
364.93        110.3562
365.38        109.2288
365.83        108.2764
366.28        107.5301
366.73        106.9428
367.18        106.4084
367.63        105.7542
368.08         104.936
368.53         104.008
368.98        103.0339
369.43        102.1041
369.88        101.2403
370.33        100.4047
370.78        99.57795
371.23        98.75138
371.68        97.93009
372.13        97.13065
372.58        96.37015
373.03        95.64944
373.48        94.96148
373.93        94.30981
374.38        93.65887
374.83        92.96449
375.28        92.23322
375.72        91.46191
376.17        90.75883
376.62        90.20167
377.07        89.78443
377.52        89.46243
377.97        89.13278
378.42        88.64234
378.87        87.97116
379.32        87.18445
379.77         86.3841
380.22        85.69906
380.67        85.14732
381.11        84.69123
381.56        84.26237
382.01        83.77428
382.46        83.21881
382.91        82.64135
383.36        82.08762
383.81        81.61922
384.26        81.24095
384.71        80.91335
385.15        80.59443
385.60        80.29013
386.05         79.9612
386.50        79.61797
386.95        79.22832
387.40        78.75198
387.85        78.21125
388.29        77.59045
388.74        77.05956
389.19        76.65434
389.64        76.36725
390.09        76.14635
390.54        75.95182
390.98        75.70518
391.43        75.43667
391.88        75.17665
392.33        74.89235
392.78        74.56761
393.23        74.22198
393.67        73.72653
394.12        73.29443
394.57        73.29028
395.02         73.6133
395.47        73.67033
395.91        73.41552
396.36        73.22836
396.81        73.11832
397.26        72.85529
397.71        72.44391
398.15        72.01465
398.60        71.67561
399.05        71.24033
399.50        70.83407
399.95        70.82705
400.39        71.12062
400.84        71.20409
401.29        70.99257
401.74        70.57839
402.18        70.07446
402.63        69.76576
403.08        69.64257
403.53         69.3588
403.97         68.9207
404.42        68.60758
404.87        68.45506
405.32        68.39751
405.76         68.4201
406.21        68.54064
406.66        68.65864
407.11        68.65868
407.55        68.51367
408.00        68.12964
408.45        67.63912
408.90        67.35553
409.34         67.3144
409.79        67.35158
410.24        67.37849
410.68        67.35228
411.13        67.24383
411.58        67.04939
412.03        66.82219
412.47        66.69685
412.92        66.67911
413.37        66.72884
413.81        66.79701
414.26        66.86929
414.71        66.90995
415.15        66.94849
415.60        66.93199
416.05        66.82762
416.49        66.64137
416.94        66.38106
417.39        66.11594
417.83        65.94347
418.28        65.88625
418.73        65.91451
419.17        65.97272
419.62        65.97581
420.07        65.90327
420.51        65.78041
420.96        65.66056
421.41        65.59518
421.85        65.57156
422.30        65.55213
422.74        65.52014
423.19        65.67204
423.64        65.93999
424.08        66.07722
424.53        65.99421
424.98        65.96155
425.42        66.00578
425.87        65.79497
426.31        65.46944
426.76        65.64403
427.21        66.20824
427.65        66.34685
428.10        65.99627
428.54        65.82587
428.99         65.8844
429.44        65.71314
429.88        65.38081
430.33        65.40261
430.77        65.66211
431.22        65.83143
431.66        65.85117
432.11        65.97878
432.56        66.23374
433.00        66.00706
433.45         65.2004
433.89        65.16423
434.34        66.06208
434.78        64.46944
435.23        65.11438
435.67        65.29228
436.12        66.10033
436.57        66.26981
437.01        65.86282
437.46        65.60598
437.90        66.21199
438.35        65.97216
438.79        66.07426
439.24        65.93616
439.68        65.87948
440.13        65.82075
440.57        65.78188
441.02        65.89111
441.46        66.09578
441.91        66.19409
442.35        66.16264
442.80        66.50665
443.24         67.0686
443.69        67.20445
444.13        66.88989
444.58        66.58416
445.02        66.37318
445.47        66.34199
445.91        66.46327
446.36        66.47697
446.80        66.36959
447.24        66.26193
447.69        66.21151
448.13        66.40807
448.58        66.60809
449.02        66.64159
449.47        66.46342
449.91        66.36845
450.36        66.38561
450.80        66.25294
451.25        66.04723
451.69        66.05628
452.13        66.24037
452.58        66.24567
453.02        66.04935
453.47        65.91149
453.91        65.82745
454.36        65.65536
454.80        65.41399
455.24        65.25646
455.69        65.21263
456.13        65.13895
456.58        65.06554
457.02        65.21964
457.46        65.12588
457.91        65.24467
458.35        64.71816
458.79        64.57256
459.24        64.63254
459.68         64.6409
460.13        64.58352
460.57         64.6068
461.01        64.75762
461.46          64.257
461.90        64.53478
462.34        64.25524
462.79        64.30585
463.23        64.22445
463.68        64.42542
464.12        64.07029
464.56        63.44543
465.01        63.47914
465.45        63.93297
465.89        64.19793
466.34        63.74697
466.78        63.52705
467.22        63.46375
467.67        63.54872
468.11        63.53486
468.55        63.47921
468.99        63.31377
469.44        63.17828
469.88        63.07809
470.32        62.90863
470.77        62.70445
471.21        62.57542
471.65        62.53595
472.10        62.55579
472.54        62.59519
472.98        62.62234
473.42        62.62758
473.87        62.60302
474.31        62.52473
474.75        62.54169
475.20        62.59304
475.64        62.41707
476.08        62.11693
476.52        61.98088
476.97         61.9673
477.41        62.24075
477.85        62.72505
478.29        62.26741
478.74        61.59674
479.18        62.33187
479.62        61.96035
480.06        62.15639
480.50        62.11677
480.95        62.25387
481.39        62.47322
481.83        62.29642
482.27        62.94485
482.72        62.16161
483.16        62.35249
483.60         62.5153
484.04        62.46794
484.48        62.05239
484.93        61.78963
485.37        61.98981
485.81        62.33779
486.25        62.12926
486.69        63.16606
487.14        63.10187
487.58        62.66982
488.02        61.94808
488.46        61.97318
488.90         61.8984
489.34        61.78638
489.79        61.28588
490.23        61.97713
490.67        62.00276
491.11        61.85524
491.55        61.72186
491.99        61.66856
492.43        61.63688
492.88        61.62669
493.32         61.6993
493.76        61.76694
494.20        61.80061
494.64        61.81447
495.08        61.43694
495.52         61.2807
495.96        61.35983
496.41         61.7024
496.85         61.6127
497.29        61.13387
497.73        61.08181
498.17        61.13254
498.61        61.34696
499.05        61.51776
499.49        61.23101
499.93        60.62829
500.37        60.63864
500.82        61.27683
501.26        60.94777
501.70        61.41112
502.14        60.98441
502.58        60.78704
503.02        60.60537
503.46        60.57365
503.90        60.54878
504.34        60.48043
504.78        60.46858
505.22        60.52519
505.66        60.53715
506.10        60.50168
506.54        60.63197
506.98        60.95006
507.42        60.42889
507.86        61.09243
508.30        60.53996
508.74        60.80799
509.18        60.65073
509.62        60.53148
510.06        60.47853
510.50        60.47535
510.94        60.44383
511.38        60.36489
511.82        60.31519
512.26        60.29101
512.70        60.25025
513.14        60.20206
513.58        60.17915
514.02        60.18457
514.46        60.21063
514.90        60.22599
515.34        60.22079
515.78        60.19445
516.22        60.11798
516.66        59.87624
517.10        60.12995
517.54        59.98453
517.98         60.1272
518.42        60.24335
518.86        60.27955
519.30        60.21821
519.74         60.0518
520.18        59.86557
520.62        59.86319
521.06         60.0225
521.50        60.09103
521.93        60.04212
522.37        60.02469
522.81        60.03315
523.25        59.96991
523.69         59.8495
524.13        59.74799
524.57        59.68023
525.01        59.62731
525.45        59.60033
525.89        59.61774
526.32        59.67518
526.76        59.76926
527.20        59.87637
527.64        59.95942
528.08        60.00357
528.52        60.01664
528.96        59.99966
529.40        59.95008
529.83        59.87234
530.27        59.79894
530.71        59.72897
531.15        59.65955
531.59        59.59553
532.03        59.54436
532.46        59.50927
532.90        59.50481
533.34        59.52554
533.78        59.56903
534.22        59.60919
534.66        59.60666
535.09        59.54711
535.53        59.46006
535.97        59.37007
536.41        59.33344
536.85        59.36234
537.28        59.44143
537.72        59.53403
538.16        59.58138
538.60        59.56796
539.04        59.51225
539.47        59.43627
539.91        59.42316
540.35        59.46868
540.79        59.55284
541.22        59.63518
541.66        59.66513
542.10        59.62626
542.54        59.53926
542.97        59.43135
543.41        59.37303
543.85        59.37389
544.29        59.42552
544.72         59.4873
545.16         59.5303
545.60        59.52673
546.04        59.47079
546.47        59.41173
546.91        59.42206
547.35        59.48993
547.79        59.64368
548.22        59.77607
548.66        59.59204
549.10         59.2005
549.53        59.11052
549.97        59.32087
550.41        59.38308
550.84        59.29206
551.28        59.28543
551.72        59.35039
552.15        59.45086
552.59        59.61443
553.03        59.38214
553.46        59.57912
553.90        59.49823
554.34        59.38329
554.77        59.23384
555.21        59.11899
555.65        59.08138
556.08        59.37116
556.52        59.53031
556.96        59.59491
557.39         59.7004
557.83        59.81625
558.27         59.7186
558.70        59.46549
559.14         59.3255
559.57        59.31924
560.01          59.395
560.45        59.47113
560.88        59.42195
561.32         59.3073
561.75        59.15359
562.19        59.06306
562.63        59.23051
563.06        59.54197
563.50        59.53118
563.93        59.22009
564.37        59.04882
564.80         59.0575
565.24        59.19141
565.68        59.40164
566.11        59.52352
566.55        59.54842
566.98        59.65368
567.42        59.81599
567.85        59.68937
568.29        59.39806
568.72        59.36808
569.16        59.61926
569.60        59.64954
570.03        59.75512
570.47        59.79892
570.90        59.76117
571.34        60.09826
571.77        60.23173
572.21        59.85322
572.64        60.26206
573.08        60.36048
573.51         60.1167
573.95        60.38371
574.38         60.0806
574.82        60.82525
575.25        60.91874
575.69        60.58623
576.12        60.03068
576.56        60.08527
576.99        60.18253
577.42        60.42299
577.86        60.33993
578.29        61.00953
578.73        61.35544
579.16        60.56047
579.60        60.10788
580.03        60.49325
580.47        60.51818
580.90        60.62234
581.33        60.57314
581.77        61.03325
582.20        60.90981
582.64        61.29277
583.07        61.02796
583.51        60.62349
583.94        60.09628
584.37        60.09639
584.81        59.71408
585.24        59.91752
585.68        60.62764
586.11        60.53324
586.54         60.5336
586.98        60.37486
587.41        60.24549
587.85        60.62473
588.28        60.34163
588.71        60.54018
589.15        60.25729
589.58        60.06454
590.01        59.99976
590.45        59.85921
590.88        60.11431
591.31        59.78752
591.75        59.70922
592.18        59.66128
592.61        59.90636
593.05        60.04344
593.48        60.44383
593.91        60.53254
594.35        60.30091
594.78         59.8087
595.21        60.00882
595.65        59.97628
596.08        59.95226
596.51         60.1407
596.94        59.98286
597.38        59.97836
597.81        59.97363
598.24        59.95609
598.68        59.88567
599.11        59.72203
599.54        60.07895
599.97        60.00358
600.41        60.13892
600.84        60.25072
601.27        60.33092
601.70        60.06504
602.14        59.68916
602.57        59.63705
603.00        59.96269
603.43        59.97817
603.87        60.08281
604.30        59.93649
604.73        60.15277
605.16        59.65999
605.60        59.95979
606.03         59.9741
606.46        60.08334
606.89        60.13123
607.32        59.97548
607.76         60.3789
608.19         60.3689
608.62        59.97535
609.05        60.53055
609.48        59.93732
609.92        60.04172
610.35         59.7048
610.78        60.17379
611.21        59.84283
611.64        60.01726
612.07        59.98168
612.50        60.03357
612.94        60.02258
613.37        59.95672
613.80        59.93539
614.23        59.82576
614.66        59.77701
615.09        59.78897
615.52        59.84003
615.96        59.91623
616.39        59.89177
616.82        59.73852
617.25        59.81101
617.68        59.57082
618.11        59.45267
618.54        59.46265
618.97        59.39767
619.40        59.31045
619.84        59.22939
620.27        59.26577
620.70        59.31327
621.13        59.36452
621.56        59.36347
621.99        59.33744
622.42        59.36163
622.85        59.38424
623.28        59.52993
623.71        59.42872
624.14        59.47327
624.57          59.597
625.00        60.04744
625.43        59.54481
625.86        59.54645
626.29        59.71928
626.72        59.41322
627.15        59.45461
627.58        59.40995
628.01        59.56652
628.44        59.24782
628.87        59.15662
629.30        59.54703
629.73        58.98736
630.16        59.33222
630.59        58.98273
631.02        59.34429
631.45        59.20564
631.88        59.25613
632.31        59.24026
632.74        59.16512
633.17        59.11338
633.60        59.03065
634.03        58.95374
634.46        58.92852
634.89        58.86839
635.32        58.86903
635.75        58.89987
636.18        58.95683
636.61        59.02055
637.04        59.06065
637.47        59.06843
637.89        59.05611
638.32        59.01844
638.75        58.97414
639.18        58.93134
639.61        58.88839
640.04        58.85298
640.47        58.83791
640.90        58.84385
641.33        58.86587
641.76        58.89748
642.18        58.93135
642.61        58.95088
643.04        58.97055
643.47        58.98083
643.90        58.97184
644.33        58.94518
644.76        58.88645
645.18        58.83474
645.61         58.8773
646.04        59.00674
646.47        59.13988
646.90        59.23009
647.33        59.25525
647.75        59.19556
648.18         59.0668
648.61        58.93399
649.04        58.85841
649.47        58.83931
649.89        59.12251
650.32        59.04552
650.75         59.2252
651.18        59.39445
651.61        59.31113
652.03        59.02564
652.46        58.82887
652.89        58.80084
653.32        58.86325
653.74        58.97744
654.17         59.1064
654.60         58.7616
655.03        58.95685
655.46         59.0559
655.88        59.70616
656.31        60.47048
656.74        64.45232
657.16        63.37707
657.59        61.80313
658.02        60.03739
658.45        59.48645
658.87        59.24555
659.30        59.18633
659.73        59.21288
660.15        58.37849
660.58        59.25549
661.01        59.45111
661.44        59.58612
661.86        59.47004
662.29        59.17066
662.72        58.92247
663.14        58.81807
663.57        58.94567
664.00        59.22215
664.42        59.35982
664.85        59.33218
665.27        59.20028
665.70        59.19028
666.13        59.13546
666.55        59.11242
666.98        59.10826
667.41        59.11318
667.83        59.12284
668.26        59.14179
668.69        59.11979
669.11        59.05376
669.54        59.14265
669.96        59.43547
670.39        59.09888
670.82        59.53056
671.24        59.51913
671.67        59.48653
672.09        59.45503
672.52        59.46094
672.94         59.4868
673.37         59.4978
673.80        59.38412
674.22        59.19198
674.65        59.08744
675.07        59.10919
675.50        59.14601
675.92         59.1833
676.35        59.22459
676.77        59.25653
677.20        59.29306
677.62        59.35056
678.05        59.37155
678.47        59.34204
678.90        59.55358
679.32        59.48721
679.75         59.5606
680.17        59.61898
680.60        59.67713
681.02        59.72417
681.45        59.75377
681.87        59.77312
682.30        59.74294
682.72        59.70207
683.15        59.73941
683.57        59.81041
684.00        59.88295
684.42        59.60945
684.85        59.53361
685.27         59.5495
685.70        59.54623
686.12        59.50139
686.54        59.47147
686.97         59.4505
687.39        59.45232
687.82        59.47773
688.24        59.49833
688.66        59.49078
689.09        59.69532
689.51        59.65924
689.94        59.77022
690.36        59.87463
690.78        59.93139
691.21        59.93699
691.63        59.87743
692.06        59.80384
692.48         59.8299
692.90        59.93324
693.33        59.96289
693.75        59.91697
694.17        59.83477
694.60        59.73317
695.02        59.80176
695.44        59.76799
695.87        59.74395
696.29         59.6927
696.71        59.57841
697.14        59.48029
697.56        59.81664
697.98        60.45053
698.41        60.48522
698.83        60.48162
699.25        60.22944
699.68        59.99921
700.10        59.82523
700.52        59.75502
700.94        59.77357
701.37        59.82309
701.79        59.86483
702.21        59.86022
702.64         59.8354
703.06        59.81185
703.48        59.82721
703.90        59.89111
704.33        59.98012
704.75        60.06964
705.17        60.10687
705.59        60.08134
706.01        60.00636
706.44        59.92629
706.86        59.93084
707.28        60.02517
707.70         60.1836
708.12        60.35374
708.55         60.4466
708.97        60.43542
709.39        60.35431
709.81        60.24607
710.23        60.18954
710.66        60.21149
711.08        60.29872
711.50        60.39731
711.92        60.44048
712.34         60.4128
712.76        60.33374
713.19        60.23993
713.61        60.23616
714.03        60.31751
714.45        60.46552
714.87        60.62705
715.29        60.68046
715.71        60.59841
716.13         60.5738
716.56        60.35443
716.98        60.28542
717.40        60.29423
717.82        60.36246
718.24         60.4584
718.66        60.53411
719.08        60.57638
719.50         60.6006
719.92        60.61961
720.34        60.65039
720.76        60.69743
721.19        60.74035
721.61        60.79284
722.03        60.85221
722.45         60.9161
722.87        60.98672
723.29        61.04999
723.71        61.08144
724.13        61.07765
724.55        61.04569
724.97        61.01828
725.39        61.02956
725.81        61.08438
726.23        61.20626
726.65        61.36901
727.07        61.33424
727.49        61.41179
727.91        61.35097
728.33        61.27664
728.75        61.26648
729.17        61.32232
729.59        61.34175
730.01        61.33514
730.43         61.3993
730.85        61.52972
731.27        61.66206
731.69        61.76615
732.10        61.76593
732.52        61.83554
732.94        61.59944
733.36        61.21408
733.78        61.01527
734.20        61.05878
734.62        61.18509
735.04        61.32391
735.46        61.42443
735.88        61.45361
736.30          61.428
736.72        61.38527
737.13        61.38614
737.55        61.40686
737.97        61.49186
738.39        61.60319
738.81         61.5723
739.23        61.43671
739.65         61.4977
740.06        61.68405
740.48         61.7441
740.90        61.64028
741.32        61.53045
741.74        61.47376
742.16        61.49517
742.57        61.62156
742.99        61.82472
743.41        62.03957
743.83        62.14469
744.25        62.11252
744.67        61.96776
745.08        61.80539
745.50        61.74799
745.92        61.84178
746.34        62.04621
746.75        62.26272
747.17        62.33016
747.59         62.2193
748.01        61.95482
748.42        61.65951
748.84        61.57587
749.26        61.71892
749.68        61.90454
750.09        62.04937
750.51         62.1027
750.93        62.06106
751.35        62.02202
751.76        62.00917
752.18        61.96798
752.60        61.91134
753.01        61.90516
753.43        61.90874
753.85        61.86852
754.27        61.77184
754.68        61.65894
755.10        61.58519
755.52        61.53493
755.93        61.50361
756.35        61.79289
756.77        61.83324
757.18        61.94537
757.60        61.93849
758.02        61.91924
758.43        61.98499
758.85        61.74882
759.26         62.2042
759.68        62.40191
760.10        61.89351
760.51        61.65645
760.93        62.25826
761.34        61.99577
761.76        62.19589
762.18        62.22407
762.59        62.33317
763.01        62.38519
763.42         61.6426
763.84        61.70705
764.26        61.96731
764.67        62.47372
765.09        62.93067
765.50        63.07733
765.92        62.93676
766.33        62.74523
766.75        62.58321
767.16        62.47431
767.58        62.39943
768.00        62.58249
768.41        62.92762
768.83         62.7538
769.24        62.14108
769.66        62.32636
770.07        62.34353
770.49        62.49577
770.90        62.45992
771.32        62.36446
771.73        62.26615
772.15          62.286
772.56        62.45545
772.97        62.66101
773.39        62.82818
773.80        62.96603
774.22        63.02224
774.63        63.01537
775.05        62.95293
775.46        62.90218
775.88        62.86239
776.29        62.84268
776.70        62.82421
777.12        62.78738
777.53        62.74918
777.95        62.71914
778.36        62.70264
778.77        62.69677
779.19        62.69824
779.60        62.70513
780.02        62.72955
780.43         62.8026
780.84        62.92556
781.26        63.08796
781.67        63.25638
782.09        63.28562
782.50        63.20812
782.91        63.03566
783.33        63.15347
783.74        63.16207
784.15        63.14886
784.57         63.2021
784.98        63.32304
785.39        63.42887
785.81        63.50161
786.22        63.56276
786.63        63.60284
787.04        63.61037
787.46        63.59867
787.87        63.54845
788.28        63.48743
788.70        63.44926
789.11        63.42823
789.52        63.43658
789.93        63.47044
790.35         63.5102
790.76         63.5599
791.17        63.62004
791.58         63.7031
792.00        63.78905
792.41        63.89862
792.82        64.09127
793.23        64.32937
793.65        64.35721
794.06        64.25899
794.47        64.46719
794.88        64.90379
795.29        65.04667
795.71         65.0281
796.12         64.9423
796.53        64.84776
796.94        64.79697
797.35        64.74736
797.76        64.43584
798.18        63.96376
798.59        63.75567
799.00        63.85608
799.41        64.06421
799.82        64.28162
800.23        64.42572
800.64        64.45248
801.06        64.36531
801.47         64.2626
801.88        64.23734
802.29        64.32037
802.70        64.47151
803.11         64.6573
803.52          64.822
803.93        64.94032
804.34        65.03251
804.75         65.0949
805.17        65.10339
805.58         65.0872
805.99        65.04861
806.40        65.01532
806.81        65.00574
807.22        65.04009
807.63        65.16911
808.04        65.36578
808.45         65.5106
808.86        65.57254
809.27        65.60029
809.68        65.59989
810.09        65.56284
810.50        65.49664
810.91        65.40884
811.32        65.29977
811.73         65.1704
812.14        65.03014
812.55        64.88748
812.96        64.77889
813.37        64.76041
813.78        64.83893
814.19        64.99129
814.60        65.16113
815.01         65.2633
815.42         65.2749
815.83        65.21423
816.24        65.11326
816.65        65.03761
817.05        65.02073
817.46        65.02274
817.87        65.05393
818.28        65.08723
818.69        65.11822
819.10         65.1591
819.51           65.23
819.92        65.36222
820.33         65.5519
820.74         65.7588
821.14        65.94133
821.55         66.0939
821.96        66.17965
822.37         66.1413
822.78        66.00269
823.19        65.87629
823.60        65.78689
824.00        65.69761
824.41        65.58425
824.82        65.48891
825.23        65.41845
825.64        65.38602
826.04        65.38921
826.45        65.37676
826.86        65.35557
827.27        65.33421
827.68         65.3526
828.08        65.50414
828.49        65.72366
828.90        66.01326
829.31         66.3173
829.72        66.45515
830.12        66.39567
830.53        66.54961
830.94         66.2066
831.35        65.92046
831.75        65.52491
832.16        65.02839
832.57        64.59978
832.97        64.50916
833.38        64.79691
833.79        65.37055
834.20        66.01952
834.60        66.42243
835.01        66.49678
835.42        66.32636
835.82        66.04647
836.23        65.85255
836.64         65.8376
837.04         65.9556
837.45        66.11914
837.86        66.24875
838.26        66.32391
838.67        66.35995
839.08        66.41459
839.48        66.55624
839.89        66.78437
840.29        67.06808
840.70        67.32489
841.11        67.42545
841.51        67.35694
841.92        67.12748
842.33        66.85057
842.73        66.71048
843.14        66.71906
843.54        66.86636
843.95         67.0621
844.35        67.18012
844.76        67.17368
845.17        67.07816
845.57         66.9826
845.98        66.99593
846.38        67.16673
846.79        67.42902
847.19        67.69769
847.60          67.761
848.00        67.61517
848.41        67.29641
848.81        66.98203
849.22        66.90234
849.62        67.15205
850.03        67.60342
850.43        68.14437
850.84        68.49912
851.24        68.64067
851.65        68.57823
852.05        68.41407
852.46        68.23663
852.86        68.10117
853.27        68.02085
853.67        67.91689
854.07        67.81901
854.48         67.6946
854.88        67.57436
855.29        67.45482
855.69        67.48454
856.10        67.59274
856.50        67.82661
856.90        68.02527
857.31        67.97166
857.71        67.67945
858.12         67.1638
858.52        66.59649
858.92        66.20591
859.33        66.05849
859.73        66.14611
860.13        66.36987
860.54        66.55627
860.94        66.70251
861.34        66.80394
861.75        66.87077
862.15        67.00085
862.55        67.16062
862.96        67.28271
863.36        67.31921
863.76        67.15471
864.17        66.77402
864.57        66.27028
864.97        65.69737
865.38        65.12286
865.78        64.64264
866.18        64.24834
866.58        64.06931
866.99        64.28316
867.39        64.91683
867.79        65.85332
868.19        66.82237
868.60        67.38126
869.00        67.52222
869.40        67.50392
869.80        67.37461
870.21        67.06327
870.61        66.69309
871.01        66.35702
871.41        66.04961
871.81        65.66386
872.22        65.21806
872.62        64.77583
873.02        64.45219
873.42        64.60295
873.82        65.07057
874.22        65.26235
874.63        65.30183
875.03        65.48321
875.43        65.79213
875.83        66.95809
876.23        66.42399
876.63        65.70407
877.03        64.57336
877.44        62.44706
877.84        167.0954
878.24        63.33457
878.64        64.19885
879.04         65.8354
879.44        66.50857
879.84        63.46907
880.24         68.2437
880.64         68.3806
881.04        66.00494
881.44         64.1292
881.84        63.32453
882.24         63.7068
882.65        64.70218
883.05        64.97688
883.45        64.26157
883.85         63.4031
884.25        62.80265
884.65         62.6872
885.05        63.14552
885.45         63.9977
885.85        64.91856
886.25        65.47845
886.65        65.57388
887.05        65.34622
887.45        64.94096
887.85        64.60566
888.25        64.44296
888.65        64.36964
889.04        64.40648
889.44        64.59662
889.84         64.9053
890.24        65.31491
890.64        65.69678
891.04        65.84891
891.44          65.744
891.84        65.45057
892.24         65.0642
892.64        64.76785
893.04        64.62978
893.44        64.58842
893.83        64.66677
894.23        64.86562
894.63        65.16779
895.03        65.58263
895.43        65.96372
895.83        66.05902
896.23        65.83893
896.63        65.38547
897.02        64.90793
897.42        64.78584
897.82        65.05323
898.22        65.58205
898.62        66.17662
899.01        66.52306
899.41        66.50827
899.81        66.25973
900.21        65.86207
900.61        65.45205
901.00        65.09357
901.40        64.81322
901.80        64.68633
902.20        64.70304
902.59        64.83628
902.99        65.33099
903.39        66.17896
903.79        65.77236
904.18        66.55326
904.58        66.55954
904.98        66.46772
905.38        66.12807
905.77          65.563
906.17        64.83097
906.57        64.13239
906.96        63.90187
907.36        64.21298
907.76        64.95568
908.15        65.85973
908.55        66.30855
908.95        66.18634
909.34        65.61816
909.74        64.89995
910.14        64.47272
910.53        64.46839
910.93        64.74706
911.33        65.09786
911.72        65.19124
912.12        64.95176
912.52         64.4908
912.91        63.99335
913.31        63.81904
913.70        64.01778
914.10        64.47905
914.49        64.99152
914.89        65.12575
915.29         64.8155
915.68        64.19035
916.08        63.55024
916.47        63.31152
916.87        63.60493
917.26        64.28706
917.66        65.11497
918.05        65.71994
918.45        65.96101
918.84        65.93815
919.24        65.79517
919.64        65.83131
920.03         66.1134
920.42        66.51517
920.82         66.8288
921.21         66.7514
921.61        66.26369
922.00        65.57037
922.40        64.96439
922.79        64.76145
923.19        64.68157
923.58         65.4643
923.98        67.31811
924.37        67.66036
924.77        65.13024
925.16        72.88026
925.55        67.14919
925.95         67.5661
926.34        67.41541
926.74        66.53639
927.13         64.9935
927.52        64.09197
927.92        64.36038
928.31        65.11214
928.70        66.07289
929.10        66.76171
929.49         67.0827
929.89        67.21307
930.28        67.14494
930.67        66.76849
931.07        66.14063
931.46        65.16073
931.85        64.23157
932.24        64.47244
932.64        66.00283
933.03        67.92523
933.42        69.21698
933.82        71.48399
934.21        69.61532
934.60        67.64321
934.99        65.56857
935.39        64.98994
935.78        66.06882
936.17        68.90694
936.56        75.73505
936.96        69.60268
937.35        72.74635
937.74        68.84148
938.13        65.50684
938.53        62.97094
938.92         62.2771
939.31        63.75705
939.70        65.97491
940.09        67.48148
940.49        67.92067
940.88        67.82494
941.27        67.42886
941.66        67.12032
942.05        67.08832
942.44        67.10861
942.84         67.1118
943.23        67.15089
943.62           67.19
944.01        67.24685
944.40        67.37124
944.79        67.59311
945.18        67.89745
945.57          68.278
945.97        68.52506
946.36        68.42805
946.75        67.92027
947.14        67.06659
947.53        66.20219
947.92        65.91252
948.31         66.3267
948.70        67.25597
949.09        68.27711
949.48        68.73121
949.87        68.46931
950.26        67.70162
950.65        66.75269
951.04        66.15458
951.43        66.08257
951.82        66.38089
952.21        66.86954
952.60        67.24897
952.99        67.38666
953.38        67.34868
953.77         67.2374
954.16        67.18478
954.55        67.22649
954.94        67.34853
955.33        67.37285
955.72         67.0116
956.11        66.24406
956.50        65.17872
956.89        64.25813
957.28        64.16328
957.66        65.02485
958.05        66.53103
958.44         68.1101
958.83        68.90054
959.22        68.69535
959.61        67.69355
960.00         66.3273
960.39        65.46735
960.78        65.42309
961.16        65.96454
961.55        66.60512
961.94        66.76926
962.33        66.33506
962.72          65.498
963.11        64.58465
963.49        64.23434
963.88        64.65214
964.27        65.58595
964.66        66.64544
965.04        67.33997
965.43        67.50222
965.82        67.31451
966.21        66.97233
966.60        66.82005
966.98        66.96209
967.37        67.25928
967.76        67.57626
968.15        67.69657
968.53         67.5913
968.92        67.36143
969.31        67.07233
969.69        66.80417
970.08        66.56744
970.47        66.28989
970.86        66.13094
971.24        66.37045
971.63        66.98891
972.02        67.90567
972.40         68.6925
972.79        68.61726
973.17        67.64423
973.56        66.00195
973.95        64.29198
974.33        63.60212
974.72        64.23627
975.11        65.82356
975.49        67.91141
975.88        69.65495
976.26        70.79665
976.65        71.47643
977.04        71.71017
977.42         71.5014
977.81         70.8694
978.19        69.71794
978.58        68.53934
978.96        68.22958
979.35        68.97462
979.74         70.4902
980.12        72.09988
980.51        72.74593
980.89        72.39324
981.28        71.19972
981.66        69.64172
982.05        68.91215
982.43        69.42808
982.82        70.85014
983.20        72.46587
983.59         73.1832
983.97        72.78828
984.35        71.56327
984.74        69.98067
985.12        68.96896
985.51        68.79387
985.89        69.24501
986.28         69.8763
986.66        70.10979
987.04        69.86317
987.43        69.24583
987.81        68.36631
988.20        68.88943
988.58        71.08138
988.96        71.98817
989.35        70.74616
989.73        76.68205
990.12        73.51266
990.50        73.71193
990.88        73.07803
991.27        72.39796
991.65        71.71474
992.03        71.12064
992.42        70.78369
992.80         70.4269
993.18        70.04749
993.56        69.83284
993.95        69.75479
994.33        69.68624
994.71        69.62624
995.10        69.53459
995.48        69.63106
995.86        70.28193
996.24        71.47835
996.63        72.97005
997.01         74.3862
997.39        74.95862
997.77        74.52485
998.15         73.3167
998.54        71.80972
998.92        70.65453
999.30        70.11371
999.68        70.08599
1000.06        70.35285
1000.45        70.39987
1000.83        70.17654
1001.21        69.87602
1001.59        69.80502
1001.97        70.37314
1002.35        71.53606
1002.73        72.94999
1003.12        74.32099
1003.50        75.39867
1003.88        76.11764
1004.26        76.61528
1004.64        76.79128
1005.02        76.44272
1005.40        75.55455
1005.78        74.15213
1006.16        72.70657
1006.54        71.98911
1006.92        72.19164
1007.30        73.19469
1007.69        74.35378
1008.07         74.7719
1008.45        74.23187
1008.83        72.94513
1009.21        71.58351
1009.59        71.54335
1009.97        73.06867
1010.35         75.3734
1010.73        77.57511
1011.11         79.0118
1011.49        79.73673
1011.86        79.76867
1012.24        79.01385
1012.62        80.22408
1013.00        80.87267
1013.38        80.67699
1013.76        78.51845
1014.14        82.28162
1014.52         87.9651
1014.90        81.96573
1015.28         83.7284
1015.66        85.31504
1016.04        82.60031
1016.41        82.56093
1016.79        81.43167
1017.17         80.7509
1017.55        80.11463
1017.93        79.63493
1018.31        79.58319
1018.69        79.88354
1019.06        80.54541
1019.44        81.53894
1019.82        82.33304
1020.20        82.14848
1020.58        80.80884
1020.95        78.12385
1021.33        74.90337
1021.71        73.70386
1022.09        75.59877
1022.46        79.27637
1022.84        82.64348
1023.22        84.13644
1023.60        83.85542
1023.97        82.35473
1024.35        80.31695
1024.73        79.15519
