SpectraSmart Spectrum 2.9.0.0
--------- Device Information -----------
Spectrum Name :  反射率_0
Saving Time :  2024/04/21 00:34:10
Spectro-Module Model Name : SE2030-DUVN
Spectro-Module Serial Number : OS361AC55029948
Wavelength Start : 200
Wavelength End : 1025
Wavelength Unit : Wavelength(nm)
Spectrum Unit : Reflectance(%)
-----------Spectrum Setting ------------
Integration Time : 20ms
Average : 10
Boxcar : 0
Background removal :  enabled
linearity correction :  enabled
SC :  disabled
Intensity correction :  disabled
DWT denoise :  enabled
savitzky-golay :  disabled
FFT :  disabled
Running average :  disabled
Kalman :  disabled
High pass :  disabled
---------------BEGIN--------------------
Wavelength(nm)             Reflectance(%)
200.29               0
200.75       -81.69055
201.21       -23.57529
201.67        7.535874
202.13         18.9155
202.58         18.9459
203.04          12.426
203.50         1.26562
203.96       -8.669863
204.42         -13.623
204.88       -16.29114
205.34        -17.0996
205.80       -17.22093
206.26       -16.74997
206.72       -11.10816
207.18       -4.850759
207.64       -10.62031
208.10       -31.03382
208.55       -63.12054
209.01        -78.9678
209.47       -48.36485
209.93       -4.282743
210.39        31.04552
210.85         52.8221
211.31        60.47797
211.77        57.02683
212.23        42.19725
212.69         10.6425
213.14       -39.63514
213.60        -109.903
214.06       -267.0155
214.52       -538.0079
214.98       -209.3692
215.44       -56.21844
215.90       -7.938775
216.36        5.746405
216.81        1.419197
217.27       -23.08873
217.73        -138.572
218.19        1224.458
218.65        480.9139
219.11       -1045.976
219.57       -49.65031
220.02        12.81865
220.48        23.50196
220.94        17.23172
221.40       -7.710189
221.86       -66.54379
222.32       -99.09378
222.77       -40.03244
223.23        8.101667
223.69        31.51594
224.15        38.84294
224.61        37.72985
225.06        32.46429
225.52         24.3511
225.98        15.01473
226.44        5.840218
226.90       -4.737062
227.36       -11.82382
227.81       -6.624576
228.27        6.214866
228.73        19.86764
229.19        28.95085
229.65        30.82781
230.10        26.74569
230.56        18.55337
231.02        7.650166
231.48     -0.01059554
231.93      0.07223553
232.39        5.655754
232.85        12.45734
233.31        16.82884
233.77         18.8645
234.22        20.25256
234.68         20.8719
235.14        20.25589
235.60        18.70086
236.05        15.39608
236.51        11.06388
236.97        14.09441
237.43        25.56273
237.88        33.32423
238.34        32.72854
238.80        57.55786
239.26        47.34789
239.71        46.35402
240.17        38.85583
240.63        30.37539
241.08         24.3567
241.54        23.56416
242.00        29.36093
242.46        32.88925
242.91        31.88547
243.37        27.72098
243.83        21.98407
244.28        20.00201
244.74        24.20559
245.20        30.41914
245.66        34.06529
246.11        30.82809
246.57        20.29385
247.03        4.308165
247.48        -16.0857
247.94       -39.76957
248.40       -72.18461
248.85        -144.216
249.31       -352.0729
249.77       -489.8125
250.22       -162.3016
250.68       -34.21981
251.14        5.338254
251.59          16.298
252.05        15.84317
252.51         8.18158
252.96       -7.057244
253.42       -22.82224
253.88       -29.79407
254.33       -28.11603
254.79        -17.4038
255.25       -1.025533
255.70        14.79787
256.16        27.45672
256.62        36.02964
257.07          40.233
257.53        41.81757
257.99         42.0904
258.44        41.68942
258.90        41.66897
259.35         41.7161
259.81        41.82928
260.27        41.89727
260.72        41.88063
261.18        41.95753
261.63        41.94527
262.09        41.76569
262.55        41.03431
263.00        39.78189
263.46        38.34416
263.91         36.9565
264.37        36.25744
264.83        36.18783
265.28        36.46881
265.74        36.80767
266.19        36.68277
266.65        36.07056
267.11        35.09741
267.56        33.96856
268.02         33.0723
268.47        32.44988
268.93        32.00784
269.38        31.54099
269.84        30.79286
270.30        29.71791
270.75        28.45057
271.21        27.20787
271.66        26.24991
272.12        25.66382
272.57        25.32975
273.03        25.15178
273.48         24.9642
273.94        24.72406
274.39        24.45784
274.85        24.16968
275.31        23.80506
275.76        23.36709
276.22        22.89135
276.67        22.44728
277.13        22.20476
277.58        22.14039
278.04         22.2039
278.49        22.25463
278.95        22.15591
279.40        21.84497
279.86        21.40638
280.31        20.87301
280.77        20.36154
281.22        19.88832
281.68        19.48823
282.13        19.12531
282.59        18.81019
283.04        18.52572
283.50        18.28725
283.95        18.14881
284.41         18.2037
284.86        18.43572
285.32        18.80569
285.77        19.15598
286.22        19.27018
286.68        19.13975
287.13        18.80628
287.59        18.48107
288.04         18.3856
288.50        18.53451
288.95         18.9752
289.41        19.58733
289.86        19.68698
290.32        19.14959
290.77        20.08262
291.22        19.14944
291.68        19.25337
292.13        19.43509
292.59        19.75212
293.04        20.19311
293.50        20.81867
293.95        21.64225
294.40         22.6189
294.86        23.69339
295.31         24.7615
295.77        25.79072
296.22        26.79598
296.68        27.80172
297.13        28.84718
297.58        29.96378
298.04        31.14037
298.49        32.40406
298.95         33.8162
299.40        35.35621
299.85        37.00521
300.31        38.67231
300.76        40.19975
301.21        41.56546
301.67        42.83538
302.12        44.08933
302.58        45.53988
303.03        47.20557
303.48        49.06969
303.94         51.0391
304.39        52.92369
304.84        54.68132
305.30        56.36976
305.75        58.04029
306.20        59.86499
306.66        61.85482
307.11        63.89271
307.57        65.86871
308.02        67.56698
308.47         68.9699
308.93        70.19262
309.38        71.30126
309.83        72.42611
310.29        73.70831
310.74        75.00243
311.19        76.30644
311.65        77.55956
312.10        78.72369
312.55        79.83076
313.00        80.86462
313.46        81.79801
313.91        82.61654
314.36        83.32858
314.82        83.98872
315.27        84.68481
315.72        85.44146
316.18        86.23898
316.63        87.01315
317.08        87.66103
317.53        88.15308
317.99         88.5134
318.44         88.8061
318.89        89.12058
319.35        89.48322
319.80        89.88094
320.25        90.25901
320.70        90.53377
321.16         90.6822
321.61        90.74769
322.06        90.80675
322.51        90.98678
322.97        91.29969
323.42        91.73483
323.87        92.17827
324.32        92.45686
324.78        92.51225
325.23        92.43417
325.68        92.31184
326.13        92.32071
326.59        92.48721
327.04        92.79935
327.49        93.16968
327.94        93.48196
328.39        93.69482
328.85        93.82518
329.30        93.94068
329.75        94.03312
330.20         94.1218
330.66        94.16734
331.11        94.26987
331.56        94.48304
332.01        94.82026
332.46        95.26054
332.92        95.70202
333.37        96.09023
333.82        96.35436
334.27         96.5358
334.72        96.68164
335.17        96.87421
335.63        97.12497
336.08        97.46659
336.53         97.8933
336.98         98.4374
337.43        99.08687
337.88        99.81889
338.34         100.545
338.79        101.1662
339.24        101.6213
339.69         101.934
340.14        102.1385
340.59        102.3059
341.05        102.4741
341.50        102.6411
341.95        102.8325
342.40        103.0899
342.85        103.4234
343.30        103.8337
343.75          104.28
344.20        104.6922
344.66        105.0532
345.11        105.3491
345.56        105.6136
346.01        105.9024
346.46        106.2245
346.91         106.558
347.36        106.8362
347.81        106.9825
348.26        106.9966
348.72        106.8436
349.17        106.7511
349.62        106.7798
350.07        106.9996
350.52        107.3407
350.97        107.6844
351.42        107.8344
351.87        107.7315
352.32        107.4404
352.77        107.0302
353.22        106.6039
353.67        106.2088
354.13        105.8431
354.58        105.4887
355.03        105.1708
355.48        104.8905
355.93        104.6406
356.38        104.4262
356.83        104.2472
357.28        104.0769
357.73         103.891
358.18        103.6108
358.63        103.1217
359.08        102.4179
359.53        101.5596
359.98        100.6443
360.43        99.81628
360.88        99.12153
361.33        98.52442
361.78        98.01247
362.23         97.5601
362.68         97.1409
363.13         96.7543
363.58        96.34363
364.03        95.81644
364.48        95.15215
364.93        94.37066
365.38         93.5239
365.83        92.70893
366.28        91.95834
366.73        91.24565
367.18        90.56263
367.63        89.89329
368.08        89.22775
368.53        88.58154
368.98        87.92073
369.43        87.17617
369.88        86.33569
370.33        85.41677
370.78        84.48408
371.23        83.66844
371.68        83.02007
372.13        82.51077
372.58        82.09766
373.03        81.69587
373.48        81.26547
373.93        80.82225
374.38        80.35865
374.83        79.87199
375.28        79.37062
375.72        78.83676
376.17        78.31079
376.62        77.79518
377.07        77.28189
377.52        76.75776
377.97        76.22258
378.42        75.69029
378.87        75.17645
379.32        74.69308
379.77        74.22099
380.22        73.71373
380.67        73.15632
381.11        72.56301
381.56        71.96804
382.01        71.45139
382.46        71.04639
382.91        70.73991
383.36         70.4846
383.81        70.20372
384.26        69.87261
384.71        69.50363
385.15        69.12856
385.60         68.8582
386.05        68.68226
386.50        68.57034
386.95        68.44109
387.40         68.1763
387.85         67.7711
388.29          67.241
388.74        66.76851
389.19        66.43301
389.64        66.24099
390.09        66.13236
390.54        66.05019
390.98         65.8916
391.43        65.67124
391.88        65.42461
392.33        65.14686
392.78        64.85247
393.23        64.55968
393.67        64.15746
394.12        63.79864
394.57        63.72006
395.02         63.8427
395.47        63.74736
395.91        63.41828
396.36        63.14895
396.81        62.96606
397.26        62.71707
397.71        62.39867
398.15        62.08443
398.60        61.84989
399.05        61.54028
399.50        61.27558
399.95        61.34337
400.39        61.66485
400.84        61.93923
401.29        62.00373
401.74        61.53282
402.18        60.69206
402.63        60.26016
403.08        60.26115
403.53        60.01837
403.97        59.54659
404.42        59.34446
404.87        59.37852
405.32        59.39171
405.76        59.35011
406.21        59.24948
406.66        59.11636
407.11          59.168
407.55        59.33043
408.00        59.17653
408.45        58.74308
408.90        58.32412
409.34        58.05118
409.79        58.08751
410.24        58.33342
410.68        58.40588
411.13        58.26811
411.58        58.15349
412.03         58.0929
412.47        58.03535
412.92        57.97363
413.37        57.93608
413.81         57.9096
414.26        57.91983
414.71        57.94991
415.15        58.00513
415.60        58.05049
416.05        58.07573
416.49        58.07503
416.94         58.0415
417.39        57.97965
417.83        57.89127
418.28        57.78376
418.73        57.65677
419.17        57.52456
419.62        57.42276
420.07        57.36222
420.51        57.33186
420.96        57.33736
421.41        57.35648
421.85         57.3596
422.30        57.34333
422.74        57.30021
423.19        57.40742
423.64        57.61102
424.08        57.69151
424.53        57.59274
424.98        57.57779
425.42        57.67484
425.87        57.60911
426.31        57.44217
426.76        57.59387
427.21        57.95986
427.65        57.90881
428.10        57.47112
428.54         57.2888
428.99         57.4243
429.44        57.49868
429.88        57.45827
430.33        57.52764
430.77        57.60731
431.22        57.53831
431.66        57.36755
432.11        57.46108
432.56        57.83184
433.00        57.89401
433.45        57.53576
433.89        57.49617
434.34          57.947
434.78        57.05833
435.23        56.54831
435.67        57.99381
436.12        58.12808
436.57        58.37805
437.01         57.7788
437.46        57.47899
437.90        58.13028
438.35        57.94688
438.79        58.08789
439.24        57.96979
439.68         57.9119
440.13        57.75177
440.57        57.56615
441.02        57.73391
441.46        58.14104
441.91        58.20773
442.35        57.96278
442.80        58.20003
443.24        58.77975
443.69        58.93204
444.13        58.63638
444.58        58.40934
445.02        58.32056
445.47        58.40973
445.91        58.60047
446.36        58.64842
446.80        58.52611
447.24        58.36302
447.69        58.21574
448.13        58.25769
448.58        58.29049
449.02        58.16235
449.47        57.88385
449.91         57.7977
450.36        57.92978
450.80        57.99793
451.25        57.99939
451.69         58.0985
452.13        58.23571
452.58        58.11771
453.02        57.78178
453.47         57.5533
453.91        57.45424
454.36        57.33361
454.80        57.18038
455.24        57.07731
455.69        57.03043
456.13        56.95965
456.58        56.90684
457.02        57.01929
457.46        56.88811
457.91        57.14711
458.35        56.70725
458.79        56.60192
459.24        56.57581
459.68        56.47747
460.13        56.31344
460.57        56.21261
461.01        56.23319
461.46        55.82293
461.90        55.87015
462.34        55.79877
462.79        55.64611
463.23        55.60306
463.68         55.9542
464.12        55.73389
464.56        55.19373
465.01        55.31363
465.45        55.87792
465.89        55.86697
466.34        55.36383
466.78        55.15438
467.22        55.25699
467.67        55.25241
468.11        54.88603
468.55        54.70987
468.99        54.65272
469.44        54.54516
469.88        54.38243
470.32        54.22967
470.77        54.10862
471.21        54.02217
471.65        53.97735
472.10        53.97705
472.54        53.97918
472.98        53.95718
473.42         53.9108
473.87        53.79077
474.31          53.626
474.75        53.70358
475.20        53.97204
475.64        53.92068
476.08         53.8171
476.52          53.712
476.97        53.67283
477.41        53.55159
477.85        53.35615
478.29        53.32931
478.74        52.93848
479.18        53.30679
479.62         53.2514
480.06        53.41433
480.50        53.51265
480.95        53.48206
481.39        53.25005
481.83        53.78978
482.27        53.67449
482.72        53.52448
483.16        53.62885
483.60        53.86574
484.04        53.72276
484.48        53.45562
484.93        53.51339
485.37        53.17478
485.81        53.34532
486.25        53.55495
486.69        55.70764
487.14        56.04174
487.58        54.62009
488.02        53.95164
488.46        53.47925
488.90        53.50529
489.34         53.0433
489.79        52.49239
490.23        53.05272
490.67        53.15691
491.11        53.18436
491.55        53.06089
491.99         52.8624
492.43        52.75877
492.88        52.76709
493.32         52.8064
493.76        52.79496
494.20        52.78411
494.64        52.79203
495.08        52.38116
495.52        52.28054
495.96        52.33414
496.41        52.63327
496.85        52.63306
497.29        52.31651
497.73        52.26095
498.17        52.19251
498.61        52.19786
499.05        52.15699
499.49        51.97152
499.93        51.75428
500.37        51.83521
500.82        52.16556
501.26        52.53031
501.70        52.74803
502.14         52.4917
502.58        51.84214
503.02        51.55152
503.46        51.61912
503.90        51.70494
504.34        51.73448
504.78        51.78946
505.22        51.84493
505.66        51.87697
506.10        51.90032
506.54        51.92146
506.98        51.93107
507.42        51.95028
507.86        52.00007
508.30        51.86424
508.74         51.8662
509.18        51.75322
509.62         51.6321
510.06         51.5445
510.50        51.48586
510.94        51.38083
511.38        51.24902
511.82        51.18314
512.26        51.18567
512.70        51.21533
513.14        51.23023
513.58        51.17934
514.02        51.05305
514.46        50.86479
514.90        50.66243
515.34        50.58073
515.78        50.64867
516.22        50.75898
516.66        50.71108
517.10        51.10413
517.54        50.81646
517.98        50.74417
518.42        50.61001
518.86         50.5203
519.30        50.49476
519.74         50.4804
520.18         50.4866
520.62        50.58103
521.06        50.71763
521.50        50.72013
521.93        50.59646
522.37        50.51803
522.81        50.49775
523.25        50.43383
523.69        50.33815
524.13        50.27802
524.57        50.26124
525.01        50.27367
525.45        50.30583
525.89        50.33967
526.32        50.36628
526.76        50.39302
527.20        50.42284
527.64        50.46317
528.08        50.51128
528.52        50.56093
528.96        50.59953
529.40        50.60321
529.83        50.56881
530.27        50.53307
530.71        50.49438
531.15        50.44809
531.59         50.4001
532.03        50.35404
532.46         50.3245
532.90        50.34539
533.34        50.41113
533.78        50.50772
534.22        50.59246
534.66        50.59951
535.09        50.51243
535.53        50.37437
535.97        50.21624
536.41        50.10108
536.85        50.05028
537.28        50.04674
537.72        50.08486
538.16        50.15428
538.60        50.24133
539.04        50.34515
539.47        50.43138
539.91        50.49047
540.35        50.50278
540.79         50.4727
541.22        50.41224
541.66        50.35747
542.10        50.31451
542.54        50.27571
542.97        50.23149
543.41        50.19003
543.85        50.14985
544.29         50.1299
544.72        50.11469
545.16        50.11319
545.60        50.11427
546.04         50.0778
546.47        50.05257
546.91        50.16851
547.35         50.3815
547.79        50.57783
548.22        50.67222
548.66        50.53326
549.10        50.25296
549.53        50.19272
549.97        50.34097
550.41        50.32965
550.84        50.15637
551.28        50.04733
551.72        50.02079
552.15          50.037
552.59        50.11788
553.03        50.07378
553.46        50.22567
553.90        50.26487
554.34        50.27905
554.77        50.24969
555.21        50.21651
555.65         50.2552
556.08        50.35158
556.52        50.42971
556.96        50.46009
557.39        50.50393
557.83        50.53944
558.27        50.42592
558.70        50.21716
559.14        50.09883
559.57        50.07957
560.01        50.16764
560.45        50.27384
560.88         50.1539
561.32        49.90521
561.75        49.79805
562.19        49.88042
562.63        50.02706
563.06        50.15804
563.50        50.12342
563.93        49.94001
564.37        49.83932
564.80        49.83992
565.24        49.91599
565.68        50.04636
566.11        50.14346
566.55        50.20569
566.98        50.35645
567.42        50.56516
567.85         50.5145
568.29        50.31674
568.72        50.39252
569.16        50.76191
569.60        50.88101
570.03        50.96198
570.47        51.08096
570.90        51.30832
571.34        51.29657
571.77         51.5391
572.21        51.62976
572.64        51.72433
573.08        51.32707
573.51        51.27618
573.95        51.63966
574.38        51.85757
574.82        52.20586
575.25        52.29256
575.69        51.93066
576.12        51.55355
576.56        51.76107
576.99        52.03361
577.42        52.25672
577.86        52.25447
578.29        52.68624
578.73        53.09657
579.16        52.50813
579.60        51.97668
580.03        51.99144
580.47        51.75379
580.90        52.17768
581.33        52.34042
581.77        52.70205
582.20        53.12074
582.64        53.30043
583.07        52.90898
583.51        52.33899
583.94        51.73334
584.37        51.54355
584.81        51.19188
585.24        51.41639
585.68        52.11134
586.11        52.30378
586.54        52.32575
586.98        52.06046
587.41         51.6814
587.85        51.81464
588.28        52.23153
588.71        52.16278
589.15        51.88887
589.58        51.35401
590.01        51.05845
590.45        51.01669
590.88        51.31038
591.31        51.08022
591.75        50.91035
592.18        50.69069
592.61        50.70623
593.05        51.11198
593.48        51.52114
593.91        51.98799
594.35        51.79776
594.78         51.7417
595.21        51.19101
595.65        51.18156
596.08        51.47382
596.51        51.55194
596.94        51.16272
597.38        50.99161
597.81        50.99032
598.24        51.17188
598.68        51.22684
599.11        50.90203
599.54        51.31927
599.97        51.49841
600.41        51.42737
600.84        51.57739
601.27        51.61531
601.70        51.47311
602.14        51.15762
602.57        51.00409
603.00        51.08792
603.43        51.15689
603.87        51.59164
604.30        51.49046
604.73          51.397
605.16          50.973
605.60         50.7901
606.03         50.9601
606.46        51.48273
606.89        51.29497
607.32        50.66887
607.76        51.15276
608.19        51.14577
608.62        51.01518
609.05        51.79529
609.48        51.05559
609.92        50.94471
610.35        50.84194
610.78        50.93195
611.21        51.16267
611.64        50.87683
612.07        50.86472
612.50        50.93326
612.94        50.93142
613.37        50.86844
613.80        50.77625
614.23        50.68797
614.66        50.65732
615.09        50.68679
615.52         50.7123
615.96        50.70956
616.39        50.69449
616.82        50.66519
617.25        50.54905
617.68         50.4779
618.11        50.35816
618.54         50.3871
618.97        50.29023
619.40        50.10763
619.84        50.26868
620.27        50.26795
620.70        50.28576
621.13         50.1785
621.56        50.14157
621.99        50.18604
622.42         50.1695
622.85        50.08776
623.28        50.04835
623.71        50.22098
624.14        50.08287
624.57        50.21551
625.00        50.44187
625.43        50.11666
625.86        50.12046
626.29        50.22728
626.72         50.0251
627.15        50.09226
627.58        50.01986
628.01        49.97454
628.44        50.03915
628.87        49.72741
629.30        50.05189
629.73        49.61608
630.16        49.87636
630.59        49.51509
631.02        49.77745
631.45        49.65186
631.88        49.72413
632.31        49.79329
632.74        49.62589
633.17        49.73576
633.60        49.67698
634.03        49.61024
634.46        49.57319
634.89        49.49976
635.32        49.47285
635.75        49.46763
636.18        49.48373
636.61        49.51538
637.04        49.55512
637.47        49.59698
637.89        49.64514
638.32        49.67469
638.75        49.66827
639.18        49.62384
639.61        49.54877
640.04         49.4649
640.47        49.40915
640.90        49.39105
641.33        49.39986
641.76        49.42303
642.18        49.44347
642.61        49.44258
643.04        49.43467
643.47        49.41826
643.90          49.395
644.33        49.36951
644.76        49.32698
645.18        49.28529
645.61        49.30424
646.04        49.37122
646.47        49.39812
646.90        49.38878
647.33        49.41653
647.75        49.47384
648.18        49.53883
648.61        49.60536
649.04        49.61438
649.47        49.54559
649.89        49.69122
650.32        49.53129
650.75        49.54744
651.18        49.56739
651.61        49.56073
652.03        49.50987
652.46        49.39367
652.89        49.32756
653.32        49.36925
653.74        49.44114
654.17        49.82175
654.60        49.51176
655.03         48.9008
655.46        49.18198
655.88        49.91607
656.31        51.81887
656.74        57.86188
657.16        56.93968
657.59        55.11621
658.02        51.74178
658.45        50.16542
658.87        49.88475
659.30        49.65952
659.73        49.79383
660.15        49.53499
660.58        49.42194
661.01        49.57048
661.44         49.9325
661.86        49.94423
662.29        49.60294
662.72        49.32737
663.14        49.22981
663.57        49.35188
664.00        49.61913
664.42        49.74152
664.85        49.69038
665.27        49.54648
665.70        49.51687
666.13         49.4779
666.55        49.49668
666.98        49.55408
667.41        49.61709
667.83        49.64207
668.26        49.62706
668.69        49.54672
669.11        49.42623
669.54        49.47818
669.96        49.75113
670.39        49.52853
670.82         49.9715
671.24         50.0228
671.67        50.02272
672.09        50.07257
672.52        50.16915
672.94         50.0924
673.37        49.87704
673.80        49.75889
674.22        49.76579
674.65        49.73866
675.07        49.69698
675.50        49.72921
675.92        49.81858
676.35         49.8713
676.77         49.8685
677.20        49.85883
677.62        49.88419
678.05        49.88271
678.47        49.83781
678.90        50.14919
679.32         50.1725
679.75        50.13503
680.17        50.27919
680.60        50.27865
681.02        50.26266
681.45        50.23026
681.87        50.19974
682.30         50.1386
682.72        50.08377
683.15        50.10566
683.57         50.1633
684.00        50.31049
684.42        50.10547
684.85        50.12058
685.27        50.21491
685.70        50.29332
686.12        50.31636
686.54        50.30489
686.97         50.2536
687.39        50.18442
687.82        50.12148
688.24        50.08163
688.66        50.06056
689.09        50.24399
689.51        50.24954
689.94        50.40754
690.36        50.57545
690.78        50.68772
691.21        50.73187
691.63        50.70284
692.06        50.64022
692.48        50.62527
692.90         50.6532
693.33        50.62973
693.75        50.56678
694.17         50.4969
694.60        50.42086
695.02        50.49336
695.44        50.48405
695.87        50.42683
696.29        50.32736
696.71         50.3554
697.14         50.5139
697.56         50.8125
697.98        51.15012
698.41        51.07529
698.83        51.07396
699.25        50.79502
699.68        50.48068
700.10        50.26759
700.52        50.20589
700.94        50.25202
701.37        50.34334
701.79         50.4227
702.21         50.4442
702.64        50.43832
703.06         50.4165
703.48        50.39644
703.90        50.39137
704.33        50.39345
704.75        50.40049
705.17        50.39614
705.59        50.37878
706.01         50.3501
706.44        50.35392
706.86        50.45216
707.28        50.63322
707.70        50.92558
708.12        51.23763
708.55        51.29059
708.97        51.11721
709.39        51.07327
709.81        51.16961
710.23        51.14511
710.66        51.00861
711.08        50.94606
711.50        50.95798
711.92        50.96876
712.34        50.97662
712.76        51.00278
713.19        51.04325
713.61        51.12545
714.03        51.22483
714.45         51.3379
714.87        51.44001
715.29        51.46362
715.71        51.39636
716.13         51.3903
716.56        51.22126
716.98        51.16748
717.40        51.16286
717.82        51.19704
718.24        51.25523
718.66        51.31448
719.08        51.36538
719.50         51.4133
719.92        51.44905
720.34        51.45604
720.76        51.43318
721.19        51.37595
721.61        51.31886
722.03        51.29638
722.45        51.31963
722.87        51.38307
723.29        51.46489
723.71        51.52605
724.13        51.55746
724.55        51.56886
724.97        51.58556
725.39        51.65075
725.81        51.76824
726.23        51.91258
726.65        52.04915
727.07        52.13348
727.49        52.15405
727.91        52.11224
728.33        52.02359
728.75        51.95818
729.17        51.91625
729.59        51.79935
730.01         51.6566
730.43        51.66025
730.85        51.82533
731.27        52.04312
731.69        52.26898
732.10        52.45407
732.52        52.70736
732.94        52.62848
733.36        52.34797
733.78        52.22142
734.20        52.29671
734.62        52.38533
735.04        52.43798
735.46        52.46584
735.88        52.45945
736.30         52.3996
736.72        52.30906
737.13        52.33561
737.55        52.42841
737.97        52.33859
738.39        52.12767
738.81        52.20011
739.23        52.51384
739.65        52.61388
740.06        52.45618
740.48        52.40279
740.90        52.42963
741.32          52.354
741.74        52.20878
742.16        52.14999
742.57        52.20792
742.99        52.32635
743.41        52.45794
743.83        52.50861
744.25         52.4557
744.67        52.32493
745.08        52.19181
745.50        52.14499
745.92        52.22063
746.34        52.39099
746.75        52.57183
747.17        52.62436
747.59        52.52099
748.01        52.27887
748.42        52.01361
748.84        51.93143
749.26        52.04474
749.68        52.25784
750.09        52.46764
750.51        52.44448
750.93        52.24518
751.35         52.2586
751.76        52.48407
752.18        52.58371
752.60        52.54891
753.01        52.60438
753.43        52.69994
753.85        52.68772
754.27        52.56112
754.68        52.37296
755.10        52.19509
755.52        52.11338
755.93        52.14744
756.35        52.27238
756.77        52.45847
757.18        52.59222
757.60        52.62523
758.02        52.72009
758.43        52.91188
758.85        52.57827
759.26        52.63168
759.68         52.8071
760.10        52.69831
760.51        52.46994
760.93        52.60026
761.34        52.61249
761.76        52.68535
762.18        52.85917
762.59         53.0215
763.01        52.98287
763.42        52.14411
763.84        52.18813
764.26        52.46523
764.67        52.98029
765.09        53.40094
765.50        53.56598
765.92        53.46248
766.33        53.19012
766.75        52.85639
767.16        52.64423
767.58        52.56137
768.00        52.73881
768.41        53.09556
768.83        52.98854
769.24        52.46902
769.66        52.89341
770.07        53.01108
770.49        53.15605
770.90        52.96909
771.32        52.82123
771.73        52.77261
772.15        52.75533
772.56        52.80334
772.97        52.93488
773.39        53.07714
773.80        53.15862
774.22        53.12852
774.63        53.02735
775.05        52.89189
775.46        52.82535
775.88         52.8351
776.29        52.91054
776.70        52.99119
777.12        52.99204
777.53        52.90794
777.95        52.76396
778.36        52.61432
778.77        52.53947
779.19        52.56431
779.60        52.67236
780.02        52.82038
780.43        52.97437
780.84        53.11816
781.26        53.18881
781.67        53.24026
782.09        53.44668
782.50        53.73463
782.91        53.80588
783.33        53.66314
783.74        53.62451
784.15        53.68182
784.57        53.67385
784.98        53.61087
785.39        53.55908
785.81        53.52661
786.22        53.50235
786.63        53.49218
787.04          53.506
787.46        53.55403
787.87        53.61082
788.28        53.68266
788.70        53.77047
789.11        53.84856
789.52        53.91799
789.93        53.96523
790.35        53.96082
790.76        53.91813
791.17        53.86145
791.58        53.79803
792.00         53.7345
792.41        53.71018
792.82        53.68775
793.23        53.74255
793.65        53.99598
794.06        54.41293
794.47        54.89117
794.88        55.34036
795.29        55.26894
795.71        55.48892
796.12        55.29043
796.53        54.98099
796.94        54.73727
797.35         54.6101
797.76        54.51066
798.18        54.41149
798.59        54.31624
799.00        54.21334
799.41        54.10899
799.82        54.02679
800.23        54.00687
800.64         54.0537
801.06        54.12724
801.47        54.23213
801.88        54.31569
802.29        54.36326
802.70        54.38467
803.11        54.38721
803.52        54.38461
803.93        54.38367
804.34        54.37932
804.75        54.38566
805.17        54.40738
805.58        54.46694
805.99        54.58055
806.40        54.72177
806.81        54.77076
807.22         54.7448
807.63        54.80949
808.04        54.96765
808.45        55.07647
808.86        55.12034
809.27        55.17881
809.68         55.2406
810.09        55.24047
810.50         55.1729
810.91        55.06789
811.32        54.92732
811.73        54.75098
812.14        54.55492
812.55        54.34755
812.96        54.18692
813.37        54.16781
813.78         54.3038
814.19        54.55872
814.60        54.84997
815.01        55.05195
815.42        55.13079
815.83        55.11574
816.24        55.04503
816.65        54.99688
817.05        55.00854
817.46        55.03412
817.87        55.08824
818.28         55.1589
818.69        55.24419
819.10        55.35881
819.51        55.49848
819.92        55.64556
820.33        55.78402
820.74         55.8945
821.14        55.97965
821.55        56.07374
821.96        56.16676
822.37        56.25357
822.78        56.28104
823.19        56.16018
823.60        55.88243
824.00        55.49519
824.41        55.08266
824.82        54.83294
825.23        54.79733
825.64        54.93479
826.04        55.16698
826.45         55.3264
826.86        55.37568
827.27        55.35686
827.68        55.31212
828.08        55.33569
828.49        55.38705
828.90        55.47777
829.31        55.60448
829.72        55.63894
830.12        55.56114
830.53        55.90929
830.94        55.71072
831.35        55.63808
831.75        55.42331
832.16        55.09031
832.57        54.79874
832.97         54.8186
833.38        55.19026
833.79        55.80986
834.20         56.4626
834.60        56.82812
835.01        56.83004
835.42        56.56175
835.82        56.18254
836.23        55.93654
836.64        55.92324
837.04        56.08009
837.45        56.29721
837.86         56.4481
838.26        56.49864
838.67        56.48629
839.08         56.4656
839.48         56.5013
839.89        56.60373
840.29        56.73595
840.70        56.86907
841.11         56.9553
841.51        56.99069
841.92        56.96411
842.33        56.89995
842.73        56.83355
843.14        56.74499
843.54         56.6633
843.95        56.58982
844.35        56.54322
844.76        56.52252
845.17        56.52304
845.57        56.57187
845.98         56.6792
846.38        56.86119
846.79         57.0868
847.19        57.31094
847.60        57.39223
848.00        57.33509
848.41         57.1451
848.81        56.95259
849.22         56.9296
849.62        57.14767
850.03        57.51228
850.43        57.92605
850.84        58.13659
851.24        58.12951
851.65        57.91787
852.05        57.64181
852.46        57.47779
852.86        57.48737
853.27        57.64943
853.67        57.80925
854.07        57.87453
854.48        57.79443
854.88        57.61747
855.29        57.40516
855.69        57.40113
856.10        57.57926
856.50        57.95061
856.90         58.2926
857.31        58.27961
857.71        57.89074
858.12        57.18483
858.52        56.41411
858.92        55.95893
859.33        55.92619
859.73        56.25555
860.13        56.75291
860.54        57.08433
860.94        57.19693
861.34        57.13676
861.75         56.9971
862.15        57.00609
862.55        57.17686
862.96        57.40531
863.36        57.58938
863.76        57.53245
864.17        57.19695
864.57        56.69627
864.97        56.12569
865.38        55.61818
865.78         55.2755
866.18        55.06979
866.58        55.07492
866.99        55.36871
867.39        55.94749
867.79        56.73819
868.19        57.53871
868.60        57.97488
869.00        58.06982
869.40        58.11702
869.80        58.09464
870.21         57.7407
870.61        57.13651
871.01        56.48094
871.41        55.87746
871.81        55.34529
872.22        54.94545
872.62        54.69266
873.02        54.62061
873.42        54.98864
873.82        55.53471
874.22        55.56289
874.63        55.32722
875.03        55.36702
875.43         55.7261
875.83        57.30929
876.23        56.73955
876.63        55.87259
877.03         54.3843
877.44        51.53638
877.84        186.7708
878.24        52.64581
878.64        54.00274
879.04        56.45539
879.44        57.61028
879.84        53.77534
880.24        59.53467
880.64        59.22435
881.04        55.63302
881.44        52.96943
881.84         52.1235
882.24         53.1466
882.65         55.0714
883.05        55.82641
883.45        55.00349
883.85        53.75951
884.25        52.71556
884.65        52.35508
885.05        52.85415
885.45        53.92191
885.85        55.08286
886.25        55.70471
886.65        55.64089
887.05        55.11685
887.45        54.38565
887.85        53.86158
888.25        53.70411
888.65        53.77842
889.04        54.03829
889.44        54.42213
889.84        54.85099
890.24        55.33038
890.64        55.75882
891.04        55.98277
891.44        55.97355
891.84        55.75894
892.24        55.40387
892.64        55.04204
893.04        54.74902
893.44        54.53601
893.83        54.42731
894.23        54.40481
894.63        54.48164
895.03        54.66544
895.43        54.98021
895.83        55.44617
896.23        56.01986
896.63        56.63303
897.02        57.16119
897.42        57.49419
897.82        57.58324
898.22         57.4585
898.62        57.17435
899.01        56.83726
899.41        56.48113
899.81        56.12029
900.21        55.76152
900.61        55.40215
901.00        55.04327
901.40        54.77928
901.80        54.67177
902.20         54.6187
902.59        54.58133
902.99         54.9076
903.39        55.65977
903.79        54.87341
904.18        55.80639
904.58        55.80797
904.98        55.78708
905.38        55.56648
905.77        55.14832
906.17        54.58434
906.57        53.98106
906.96        53.62831
907.36        53.60167
907.76        53.87154
908.15        54.31739
908.55        54.58612
908.95        54.63459
909.34         54.4882
909.74        54.38646
910.14        54.67389
910.53         55.3846
910.93        56.35554
911.33        57.20937
911.72        57.36483
912.12        56.72828
912.52        55.52339
912.91        54.14131
913.31        53.26864
913.70        53.07141
914.10         53.3747
914.49        53.95187
914.89        54.33529
915.29        54.39058
915.68        54.23145
916.08        54.02746
916.47        53.98474
916.87        54.18517
917.26        54.53704
917.66        54.87614
918.05        54.98215
918.45        54.79502
918.84         54.3998
919.24        54.01068
919.64        54.02607
920.03         54.5139
920.42        55.31253
920.82        56.10551
921.21        56.40464
921.61        56.13176
922.00        55.52848
922.40        54.92017
922.79         54.6549
923.19        54.37651
923.58        55.07231
923.98        57.10556
924.37        57.19765
924.77        53.54773
925.16        63.69135
925.55        55.90995
925.95        56.51846
926.34        56.50729
926.74        55.66371
927.13        53.97284
927.52        52.96257
927.92        53.26821
928.31        54.04804
928.70        55.07363
929.10        55.92903
929.49        56.50835
929.89        56.95863
930.28        57.16847
930.67        56.85291
931.07        56.04033
931.46        54.69426
931.85        53.29149
932.24        53.20919
932.64        54.66594
933.03        56.48836
933.42        57.60964
933.82        60.75412
934.21        58.93743
934.60        57.62305
934.99        56.26869
935.39        56.02447
935.78        56.89769
936.17        59.36897
936.56        67.21947
936.96        58.30138
937.35        62.93006
937.74        58.61518
938.13        55.44899
938.53         52.9322
938.92        52.04255
939.31        53.45996
939.70        55.54774
940.09        56.65485
940.49        56.40628
940.88        55.36487
941.27        54.09775
941.66        53.64227
942.05        54.33177
942.44        55.69248
942.84        57.09895
943.23        57.83515
943.62        57.70667
944.01        56.94486
944.40        56.01142
944.79        55.67004
945.18        56.11729
945.57        57.10245
945.97        58.08297
946.36         58.3303
946.75         57.6379
947.14        56.27042
947.53        54.74847
947.92        53.95951
948.31        54.15439
948.70        55.02733
949.09        56.12834
949.48        56.77129
949.87        56.76767
950.26        56.35134
950.65         55.7294
951.04        55.23091
951.43        54.98069
951.82        54.84206
952.21         54.8138
952.60        54.92027
952.99        55.12803
953.38        55.45526
953.77        55.77076
954.16        55.84985
954.55        55.67546
954.94        55.32537
955.33        54.95119
955.72         54.8526
956.11         55.1105
956.50         55.5842
956.89        56.21056
957.28        56.87854
957.66        57.54745
958.05        58.19812
958.44        58.63432
958.83        58.54703
959.22        57.90174
959.61        56.71538
960.00        55.44175
960.39        54.96903
960.78        55.52066
961.16        56.87386
961.55        58.22371
961.94        58.57539
962.33        57.76143
962.72        56.04155
963.11        54.07977
963.49        53.25313
963.88        54.00691
964.27        55.81444
964.66        57.85455
965.04        59.02436
965.43        59.01485
965.82        58.22486
966.21        57.01875
966.60        56.03696
966.98        55.54642
967.37         55.3413
967.76        55.34875
968.15        55.46951
968.53        55.65556
968.92        55.97067
969.31        56.33603
969.69        56.56522
970.08        56.58711
970.47        56.40125
970.86         56.1356
971.24        56.05141
971.63        56.19938
972.02        56.51802
972.40        56.84824
972.79         56.8498
973.17        56.52576
973.56        55.98676
973.95        55.47971
974.33        55.43206
974.72        55.94307
975.11         56.8278
975.49        57.89828
975.88        58.77626
976.26        59.39935
976.65        59.80706
977.04        59.98782
977.42        59.88809
977.81        59.49878
978.19        58.76023
978.58        58.15028
978.96        58.41324
979.35         59.6086
979.74        61.39048
980.12        63.10484
980.51        63.74047
980.89        63.29394
981.28        61.92998
981.66        60.05597
982.05        58.82215
982.43        58.68265
982.82        59.41751
983.20        60.53687
983.59        61.23681
983.97        61.34126
984.35        61.04663
984.74        60.59519
985.12        60.46678
985.51        60.74444
985.89        61.29211
986.28        61.80253
986.66        61.94813
987.04        61.72228
987.43        61.15158
987.81        60.16871
988.20          60.547
988.58        62.64325
988.96        62.89951
989.35        60.33594
989.73        68.03455
990.12        63.85778
990.50        64.71447
990.88        64.68378
991.27        64.49187
991.65        64.03513
992.03        63.51679
992.42        63.17062
992.80        62.68578
993.18        62.10012
993.56        61.55899
993.95        61.16014
994.33        60.98392
994.71        61.07341
995.10         61.3849
995.48        61.88188
995.86        62.49706
996.24        63.15537
996.63        63.73396
997.01        64.27412
997.39        64.66372
997.77        64.84863
998.15        64.83739
998.54        64.63948
998.92        64.15289
999.30        63.45211
999.68         62.6553
1000.06        61.90307
1000.45        61.43734
1000.83        61.47373
1001.21        61.90276
1001.59        62.83083
1001.97        64.37561
1002.35        66.32816
1002.73        68.45329
1003.12        70.23746
1003.50        71.11953
1003.88        71.02487
1004.26        70.10873
1004.64        68.71239
1005.02         67.6144
1005.40        67.15759
1005.78        67.17243
1006.16        67.43547
1006.54        67.48274
1006.92        67.18896
1007.30        66.82937
1007.69        66.42092
1008.07        66.03091
1008.45         65.6843
1008.83        65.30553
1009.21        65.22346
1009.59        66.10104
1009.97        67.86166
1010.35        69.96793
1010.73        71.81898
1011.11        73.12009
1011.49        74.00802
1011.86        74.25745
1012.24        73.60185
1012.62        75.13554
1013.00        75.58555
1013.38        74.80369
1013.76        71.28283
1014.14        75.61252
1014.52        82.86114
1014.90        73.19635
1015.28          74.791
1015.66        76.95444
1016.04        73.40066
1016.41         74.8119
1016.79        74.79969
1017.17        74.67636
1017.55        73.69656
1017.93        72.23059
1018.31        71.12261
1018.69        71.15684
1019.06        72.57786
1019.44        74.99873
1019.82         77.3334
1020.20        78.15885
1020.58        77.18699
1020.95        74.36813
1021.33        70.71976
1021.71        69.35751
1022.09        71.61638
1022.46         75.9123
1022.84        79.77117
1023.22        81.36893
1023.60        80.82076
1023.97        78.75278
1024.35        76.10155
1024.73         74.7777
