SpectraSmart Spectrum 2.9.0.0
--------- Device Information -----------
Spectrum Name :  反射率_0
Saving Time :  2024/04/21 00:49:59
Spectro-Module Model Name : SE2030-DUVN
Spectro-Module Serial Number : OS361AC55029948
Wavelength Start : 200
Wavelength End : 1025
Wavelength Unit : Wavelength(nm)
Spectrum Unit : Reflectance(%)
-----------Spectrum Setting ------------
Integration Time : 20ms
Average : 10
Boxcar : 0
Background removal :  enabled
linearity correction :  enabled
SC :  disabled
Intensity correction :  disabled
DWT denoise :  enabled
savitzky-golay :  disabled
FFT :  disabled
Running average :  disabled
Kalman :  disabled
High pass :  disabled
---------------BEGIN--------------------
Wavelength(nm)             Reflectance(%)
200.29               0
200.75       -7.754491
201.21        22.00339
201.67        35.73082
202.13        40.14129
202.58        39.33432
203.04        35.71295
203.50        29.10962
203.96        20.42578
204.42        11.62442
204.88        2.290788
205.34       -4.523748
205.80       -5.333947
206.26       0.9177661
206.72        17.56161
207.18         37.5788
207.64        40.93237
208.10        19.74374
208.55       -19.73163
209.01        -50.7802
209.47       -38.09465
209.93       -6.270592
210.39        21.27659
210.85        39.25962
211.31        46.82816
211.77        46.52184
212.23        39.85867
212.69        22.10233
213.14       -16.57294
213.60       -97.29933
214.06       -347.5499
214.52       -950.0266
214.98       -449.3535
215.44       -132.1212
215.90       -23.83938
216.36         12.3599
216.81        16.30725
217.27       -5.788557
217.73       -123.2421
218.19        1285.101
218.65        520.2098
219.11       -1082.359
219.57       -37.00924
220.02        28.34929
220.48        39.94864
220.94        33.97026
221.40        9.257514
221.86       -50.78391
222.32       -90.41489
222.77       -37.09598
223.23        9.718648
223.69        33.35369
224.15        41.28384
224.61        41.02213
225.06        37.05083
225.52        30.56911
225.98         22.8855
226.44        15.09566
226.90        5.499319
227.36       -1.306802
227.81        3.111374
228.27        14.69791
228.73        27.23834
229.19        35.30288
229.65        35.96354
230.10        30.19356
230.56        19.40467
231.02         5.61888
231.48       -2.752431
231.93      -0.3312322
232.39        9.192558
232.85         19.2184
233.31        24.38605
233.77        24.99449
234.22        23.28485
234.68        20.23541
235.14        17.61106
235.60        16.54735
236.05        15.63049
236.51        14.60814
236.97        19.43172
237.43        30.17971
237.88        36.24608
238.34        33.35145
238.80        56.38157
239.26        44.47799
239.71        42.35505
240.17        33.59116
240.63         24.0538
241.08        17.42874
241.54        17.50836
242.00        24.92903
242.46         28.0267
242.91        23.48719
243.37        12.14721
243.83       -2.733398
244.28       -8.068602
244.74        2.618001
245.20        20.72377
245.66         36.8167
246.11         42.4769
246.57        37.14156
247.03         23.9596
247.48         5.15232
247.94        -16.0223
248.40       -42.70693
248.85       -99.28055
249.31       -258.2431
249.77       -355.9732
250.22       -103.0585
250.68       -5.715072
251.14        25.27988
251.59        36.66611
252.05        41.83044
252.51         44.3901
252.96        43.18356
253.42        36.50271
253.88        26.18669
254.33        16.42271
254.79        13.87742
255.25        20.15635
255.70        29.85768
256.16        38.92119
256.62        45.62232
257.07        49.19414
257.53        50.79526
257.99        51.28982
258.44        50.83613
258.90        50.12091
259.35        48.93655
259.81        47.67629
260.27          46.437
260.72        45.43671
261.18        44.89507
261.63        44.45121
262.09        44.02337
262.55         43.2043
263.00        41.95745
263.46        40.60041
263.91        39.22411
264.37        38.29755
264.83        37.77155
265.28        37.44877
265.74        37.20753
266.19        36.73613
266.65        36.03845
267.11        35.18578
267.56        34.23674
268.02        33.35698
268.47        32.55227
268.93        31.79467
269.38         31.0643
269.84        30.39222
270.30        29.76001
270.75        29.17108
271.21        28.58802
271.66        27.88731
272.12         27.0854
272.57        26.21241
273.03        25.38034
273.48        24.72526
273.94        24.28468
274.39        23.98338
274.85        23.76024
275.31        23.46403
275.76        23.05758
276.22        22.61968
276.67        22.18888
277.13        21.87928
277.58         21.6746
278.04        21.54051
278.49        21.41028
278.95        21.25618
279.40        21.02985
279.86        20.77623
280.31        20.45709
280.77        20.08354
281.22        19.64682
281.68        19.20697
282.13        18.78113
282.59        18.45784
283.04        18.23005
283.50        18.08295
283.95         18.0115
284.41        18.02234
284.86        18.09644
285.32        18.24399
285.77        18.38129
286.22        18.39219
286.68        18.29177
287.13        18.09053
287.59        17.95891
288.04        18.05572
288.50        18.36944
288.95        18.95694
289.41        19.70474
289.86        19.94329
290.32        19.54841
290.77        20.60154
291.22        19.76726
291.68         19.9088
292.13        20.07241
292.59        20.32787
293.04         20.6901
293.50         21.2582
293.95         22.0591
294.40        23.04457
294.86        24.14327
295.31        25.22181
295.77        26.24254
296.22         27.2304
296.68        28.23212
297.13        29.32007
297.58        30.52893
298.04        31.83161
298.49        33.22396
298.95        34.72009
299.40        36.28727
299.85        37.92131
300.31         39.5565
300.76        41.07328
301.21         42.4609
301.67        43.77456
302.12        45.07937
302.58         46.5677
303.03        48.25185
303.48        50.12215
303.94        52.09468
304.39        53.99171
304.84        55.77098
305.30        57.48069
305.75        59.15638
306.20        60.95163
306.66        62.87195
307.11        64.80323
307.57        66.64876
308.02        68.20897
308.47        69.47436
308.93        70.56493
309.38        71.53361
309.83        72.49003
310.29        73.57702
310.74        74.65682
311.19        75.77085
311.65        76.92436
312.10        78.08542
312.55        79.26189
313.00        80.36795
313.46         81.2654
313.91        81.91795
314.36        82.37073
314.82        82.74698
315.27        83.24381
315.72        83.91245
316.18        84.69697
316.63        85.49123
317.08        86.12328
317.53        86.54419
317.99        86.80884
318.44        86.99413
318.89        87.20695
319.35        87.48451
319.80        87.80113
320.25         88.1257
320.70        88.41589
321.16        88.64999
321.61        88.85944
322.06        89.06458
322.51        89.30051
322.97        89.55938
323.42        89.85328
323.87        90.13113
324.32         90.3291
324.78        90.41781
325.23        90.45303
325.68        90.46874
326.13        90.54715
326.59        90.69008
327.04        90.91988
327.49         91.1861
327.94        91.43168
328.39        91.63919
328.85        91.80648
329.30        91.99567
329.75        92.19473
330.20        92.41099
330.66        92.60179
331.11        92.84496
331.56        93.15595
332.01        93.53838
332.46        93.98354
332.92        94.39244
333.37        94.72118
333.82        94.90934
334.27        94.98863
334.72        95.04846
335.17        95.24145
335.63        95.58259
336.08        96.08087
336.53        96.63573
336.98        97.11789
337.43        97.48193
337.88        97.76041
338.34        97.97237
338.79        98.20213
339.24        98.45216
339.69        98.69787
340.14        98.92767
340.59        99.13095
341.05         99.3127
341.50        99.50079
341.95        99.70342
342.40        99.93008
342.85        100.1888
343.30        100.4748
343.75        100.7953
344.20        101.1681
344.66        101.5879
345.11        102.0119
345.56        102.4046
346.01          102.71
346.46        102.9121
346.91        103.0303
347.36        103.0579
347.81        102.9993
348.26        102.8752
348.72        102.6734
349.17        102.5013
349.62        102.4421
350.07        102.5272
350.52        102.7148
350.97         102.901
351.42        102.9111
351.87        102.7002
352.32         102.325
352.77        101.8646
353.22        101.4397
353.67        101.0908
354.13        100.8002
354.58         100.523
355.03        100.2409
355.48        99.94272
355.93          99.638
356.38        99.33478
356.83        99.03801
357.28        98.73409
357.73        98.40275
358.18        98.00447
358.63        97.48856
359.08        96.85449
359.53        96.13187
359.98        95.36512
360.43        94.61637
360.88        93.90441
361.33        93.21473
361.78        92.54865
362.23          91.904
362.68        91.27997
363.13        90.68872
363.58        90.09624
364.03        89.44551
364.48        88.72441
364.93        87.93574
365.38        87.14768
365.83        86.47639
366.28        85.93894
366.73        85.49812
367.18        85.04577
367.63          84.411
368.08        83.56587
368.53        82.57637
368.98        81.55756
369.43        80.67658
369.88        79.97326
370.33        79.39724
370.78        78.88042
371.23        78.31748
371.68        77.68454
372.13        77.02647
372.58        76.39698
373.03        75.86204
373.48        75.43218
373.93        75.07809
374.38        74.75052
374.83        74.38381
375.28        73.96115
375.72        73.48367
376.17        73.01735
376.62        72.60595
377.07        72.24452
377.52        71.90273
377.97        71.51958
378.42        71.01216
378.87        70.38448
379.32        69.69088
379.77         69.0029
380.22        68.40334
380.67        67.90054
381.11        67.46585
381.56        67.06843
382.01        66.67316
382.46        66.27713
382.91        65.90646
383.36        65.54707
383.81        65.17201
384.26        64.77738
384.71         64.3585
385.15        63.95279
385.60        63.68168
386.05        63.53079
386.50        63.46257
386.95        63.37828
387.40        63.12875
387.85        62.69999
388.29        62.12326
388.74        61.57571
389.19        61.13802
389.64        60.82855
390.09        60.60173
390.54        60.42748
390.98        60.24811
391.43        60.07975
391.88         59.9327
392.33        59.79583
392.78        59.65701
393.23        59.51619
393.67        59.31661
394.12        59.14731
394.57        59.05943
395.02        59.02287
395.47        58.88979
395.91        58.67633
396.36        58.50429
396.81        58.40196
397.26         58.3275
397.71        58.22369
398.15        58.04541
398.60        57.85481
399.05        57.48556
399.50        57.09555
399.95         57.1672
400.39        57.57149
400.84         57.6559
401.29        57.35475
401.74        56.84308
402.18        56.31468
402.63        56.24831
403.08        56.55621
403.53         56.5145
403.97        56.08508
404.42        55.76297
404.87        55.60639
405.32        55.49884
405.76        55.44049
406.21        55.44244
406.66        55.46608
407.11        55.47773
407.55         55.4356
408.00        55.30498
408.45        55.11351
408.90        54.73042
409.34          54.322
409.79        54.45919
410.24        54.98608
410.68        55.16248
411.13        54.93249
411.58        54.69572
412.03        54.53926
412.47        54.44631
412.92        54.43496
413.37        54.51805
413.81        54.62435
414.26        54.69302
414.71        54.69117
415.15         54.6468
415.60        54.57853
416.05        54.56722
416.49        54.62966
416.94        54.72453
417.39        54.80349
417.83        54.79076
418.28        54.67488
418.73        54.48404
419.17        54.26607
419.62         54.1098
420.07        54.04488
420.51        54.04436
420.96        54.10112
421.41        54.17471
421.85        54.22762
422.30         54.2647
422.74        54.27949
423.19         54.4312
423.64        54.67411
424.08        54.82283
424.53        54.80757
424.98        54.82487
425.42        54.89622
425.87        54.81316
426.31        54.66981
426.76        54.83701
427.21        55.26084
427.65        55.50291
428.10        55.48318
428.54        55.48527
428.99        55.53625
429.44        55.47525
429.88        55.32359
430.33        55.23261
430.77        55.19939
431.22        55.33228
431.66        55.58223
432.11        55.82055
432.56        55.99191
433.00        56.02571
433.45        55.82424
433.89        55.58658
434.34        55.45402
434.78        55.09154
435.23          55.353
435.67        55.49826
436.12        56.15927
436.57        56.15415
437.01        55.80235
437.46         55.5233
437.90        55.91772
438.35        56.47036
438.79        56.40429
439.24         56.5808
439.68        56.73853
440.13        56.81227
440.57          56.799
441.02        56.93008
441.46        57.14191
441.91        57.00655
442.35        56.64167
442.80        56.85571
443.24        57.50404
443.69        57.77175
444.13        57.58343
444.58        57.43069
445.02        57.36817
445.47        57.41247
445.91        57.52737
446.36        57.56669
446.80        57.52066
447.24        57.47428
447.69        57.47357
448.13        57.68105
448.58        57.88331
449.02          57.932
449.47        57.79538
449.91        57.73452
450.36        57.77761
450.80          57.703
451.25        57.55313
451.69        57.54023
452.13        57.62825
452.58        57.51744
453.02        57.25192
453.47        57.15418
453.91        57.23278
454.36        57.33784
454.80        57.39337
455.24        57.35773
455.69        57.23046
456.13        56.95868
456.58        56.68819
457.02        56.58645
457.46        56.85331
457.91        56.82196
458.35        56.65015
458.79        56.53688
459.24        56.52866
459.68        56.42072
460.13        56.27353
460.57        56.14008
461.01         56.0395
461.46        55.96998
461.90        56.18859
462.34        55.76068
462.79        55.97579
463.23        55.96745
463.68        56.06094
464.12        55.89928
464.56        55.58445
465.01        55.80875
465.45        56.34118
465.89        56.35927
466.34        55.94434
466.78        55.79143
467.22        55.88805
467.67        55.94361
468.11        55.32148
468.55        55.25652
468.99        55.50779
469.44        55.57491
469.88        55.42973
470.32        55.32921
470.77        55.30537
471.21        55.27752
471.65        55.24928
472.10        55.24104
472.54        55.21553
472.98         55.1457
473.42        55.03794
473.87         54.8866
474.31        54.71516
474.75        54.72628
475.20        54.87203
475.64        54.88647
476.08         54.7878
476.52        54.79527
476.97        54.89355
477.41         55.0925
477.85        55.13068
478.29         55.0612
478.74        54.59851
479.18        54.41171
479.62        54.68832
480.06        54.75626
480.50        54.74514
480.95        54.69233
481.39        54.50723
481.83        55.19477
482.27        55.30012
482.72        54.91517
483.16        55.25057
483.60         55.5326
484.04        55.52608
484.48        55.11797
484.93        54.81803
485.37        54.89078
485.81        54.89077
486.25        54.59607
486.69        55.35031
487.14        55.03216
487.58        54.65963
488.02        54.79721
488.46        54.74171
488.90        54.53011
489.34        54.77419
489.79        54.41027
490.23        54.92269
490.67        54.88007
491.11        54.71113
491.55        54.67254
491.99        54.77378
492.43        54.80308
492.88        54.74321
493.32        54.73185
493.76        54.72491
494.20        54.71749
494.64         54.7326
495.08        54.39241
495.52         54.3685
495.96        54.38743
496.41        54.55349
496.85         54.5727
497.29        54.42663
497.73        54.39485
498.17        54.24908
498.61        54.53975
499.05        55.01329
499.49        54.91708
499.93        54.37985
500.37        54.20916
500.82        54.42666
501.26        54.69951
501.70        54.88298
502.14        54.48456
502.58        54.08585
503.02        53.75984
503.46         53.9732
503.90         54.1142
504.34          54.184
504.78        54.22757
505.22         54.2374
505.66        54.12536
506.10        53.93341
506.54        53.94029
506.98        54.20538
507.42        53.78957
507.86        54.44961
508.30         54.1685
508.74        54.36817
509.18        54.27822
509.62         54.2075
510.06        54.18613
510.50        54.19898
510.94        54.17598
511.38        54.10134
511.82        54.03992
512.26        53.99131
512.70        53.92127
513.14        53.84513
513.58        53.80314
514.02        53.79936
514.46        53.81994
514.90         53.8291
515.34        53.81843
515.78        53.78922
516.22        53.69719
516.66        53.42629
517.10        53.69012
517.54        53.46034
517.98        53.54032
518.42        53.61666
518.86        53.70696
519.30        53.79839
519.74        53.86229
520.18         53.9125
520.62        54.03144
521.06        54.17688
521.50        54.14691
521.93        53.97341
522.37        53.88354
522.81        53.89827
523.25        53.90324
523.69        53.86937
524.13        53.79925
524.57        53.69137
525.01        53.55416
525.45        53.43414
525.89        53.40197
526.32        53.46793
526.76        53.61108
527.20        53.77942
527.64        53.89202
528.08        53.92454
528.52        53.90033
528.96        53.84708
529.40        53.80421
529.83        53.78169
530.27         53.7881
530.71        53.80051
531.15        53.78194
531.59         53.7287
532.03        53.66673
532.46        53.60112
532.90        53.54788
533.34        53.51048
533.78        53.48318
534.22        53.47746
534.66        53.51192
535.09        53.57519
535.53        53.67435
535.97        53.76519
536.41        53.79383
536.85        53.74958
537.28        53.64834
537.72        53.52644
538.16        53.44609
538.60        53.42415
539.04        53.44431
539.47        53.46896
539.91        53.48482
540.35        53.46991
540.79        53.43591
541.22        53.38725
541.66         53.3723
542.10        53.40005
542.54        53.40211
542.97        53.34884
543.41        53.52305
543.85        53.43819
544.29        53.48936
544.72        53.52687
545.16        53.58432
545.60         53.6424
546.04        53.67231
546.47        53.69813
546.91        53.75959
547.35        53.82915
547.79        53.91157
548.22        53.93429
548.66        53.69989
549.10        53.31845
549.53        53.21684
549.97        53.40047
550.41        53.48026
550.84        53.43978
551.28        53.51778
551.72        53.68297
552.15        53.77585
552.59        53.79343
553.03        53.70988
553.46        53.65094
553.90        53.55827
554.34        53.47383
554.77        53.38454
555.21        53.32978
555.65        53.35909
556.08        53.46685
556.52        53.63754
556.96        53.81484
557.39        53.95369
557.83        54.02857
558.27        53.96742
558.70        53.81456
559.14        53.71712
559.57        53.69022
560.01        53.72357
560.45        53.74924
560.88        53.67092
561.32        53.54541
561.75         53.3516
562.19        53.20288
562.63        53.37886
563.06        53.76638
563.50        53.80585
563.93        53.51744
564.37        53.44068
564.80        53.57494
565.24        53.67736
565.68        53.71896
566.11        53.73958
566.55        53.74639
566.98        53.76853
567.42        53.82764
567.85        53.73338
568.29        53.70815
568.72        53.72753
569.16        53.85704
569.60        53.84844
570.03        53.86921
570.47        53.85006
570.90        53.80913
571.34        53.85354
571.77        54.04344
572.21        53.90765
572.64        53.84827
573.08         53.9287
573.51        54.03529
573.95        54.34891
574.38        54.00798
574.82        54.23236
575.25        54.29155
575.69        54.46086
576.12        53.79403
576.56        54.33279
576.99        54.55814
577.42        54.35196
577.86        54.16512
578.29        54.55558
578.73        54.86507
579.16         54.0147
579.60        54.01432
580.03        54.36103
580.47        54.31192
580.90        54.17902
581.33        54.38755
581.77        54.20798
582.20        54.64129
582.64         54.4269
583.07        54.22687
583.51        53.98173
583.94        53.98232
584.37        53.99089
584.81        53.85298
585.24        53.82957
585.68        54.23305
586.11        54.13757
586.54        54.22513
586.98        54.36205
587.41        54.15896
587.85        54.30161
588.28        54.18369
588.71        54.19076
589.15        54.00724
589.58        54.08885
590.01        53.94244
590.45        53.95436
590.88        53.88919
591.31        53.57087
591.75         53.6262
592.18        53.70998
592.61        53.84608
593.05        54.62428
593.48        54.21947
593.91         54.2267
594.35        54.07713
594.78        54.07973
595.21         53.9504
595.65        53.96963
596.08         54.0194
596.51        54.26125
596.94        54.18589
597.38        54.20159
597.81        54.16923
598.24        54.37024
598.68        53.98499
599.11        54.15916
599.54         54.1867
599.97         53.9613
600.41        54.02044
600.84        54.22786
601.27        54.10503
601.70        54.13057
602.14        53.90196
602.57        53.89356
603.00        53.98724
603.43        54.32496
603.87        54.35292
604.30        54.31494
604.73        54.25476
605.16        54.08597
605.60        54.54414
606.03        54.45354
606.46         54.1201
606.89        53.96373
607.32        53.93145
607.76        54.51958
608.19        54.40904
608.62        54.19202
609.05        55.11554
609.48         54.5381
609.92        54.47641
610.35        54.18235
610.78        54.52596
611.21        54.08241
611.64        54.24478
612.07        54.16837
612.50        54.20547
612.94        54.35462
613.37         54.1941
613.80          54.436
614.23        54.33649
614.66        54.30566
615.09        54.23301
615.52        54.15079
615.96        54.11892
616.39        54.08408
616.82        54.05426
617.25        54.31572
617.68        54.44818
618.11        54.43554
618.54        54.33902
618.97        54.20718
619.40        54.08103
619.84        54.12392
620.27        53.87503
620.70        53.89357
621.13        54.00544
621.56         54.1857
621.99        54.37322
622.42        54.34789
622.85        54.11147
623.28        54.11285
623.71        54.11676
624.14        54.20452
624.57        53.93371
625.00        54.52485
625.43        53.94071
625.86        54.07207
626.29          54.362
626.72        54.01087
627.15        54.21906
627.58        54.10892
628.01         54.0786
628.44        54.08073
628.87        53.83799
629.30        54.17599
629.73        53.93901
630.16        53.98124
630.59        53.76343
631.02        53.98875
631.45        53.81592
631.88        53.85693
632.31        53.89812
632.74        53.78037
633.17        53.87104
633.60        53.82441
634.03        53.75797
634.46         53.7158
634.89        53.64003
635.32        53.64481
635.75         53.7061
636.18        53.81442
636.61        53.92883
637.04        53.98623
637.47        53.97221
637.89        53.90961
638.32        53.82223
638.75        53.77396
639.18        53.78088
639.61         53.8236
640.04        53.87839
640.47        53.90733
640.90        53.89911
641.33        53.86875
641.76        53.82851
642.18        53.80161
642.61        53.78511
643.04        53.78062
643.47        53.78787
643.90        53.81214
644.33        53.85224
644.76        53.89038
645.18        53.92837
645.61        53.99625
646.04        54.07425
646.47          54.086
646.90        54.03738
647.33        54.00303
647.75        53.98389
648.18        53.96577
648.61        53.95835
649.04        53.92868
649.47        53.86664
649.89          54.055
650.32        53.91462
650.75        54.04105
651.18        54.20278
651.61        54.13253
652.03        53.89293
652.46        53.80313
652.89        53.88351
653.32        53.95684
653.74         54.0401
654.17        53.76072
654.60         54.0962
655.03        53.89732
655.46        53.90313
655.88        54.33461
656.31        54.90633
656.74        57.02992
657.16        55.54266
657.59        54.19446
658.02        53.89657
658.45        54.14659
658.87        54.28447
659.30         53.9815
659.73         53.6083
660.15        53.86953
660.58        53.99905
661.01        54.44964
661.44        54.76401
661.86        54.56538
662.29        53.97011
662.72        53.68224
663.14        53.79161
663.57        53.88237
664.00        53.89732
664.42        53.93037
664.85         53.9712
665.27        53.90142
665.70        53.91826
666.13        53.92327
666.55        53.97916
666.98        54.06066
667.41        54.14148
667.83        54.18569
668.26        54.19239
668.69        54.12785
669.11        54.00883
669.54        54.05306
669.96        54.31435
670.39        54.00858
670.82        54.40579
671.24        54.40669
671.67        54.37341
672.09        54.29575
672.52        54.22127
672.94        54.14066
673.37        54.06636
673.80        54.02008
674.22        54.00338
674.65        53.96446
675.07        53.91961
675.50        53.88631
675.92        53.87452
676.35        53.87635
676.77         53.8889
677.20        53.92541
677.62        54.01473
678.05        54.11024
678.47        54.18964
678.90        54.57024
679.32         54.6172
679.75         54.7166
680.17        54.68208
680.60        54.55625
681.02        54.39047
681.45        54.28345
681.87        54.27124
682.30        54.29272
682.72        54.34449
683.15        54.42847
683.57         54.4812
684.00        54.54596
684.42        54.24088
684.85        54.15267
685.27         54.1688
685.70        54.17563
686.12        54.15237
686.54        54.15624
686.97        54.17979
687.39        54.23371
687.82        54.30357
688.24        54.33647
688.66        54.30692
689.09        54.44025
689.51        54.34412
689.94        54.41093
690.36        54.50838
690.78        54.57305
691.21        54.59801
691.63        54.57745
692.06        54.55111
692.48        54.61045
692.90        54.73241
693.33        54.78006
693.75        54.75508
694.17        54.69564
694.60         54.6055
695.02        54.67085
695.44        54.65023
695.87        54.55119
696.29        54.38101
696.71        54.40693
697.14        54.61156
697.56        54.83058
697.98        54.99307
698.41        54.97275
698.83        55.00528
699.25        54.85524
699.68        54.65361
700.10        54.52589
700.52        54.50496
700.94        54.55457
701.37        54.62911
701.79        54.69688
702.21        54.72267
702.64        54.73045
703.06        54.73089
703.48        54.74354
703.90        54.77664
704.33        54.81545
704.75        54.85486
705.17        54.87159
705.59        54.86341
706.01        54.83852
706.44        54.81826
706.86        54.85174
707.28        54.93415
707.70        55.04688
708.12        55.16716
708.55        55.25168
708.97        55.28298
709.39        55.28463
709.81        55.25593
710.23        55.20173
710.66        55.13311
711.08        55.05741
711.50        54.99198
711.92        54.97794
712.34        55.02171
712.76         55.1144
713.19        55.21124
713.61        55.27501
714.03        55.27179
714.45         55.2306
714.87        55.19021
715.29          55.174
715.71        55.18709
716.13        55.35858
716.56        55.39001
716.98        55.48289
717.40        55.53026
717.82        55.54719
718.24        55.53831
718.66        55.51548
719.08        55.48899
719.50        55.45639
719.92         55.4213
720.34        55.38884
720.76        55.36184
721.19        55.33336
721.61        55.32821
722.03        55.35728
722.45         55.4215
722.87        55.51793
723.29        55.61858
723.71        55.67765
724.13        55.68578
724.55        55.65206
724.97        55.61584
725.39        55.64503
725.81        55.75086
726.23        55.90566
726.65         56.0602
727.07        56.14353
727.49        56.13891
727.91        56.05669
728.33        55.93114
728.75        55.85901
729.17        55.84578
729.59        55.78892
730.01        55.71048
730.43        55.72337
730.85        55.83306
731.27        55.97164
731.69        56.10815
732.10        56.18008
732.52         56.3271
732.94        56.16655
733.36        55.83237
733.78        55.65786
734.20        55.69112
734.62        55.75764
735.04        55.81797
735.46        55.88025
735.88        55.93025
736.30        55.97769
736.72        56.01572
737.13        56.06313
737.55        56.09315
737.97        56.05164
738.39         55.9864
738.81        56.12907
739.23         56.4259
739.65        56.50319
740.06        56.33585
740.48         56.2929
740.90        56.35457
741.32        56.32826
741.74        56.23879
742.16        56.23564
742.57        56.34279
742.99        56.50285
743.41        56.66397
743.83        56.72499
744.25        56.66761
744.67        56.52472
745.08        56.38919
745.50        56.37632
745.92         56.5279
746.34        56.80083
746.75        57.10308
747.17        57.28432
747.59        57.30442
748.01        57.17554
748.42        56.98377
748.84        56.89536
749.26        56.91682
749.68        56.95608
750.09        56.96009
750.51        56.79807
750.93        56.54802
751.35        56.55875
751.76        56.80518
752.18        56.92193
752.60        56.88634
753.01        56.93246
753.43        57.02523
753.85        57.00917
754.27        56.86897
754.68        56.71407
755.10        56.63877
755.52         56.3725
755.93        56.57064
756.35        56.71248
756.77        56.91488
757.18        57.00554
757.60        56.94349
758.02        56.82404
758.43        56.77984
758.85        56.52742
759.26        56.97171
759.68        57.28562
760.10        56.98796
760.51        56.83387
760.93        56.90348
761.34        57.01479
761.76        57.20374
762.18        57.36596
762.59        57.42328
763.01        57.50362
763.42        56.90833
763.84        57.01872
764.26         57.1923
764.67        57.55078
765.09        57.84991
765.50        57.98741
765.92        57.96504
766.33         57.8288
766.75        57.63543
767.16        57.53189
767.58        57.49691
768.00         57.6218
768.41        57.87295
768.83        57.78352
769.24        57.39091
769.66        57.80785
770.07        57.89293
770.49        57.96332
770.90        57.71721
771.32        57.55494
771.73        57.53204
772.15        57.51306
772.56        57.52899
772.97        57.64634
773.39        57.80412
773.80         57.9231
774.22        57.95083
774.63        57.93537
775.05        57.88257
775.46        57.84827
775.88        57.83077
776.29        57.83224
776.70        57.83749
777.12        57.83874
777.53        57.84903
777.95         57.8684
778.36        57.89232
778.77        57.90678
779.19         57.9091
779.60        57.90367
780.02        57.90279
780.43        57.95742
780.84        58.07235
781.26        58.18008
781.67        58.27427
782.09        58.37749
782.50        58.43014
782.91        58.27715
783.33        57.97128
783.74        57.85424
784.15         57.9418
784.57        58.08217
784.98        58.23808
785.39        58.37794
785.81        58.47482
786.22        58.53563
786.63        58.56788
787.04        58.58599
787.46        58.60944
787.87        58.61278
788.28        58.61018
788.70        58.61932
789.11        58.62408
789.52        58.62621
789.93         58.6375
790.35        58.66636
790.76        58.72771
791.17        58.82483
791.58         58.9101
792.00        58.92256
792.41        58.88548
792.82        58.71338
793.23        58.52648
793.65        58.69104
794.06        59.12453
794.47        59.34301
794.88        59.37326
795.29        59.16825
795.71        59.62288
796.12        59.71321
796.53        59.66829
796.94        59.68576
797.35         59.7205
797.76        59.46945
798.18        59.02275
798.59        58.79601
799.00        58.83846
799.41        58.97068
799.82        59.12222
800.23        59.24236
800.64        59.29291
801.06        59.26859
801.47        59.23602
801.88         59.2321
802.29        59.27565
802.70        59.35566
803.11        59.44261
803.52        59.48937
803.93        59.48199
804.34        59.43015
804.75        59.39452
805.17        59.43999
805.58        59.59674
805.99        59.88968
806.40        60.20945
806.81        60.21507
807.22        59.94271
807.63        59.79823
808.04        59.83647
808.45        59.83503
808.86        59.80466
809.27        59.90673
809.68        60.10253
810.09        60.22017
810.50        60.22806
810.91        60.18715
811.32        60.09902
811.73        59.96318
812.14        59.79689
812.55        59.59406
812.96        59.42389
813.37        59.41024
813.78        59.56928
814.19        59.85652
814.60        60.16407
815.01        60.32429
815.42         60.2952
815.83        60.12083
816.24        59.86761
816.65        59.66902
817.05        59.59055
817.46        59.57844
817.87        59.63336
818.28        59.71563
818.69        59.80901
819.10        59.92624
819.51        60.07295
819.92        60.24738
820.33        60.43238
820.74        60.60538
821.14        60.72507
821.55        60.75804
821.96         60.6929
822.37        60.55197
822.78        60.37064
823.19         60.2155
823.60         60.1132
824.00        60.05316
824.41        60.02396
824.82        60.05583
825.23        60.13845
825.64        60.27491
826.04        60.39541
826.45        60.34811
826.86        60.12654
827.27        59.77534
827.68        59.42316
828.08        59.32083
828.49        59.46822
828.90         59.8399
829.31        60.33546
829.72        60.67701
830.12        60.78998
830.53        61.16432
830.94        60.97383
831.35         60.8668
831.75         60.6371
832.16        60.29421
832.57        59.95461
832.97        59.82188
833.38        59.93874
833.79        60.23481
834.20        60.62961
834.60        60.99272
835.01        61.27161
835.42        61.50652
835.82        61.65744
836.23        61.61898
836.64        61.40527
837.04        61.04952
837.45         60.6752
837.86        60.54823
838.26        60.72782
838.67        61.12136
839.08        61.57883
839.48        61.83232
839.89        61.80264
840.29        61.57911
840.70        61.25597
841.11        60.98595
841.51         60.8443
841.92         60.7485
842.33        60.72027
842.73        60.79531
843.14        60.92378
843.54        61.13805
843.95        61.34798
844.35         61.4189
844.76        61.31466
845.17        61.06315
845.57        60.78581
845.98        60.65977
846.38        60.75528
846.79        61.00338
847.19        61.30386
847.60        61.41448
848.00        61.31594
848.41        61.05306
848.81        60.79876
849.22        60.78595
849.62        61.09838
850.03         61.5947
850.43        62.14721
850.84        62.46725
851.24        62.51946
851.65        62.32075
852.05        61.97908
852.46          61.612
852.86        61.30085
853.27        61.07727
853.67        60.86884
854.07        60.68821
854.48        60.50403
854.88        60.34269
855.29        60.24123
855.69        60.39854
856.10        60.75196
856.50         61.3117
856.90        61.83124
857.31        61.95261
857.71        61.64501
858.12        60.96138
858.52        60.14808
858.92        59.58337
859.33        59.38774
859.73        59.51374
860.13        59.82768
860.54        60.08996
860.94        60.26975
861.34        60.39204
861.75        60.47639
862.15        60.62172
862.55         60.8051
862.96        60.96014
863.36        61.04242
863.76          60.952
864.17         60.6796
864.57        60.30433
864.97          59.896
865.38        59.54891
865.78        59.34634
866.18        59.26769
866.58        59.36423
866.99        59.67556
867.39        60.19538
867.79        60.85979
868.19        61.50792
868.60        61.82587
869.00        61.84573
869.40        61.83894
869.80        61.78637
870.21        61.44801
870.61        60.91089
871.01         60.3519
871.41        59.88005
871.81        59.53646
872.22        59.37246
872.62        59.39113
873.02        59.58104
873.42        60.09247
873.82         60.6651
874.22        60.70672
874.63        60.46928
875.03        60.48421
875.43         60.8012
875.83        62.18599
876.23        61.66484
876.63        60.90551
877.03        59.62398
877.44        57.19635
877.84        176.5555
878.24        58.03615
878.64        58.82895
879.04        60.47694
879.44        61.06427
879.84        57.50303
880.24        63.20606
880.64        63.63963
881.04         61.2527
881.44        59.38773
881.84        58.61692
882.24        59.08252
882.65        60.17215
883.05        60.43264
883.45        59.58275
883.85        58.54856
884.25        57.78011
884.65        57.53198
885.05        57.91263
885.45        58.75091
885.85        59.66581
886.25        60.13858
886.65        60.05482
887.05        59.57823
887.45        58.94884
887.85        58.57391
888.25        58.58704
888.65        58.85188
889.04        59.25327
889.44        59.61255
889.84        59.83936
890.24        59.98721
890.64         60.0566
891.04         60.0384
891.44        59.95142
891.84        59.80721
892.24        59.62684
892.64        59.46093
893.04        59.34776
893.44        59.29409
893.83        59.37616
894.23        59.66673
894.63        60.17145
895.03         60.8516
895.43        61.56834
895.83        62.08479
896.23        62.33175
896.63        62.35958
897.02         62.2657
897.42        62.26986
897.82        62.38963
898.22        62.54639
898.62        62.66997
899.01        62.65682
899.41        62.46071
899.81        62.16647
900.21        61.77891
900.61        61.28959
901.00        60.73046
901.40        60.19555
901.80        59.83635
902.20        59.72826
902.59        59.86272
902.99         60.4832
903.39        61.54578
903.79        61.18464
904.18        62.14441
904.58        62.19517
904.98        62.10669
905.38          61.713
905.77        61.04831
906.17        60.18731
906.57        59.33867
906.96        58.95352
907.36        59.13815
907.76        59.80787
908.15        60.75319
908.55        61.45396
908.95        61.79193
909.34        61.81673
909.74        61.74636
910.14        61.90878
910.53        62.36141
910.93        62.96144
911.33        63.41781
911.72        63.28806
912.12         62.5249
912.52        61.33151
912.91        60.05952
913.31        59.32195
913.70        59.25105
914.10         59.6767
914.49        60.37372
914.89        60.86808
915.29         61.0241
915.68        60.95755
916.08        60.80588
916.47        60.73486
916.87        60.83558
917.26        61.03397
917.66        61.26608
918.05        61.47351
918.45        61.60986
918.84        61.69099
919.24        61.78448
919.64        62.05022
920.03          62.492
920.42        63.02643
920.82        63.41867
921.21        63.31652
921.61         62.7017
922.00        61.78371
922.40        60.92237
922.79        60.53964
923.19        60.34412
923.58        61.16433
923.98        63.21008
924.37        63.51976
924.77        60.53275
925.16         69.1671
925.55        62.50184
925.95        62.93486
926.34        62.83726
926.74        62.01241
927.13        60.44049
927.52        59.42992
927.92        59.54814
928.31        60.08978
928.70        60.90334
929.10        61.67602
929.49          62.323
929.89        62.95515
930.28        63.41584
930.67        63.33736
931.07        62.69779
931.46        61.46994
931.85        60.14494
932.24        60.05495
932.64        61.40979
933.03         63.1734
933.42        64.29918
933.82        66.85815
934.21        64.94099
934.60         63.2335
934.99        61.50065
935.39        61.12854
935.78        62.20124
936.17        64.94842
936.56         72.2885
936.96        65.30289
937.35        69.40656
937.74         65.9481
938.13        63.25833
938.53        60.89091
938.92        59.69613
939.31        60.27309
939.70        61.49445
940.09        62.25357
940.49        62.24422
940.88        61.90223
941.27        61.46638
941.66        61.31997
942.05        61.60583
942.44        62.09267
942.84        62.54561
943.23         62.7873
943.62        62.74406
944.01         62.4689
944.40         62.1851
944.79        62.25055
945.18         62.7277
945.57        63.50202
945.97        64.17678
946.36        64.24401
946.75        63.56038
947.14        62.29176
947.53         60.8912
947.92        60.15227
948.31        60.28434
948.70        61.02859
949.09        61.93879
949.48        62.31573
949.87        61.99128
950.26        61.22349
950.65        60.27542
951.04        59.56459
951.43        59.25629
951.82        59.20856
952.21         59.4161
952.60        59.88181
952.99         60.5195
953.38        61.28723
953.77        62.01285
954.16        62.44005
954.55        62.52916
954.94        62.35966
955.33        61.99062
955.72        61.57145
956.11        61.19755
956.50        60.82859
956.89         60.6337
957.28        60.85939
957.66        61.54529
958.05        62.55606
958.44        63.54468
958.83        63.96603
959.22        63.70776
959.61        62.86997
960.00        61.83001
960.39        61.34211
960.78        61.62493
961.16        62.46486
961.55        63.32407
961.94        63.57368
962.33        63.08953
962.72        62.06032
963.11        60.84151
963.49        60.17001
963.88        60.31634
964.27        61.02686
964.66        61.91122
965.04        62.45002
965.43        62.46534
965.82        62.17015
966.21        61.75384
966.60        61.54181
966.98        61.63939
967.37        61.90277
967.76        62.23274
968.15        62.48632
968.53        62.62571
968.92        62.70183
969.31        62.69378
969.69         62.5452
970.08        62.23695
970.47        61.76005
970.86         61.3017
971.24        61.19525
971.63        61.48714
972.02        62.10186
972.40        62.73117
972.79        62.81252
973.17        62.31173
973.56        61.38943
973.95        60.45414
974.33        60.23745
974.72        60.91814
975.11         62.2136
975.49        63.78173
975.88        64.98145
976.26         65.6744
976.65        65.99605
977.04        66.00613
977.42        65.75956
977.81        65.28075
978.19         64.4543
978.58        63.79522
978.96        64.14273
979.35        65.55642
979.74        67.67808
980.12        69.67554
980.51        70.33218
980.89        69.61714
981.28        67.70454
981.66        65.23222
982.05         63.8469
982.43        64.17932
982.82        65.83473
983.20         67.8768
983.59        68.83802
983.97         68.4003
984.35        66.94833
984.74        65.10648
985.12        64.04856
985.51        64.10837
985.89        64.98256
986.28        66.04997
986.66        66.52092
987.04        66.27485
987.43        65.46235
987.81        64.33752
988.20        65.01759
988.58        67.81191
988.96         69.3242
989.35        68.47529
989.73         74.9826
990.12        71.30322
990.50        70.94083
990.88        69.58387
991.27        68.49194
991.65        67.85114
992.03        67.67506
992.42        67.94644
992.80        67.96687
993.18        67.58974
993.56        67.09618
993.95        66.59142
994.33        66.16025
994.71        65.88738
995.10         65.6973
995.48        65.70181
995.86        66.11089
996.24        66.89983
996.63        67.86958
997.01        68.89304
997.39         69.5667
997.77        69.76484
998.15        69.59772
998.54         69.1511
998.92         68.4546
999.30        67.62611
999.68         66.7052
1000.06        65.89246
1000.45        65.54826
1000.83        65.89618
1001.21        66.80639
1001.59        68.12209
1001.97        69.57408
1002.35         70.9489
1002.73        72.17389
1003.12        73.09972
1003.50        73.62608
1003.88        73.76224
1004.26        73.57823
1004.64        73.11255
1005.02        72.50333
1005.40        71.84515
1005.78        71.08931
1006.16         70.4959
1006.54        70.42182
1006.92        70.92149
1007.30        72.00114
1007.69          73.027
1008.07        73.14177
1008.45        72.17526
1008.83        70.26378
1009.21        68.35944
1009.59        68.43393
1009.97        70.76965
1010.35        74.29269
1010.73        77.55647
1011.11        79.27025
1011.49        79.41096
1011.86        78.10617
1012.24        75.51764
1012.62        75.77831
1013.00        76.32481
1013.38        76.52409
1013.76        74.62354
1014.14        79.24477
1014.52        85.62837
1014.90        77.52765
1015.28        78.71085
1015.66        80.50639
1016.04        77.70545
1016.41        79.20525
1016.79        79.41632
1017.17        79.13721
1017.55        77.72302
1017.93        75.60129
1018.31        73.83124
1018.69        73.64763
1019.06        75.34702
1019.44        78.29189
1019.82        81.20181
1020.20        82.43958
1020.58        81.65258
1020.95        78.92549
1021.33        74.94121
1021.71        72.27688
1022.09        72.52837
1022.46        74.70027
1022.84        77.16145
1023.22        78.66324
1023.60        79.18095
1023.97        79.18556
1024.35        79.04796
1024.73        79.35727
