SpectraSmart Spectrum 2.9.0.0
--------- Device Information -----------
Spectrum Name :  反射率_0
Saving Time :  2024/04/21 00:17:39
Spectro-Module Model Name : SE2030-DUVN
Spectro-Module Serial Number : OS361AC55029948
Wavelength Start : 200
Wavelength End : 1025
Wavelength Unit : Wavelength(nm)
Spectrum Unit : Reflectance(%)
-----------Spectrum Setting ------------
Integration Time : 20ms
Average : 10
Boxcar : 0
Background removal :  enabled
linearity correction :  enabled
SC :  disabled
Intensity correction :  disabled
DWT denoise :  enabled
savitzky-golay :  disabled
FFT :  disabled
Running average :  disabled
Kalman :  disabled
High pass :  disabled
---------------BEGIN--------------------
Wavelength(nm)             Reflectance(%)
200.29               0
200.75       -98.56862
201.21       -18.58023
201.67        24.31024
202.13        42.03867
202.58        46.15709
203.04        42.02516
203.50        31.83198
203.96        21.59677
204.42        15.16485
204.88        10.80601
205.34        6.630267
205.80       -1.546409
206.26       -15.42456
206.72       -31.53091
207.18       -48.74976
207.64       -64.55205
208.10       -73.48489
208.55       -77.67647
209.01       -63.65601
209.47       -24.79503
209.93        11.73472
210.39        36.91649
210.85        50.48382
211.31        52.89739
211.77        45.90871
212.23        27.71337
212.69       -8.446113
213.14       -67.13338
213.60       -152.2233
214.06       -346.5397
214.52       -660.8986
214.98       -221.3283
215.44       -33.48372
215.90        19.89488
216.36        34.90611
216.81        33.87048
217.27        17.98192
217.73       -60.87513
218.19        890.6616
218.65        388.5882
219.11       -836.6301
219.57       -29.87068
220.02        21.64125
220.48        30.41889
220.94        24.78975
221.40        3.347001
221.86       -48.35696
222.32        -82.9671
222.77       -37.51985
223.23        2.663222
223.69        23.03747
224.15        29.95689
224.61        29.94464
225.06        26.87645
225.52         22.0024
225.98         16.7631
226.44        12.11654
226.90        6.558037
227.36        3.354433
227.81        8.022269
228.27        17.13459
228.73        26.50525
229.19        32.31886
229.65        32.35538
230.10        27.37264
230.56        18.72826
231.02        8.042308
231.48        1.641188
231.93        3.684655
232.39        11.44638
232.85        19.72618
233.31        24.30968
233.77        25.47602
234.22         25.0228
234.68        23.56425
235.14        22.15852
235.60        21.62554
236.05        20.90427
236.51        19.90568
236.97        24.46956
237.43        34.80579
237.88        40.86462
238.34        38.98822
238.80        61.22203
239.26        53.06592
239.71        54.76954
240.17        52.34169
240.63        49.86523
241.08        49.07431
241.54        51.22598
242.00        56.31817
242.46        58.26173
242.91        55.71151
243.37        48.79591
243.83        39.24197
244.28        34.27283
244.74        37.86521
245.20        45.63074
245.66        52.80877
246.11         54.8359
246.57        51.11732
247.03        43.64121
247.48        31.87622
247.94        13.90602
248.40        -17.2488
248.85        -95.4032
249.31       -340.8608
249.77       -546.8393
250.22       -172.9536
250.68       -13.31691
251.14        39.71229
251.59         57.3564
252.05        62.34809
252.51        61.15001
252.96        55.61967
253.42         52.5592
253.88        56.15071
254.33        62.52839
254.79        69.87885
255.25        75.35736
255.70        78.18006
256.16        79.92858
256.62        80.63903
257.07        80.29069
257.53        79.74093
257.99         78.8351
258.44         77.3467
258.90        75.92639
259.35        74.09682
259.81        72.42961
260.27        70.86779
260.72        69.47865
261.18         68.6366
261.63        67.86477
262.09        67.22802
262.55        66.25358
263.00        64.84766
263.46        63.38094
263.91         61.8793
264.37        60.89834
264.83        60.33939
265.28        59.95787
265.74         59.6287
266.19        58.91132
266.65        57.84612
267.11        56.52207
267.56        55.05026
268.02        53.71223
268.47        52.52355
268.93        51.43163
269.38         50.3844
269.84        49.38005
270.30        48.38538
270.75        47.43122
271.21        46.46944
271.66        45.33686
272.12        44.06894
272.57        42.69263
273.03        41.41104
273.48        40.45763
273.94        39.88988
274.39        39.58017
274.85        39.36499
275.31        38.91536
275.76        38.16119
276.22        37.25477
276.67        36.34243
277.13        35.73574
277.58        35.41957
278.04        35.30569
278.49        35.18653
278.95        34.88525
279.40        34.30993
279.86        33.58776
280.31        32.76638
280.77        32.01562
281.22        31.34526
281.68         30.7851
282.13        30.26536
282.59        29.77898
283.04        29.29315
283.50        28.85073
283.95         28.5099
284.41        28.39093
284.86        28.47934
285.32         28.7425
285.77        29.01621
286.22        29.09564
286.68        28.96729
287.13        28.65097
287.59         28.3551
288.04        28.28474
288.50        28.46092
288.95        28.91236
289.41        29.49921
289.86        29.55154
290.32        28.97057
290.77        29.63387
291.22        28.69091
291.68        28.81817
292.13        29.18929
292.59        29.82616
293.04        30.64261
293.50        31.57664
293.95        32.60334
294.40         33.7128
294.86        34.90988
295.31        36.18668
295.77        37.53106
296.22        38.91278
296.68         40.2964
297.13        41.62735
297.58        42.91857
298.04        44.18926
298.49        45.51419
298.95         47.0327
299.40        48.74119
299.85        50.60003
300.31        52.47947
300.76        54.15075
301.21        55.58333
301.67        56.87141
302.12        58.13372
302.58        59.66235
303.03        61.47728
303.48        63.53884
303.94        65.70178
304.39        67.68562
304.84        69.43407
305.30        71.03851
305.75        72.59251
306.20        74.35051
306.66        76.34851
307.11        78.43755
307.57        80.47911
308.02        82.18885
308.47        83.54903
308.93        84.69975
309.38        85.74152
309.83         86.8961
310.29        88.27163
310.74         89.7219
311.19        91.19881
311.65        92.59289
312.10        93.84013
312.55        94.98231
313.00        95.99852
313.46        96.85665
313.91        97.54925
314.36        98.09677
314.82        98.57985
315.27        99.11948
315.72        99.75978
316.18         100.482
316.63         101.229
317.08        101.9014
317.53        102.4649
317.99        102.9362
318.44        103.3602
318.89        103.7964
319.35        104.2533
319.80        104.7128
320.25        105.1192
320.70        105.3933
321.16        105.5174
321.61        105.5466
322.06        105.5513
322.51        105.6493
322.97        105.8586
323.42        106.1813
323.87        106.5551
324.32        106.8916
324.78         107.139
325.23        107.3588
325.68        107.5493
326.13         107.741
326.59        107.9183
327.04        108.1178
327.49        108.3153
327.94        108.5116
328.39        108.7116
328.85           108.9
329.30         109.138
329.75         109.385
330.20          109.64
330.66        109.8624
331.11        110.1525
331.56        110.5383
332.01        111.0231
332.46        111.5873
332.92        112.0992
333.37        112.4827
333.82        112.6686
334.27        112.7187
334.72        112.7545
335.17         112.981
335.63        113.4287
336.08        114.0916
336.53        114.8863
336.98        115.7187
337.43        116.5255
337.88        117.3149
338.34        117.9883
338.79        118.4491
339.24        118.6617
339.69        118.6702
340.14        118.5931
340.59        118.6335
341.05        118.8538
341.50        119.2105
341.95        119.6742
342.40        120.1847
342.85        120.7034
343.30        121.2524
343.75        121.7505
344.20        122.0706
344.66        122.2045
345.11        122.1565
345.56        122.0657
346.01        122.1635
346.46        122.4985
346.91        122.9807
347.36        123.4436
347.81        123.7009
348.26        123.7194
348.72        123.3106
349.17        123.1021
349.62         122.939
350.07        123.0257
350.52        123.2612
350.97        123.5369
351.42        123.6712
351.87        123.5965
352.32        123.3735
352.77         123.044
353.22        122.6642
353.67        122.2665
354.13         121.859
354.58        121.4206
355.03        120.9813
355.48        120.5506
355.93         120.121
356.38         119.729
356.83        119.4201
357.28        119.1754
357.73        118.9637
358.18        118.6633
358.63         118.089
359.08        117.2187
359.53        116.1271
359.98        114.9675
360.43        113.9705
360.88        113.1955
361.33        112.5817
361.78        112.0432
362.23        111.4373
362.68        110.7234
363.13        109.9511
363.58        109.1553
364.03        108.3867
364.48        107.6547
364.93        106.9222
365.38        106.1796
365.83        105.4233
366.28        104.6508
366.73        103.8762
367.18        103.0805
367.63        102.2298
368.08        101.3318
368.53        100.4064
368.98         99.5059
369.43        98.70011
369.88        97.99326
370.33        97.35674
370.78         96.7402
371.23        96.06988
371.68        95.33659
372.13        94.57638
372.58        93.82921
373.03        93.14397
373.48        92.52927
373.93        91.96111
374.38        91.43193
374.83        90.94066
375.28        90.47886
375.72        90.02232
376.17        89.57205
376.62        89.05113
377.07        88.43519
377.52        87.72873
377.97        86.96447
378.42        86.22191
378.87         85.5504
379.32        84.95746
379.77        84.41955
380.22         83.8793
380.67        83.31246
381.11        82.73025
381.56        82.17142
382.01         81.7233
382.46        81.40894
382.91         81.2056
383.36        81.01311
383.81        80.67941
384.26        80.17503
384.71        79.54019
385.15        78.88821
385.60        78.46316
386.05        78.27888
386.50        78.26114
386.95        78.25397
387.40        78.01844
387.85        77.51974
388.29        76.81445
388.74        76.14386
389.19        75.63325
389.64        75.31063
390.09        75.11057
390.54        74.96835
390.98          74.769
391.43        74.52082
391.88        74.25253
392.33        73.99264
392.78        73.75484
393.23        73.54146
393.67         73.3569
394.12        73.25553
394.57        73.01723
395.02        72.68847
395.47        72.57565
395.91        72.63235
396.36        72.47282
396.81        72.09796
397.26        71.75374
397.71        71.44623
398.15        71.08353
398.60        70.76311
399.05        70.36201
399.50         70.0056
399.95        70.04693
400.39        70.39605
400.84          70.577
401.29        70.48329
401.74        70.12374
402.18        69.61269
402.63        69.31654
403.08        69.23885
403.53         68.9866
403.97        68.56875
404.42        68.30669
404.87        68.20232
405.32        68.11137
405.76        68.00671
406.21        67.94695
406.66        67.90556
407.11        67.79245
407.55        67.61991
408.00        67.50425
408.45        67.42886
408.90        67.07878
409.34        66.55476
409.79        66.38891
410.24        66.53527
410.68        66.53356
411.13        66.36432
411.58        66.28468
412.03        66.29972
412.47        66.30714
412.92        66.27411
413.37         66.2355
413.81        66.18301
414.26        66.16086
414.71        66.15161
415.15        66.15292
415.60         66.1159
416.05        66.02097
416.49        65.87041
416.94        65.67527
417.39        65.46143
417.83        65.25896
418.28        65.07833
418.73        64.89877
419.17        64.73957
419.62        64.64227
420.07        64.61485
420.51        64.64952
420.96        64.69235
421.41        64.64972
421.85        64.49168
422.30        64.17855
422.74        63.82587
423.19        63.95306
423.64        64.45936
424.08        64.71519
424.53        64.59566
424.98        64.60116
425.42        64.74567
425.87         64.5826
426.31        64.21299
426.76        64.26603
427.21        64.71842
427.65        64.80888
428.10        64.38197
428.54        64.86979
428.99        64.32648
429.44        64.19217
429.88        63.92155
430.33        63.73558
430.77         63.6209
431.22        63.71352
431.66        63.96666
432.11        64.20154
432.56        64.40088
433.00        64.47093
433.45        64.16106
433.89        63.95813
434.34        64.10703
434.78         62.7901
435.23        62.44035
435.67        63.84331
436.12        64.23759
436.57        64.46062
437.01        63.70841
437.46        63.36129
437.90        64.11259
438.35        64.20909
438.79        64.25108
439.24        64.21844
439.68        64.24711
440.13        64.26354
440.57        64.25155
441.02        64.19627
441.46        64.10872
441.91        64.06993
442.35        64.03115
442.80        64.30083
443.24        64.78917
443.69        64.92303
444.13        64.57581
444.58        65.07923
445.02        64.44257
445.47         64.5309
445.91        64.69597
446.36        64.70135
446.80        64.51516
447.24        64.38943
447.69        64.28689
448.13        64.35291
448.58        64.37447
449.02        64.41352
449.47         64.3962
449.91        64.36586
450.36        64.33501
450.80        64.18464
451.25        63.99111
451.69        63.97681
452.13        64.10703
452.58        64.05448
453.02        63.81721
453.47        63.67776
453.91         63.6322
454.36        63.53055
454.80        63.37051
455.24        63.23565
455.69        63.14938
456.13         63.0449
456.58        62.95316
457.02        62.90502
457.46         62.8413
457.91        62.73681
458.35        62.67606
458.79        62.57344
459.24         62.4885
459.68        62.37796
460.13        62.28428
460.57         62.1968
461.01         62.1408
461.46        61.98674
461.90        62.04368
462.34         61.7818
462.79        61.82944
463.23        61.61655
463.68        61.71357
464.12        61.40265
464.56        60.95956
465.01        61.08959
465.45        61.53614
465.89        61.64236
466.34        61.43692
466.78        61.06033
467.22        60.50911
467.67        61.19746
468.11         60.8818
468.55        61.01102
468.99        60.88498
469.44        60.78757
469.88        60.70233
470.32        60.47897
470.77        60.20425
471.21        60.05132
471.65        60.04871
472.10        60.14242
472.54        60.25489
472.98        60.28349
473.42        60.20497
473.87        60.07608
474.31        59.91147
474.75        59.81522
475.20        59.78725
475.64        59.76545
476.08        59.74812
476.52        59.71127
476.97        59.62128
477.41        59.65775
477.85        59.79621
478.29         59.3511
478.74        59.16058
479.18        59.08968
479.62        59.30741
480.06        59.39651
480.50        59.35751
480.95        59.36216
481.39        59.35543
481.83        59.60727
482.27        59.77456
482.72        59.50335
483.16        59.80903
483.60        59.77221
484.04        59.93335
484.48        59.67957
484.93        59.84598
485.37        59.26029
485.81        59.29858
486.25         59.0627
486.69        60.31084
487.14        59.73869
487.58         59.6264
488.02        59.24434
488.46        59.32438
488.90        59.05715
489.34        58.84368
489.79        58.54011
490.23        59.31499
490.67        59.42886
491.11        59.22209
491.55        59.10959
491.99        59.13197
492.43        59.08588
492.88        58.97016
493.32        58.89631
493.76        58.82299
494.20        58.78762
494.64        58.82168
495.08        58.50311
495.52        58.44873
495.96        58.60089
496.41        58.97483
496.85        58.85838
497.29        58.32443
497.73        58.23103
498.17        58.29919
498.61        58.59253
499.05        58.84801
499.49         58.6644
499.93         58.1926
500.37        58.08969
500.82        58.35711
501.26        58.71007
501.70         58.9893
502.14        58.60355
502.58        58.16622
503.02        57.95966
503.46        58.12019
503.90        58.30498
504.34        58.41036
504.78        58.43804
505.22        58.39932
505.66         58.3498
506.10        58.29061
506.54         58.3082
506.98        58.44556
507.42        57.98606
507.86        58.29601
508.30        58.21815
508.74        58.21957
509.18        58.21269
509.62        58.21185
510.06        58.20898
510.50        58.17119
510.94        58.04792
511.38        57.87403
511.82        57.77381
512.26        57.76168
512.70         57.7782
513.14        57.80172
513.58        57.81576
514.02        57.80895
514.46        57.78806
514.90        57.74287
515.34        57.70021
515.78        57.67061
516.22        57.60596
516.66        57.37649
517.10        57.64113
517.54         57.4489
517.98        57.54375
518.42         57.6198
518.86        57.66278
519.30        57.65995
519.74        57.58824
520.18        57.50858
520.62        57.57959
521.06         57.7711
521.50        57.86025
521.93        57.81544
522.37        57.76243
522.81        57.70205
523.25         57.5523
523.69        57.35567
524.13        57.22787
524.57        57.18907
525.01        57.20405
525.45        57.25817
525.89         57.3264
526.32        57.39142
526.76        57.46534
527.20        57.52374
527.64        57.53444
528.08        57.49351
528.52        57.39571
528.96        57.27843
529.40        57.22981
529.83         57.2448
530.27        57.26233
530.71        57.25571
531.15        57.24495
531.59        57.22356
532.03        57.16844
532.46        57.10235
532.90        57.09369
533.34         57.1451
533.78        57.23304
534.22         57.3193
534.66        57.34649
535.09        57.29696
535.53        57.21341
535.97        57.11838
536.41         57.0624
536.85        57.05921
537.28        57.08969
537.72        57.14443
538.16        57.20664
538.60        57.26282
539.04        57.32524
539.47         57.3597
539.91        57.34357
540.35        57.27073
540.79        57.19158
541.22        57.12284
541.66        57.07156
542.10        57.04258
542.54        57.04655
542.97        57.06635
543.41        57.08659
543.85        57.09173
544.29        57.12609
544.72        57.17345
545.16        57.18118
545.60        57.12129
546.04        57.23454
546.47        57.03044
546.91        57.18351
547.35        57.45396
547.79        57.55698
548.22        57.43704
548.66         57.1954
549.10        56.93183
549.53        56.84123
549.97        56.92648
550.41        56.93388
550.84        56.86085
551.28        56.87262
551.72        56.94476
552.15        57.00539
552.59        57.06914
553.03        56.87767
553.46        56.94959
553.90         56.8723
554.34        56.78589
554.77        56.73175
555.21        56.77315
555.65        56.63133
556.08        56.84426
556.52        57.00462
556.96        57.18557
557.39        57.20035
557.83        57.06423
558.27        56.89107
558.70        56.75367
559.14        56.68612
559.57        56.70188
560.01        56.91602
560.45        57.18027
560.88         57.1377
561.32        56.87877
561.75        56.61266
562.19        56.48056
562.63        56.69876
563.06        57.11353
563.50        57.08097
563.93        56.64404
564.37        56.44826
564.80        56.53149
565.24        56.68886
565.68        56.85771
566.11        56.95016
566.55        56.95927
566.98        57.00113
567.42        57.08534
567.85        57.00815
568.29        56.87406
568.72        56.93476
569.16        57.17245
569.60        57.30896
570.03        57.24258
570.47        57.19902
570.90        57.13877
571.34        57.19255
571.77        57.42749
572.21        57.26026
572.64        57.16004
573.08        57.19014
573.51        57.08382
573.95        57.45652
574.38        57.16447
574.82        57.83227
575.25        57.36798
575.69        57.14093
576.12        56.91117
576.56        57.33227
576.99        57.69402
577.42        57.54397
577.86        57.55703
578.29        58.06007
578.73        57.80308
579.16        57.71936
579.60        57.10759
580.03        57.75548
580.47        57.68356
580.90        57.40213
581.33        57.54486
581.77        57.76752
582.20        57.74212
582.64        58.03625
583.07        57.74689
583.51        57.60043
583.94        57.41914
584.37        57.41658
584.81        56.92672
585.24         56.9655
585.68         57.6361
586.11         57.4621
586.54        57.43031
586.98        57.49245
587.41        57.37307
587.85        57.61388
588.28        57.41014
588.71        57.60771
589.15        57.41891
589.58        56.97084
590.01        57.05441
590.45        56.77455
590.88        57.32676
591.31        56.97926
591.75        56.74181
592.18        56.68384
592.61        56.97861
593.05        57.29807
593.48         57.4726
593.91         57.4361
594.35        57.28746
594.78        57.40406
595.21        57.10102
595.65        57.04975
596.08        57.01544
596.51        57.17717
596.94        56.98379
597.38        56.97628
597.81        57.03909
598.24        57.05076
598.68        56.89074
599.11        57.12962
599.54        57.28044
599.97        57.28368
600.41        57.09613
600.84        57.33795
601.27        57.29171
601.70        57.08232
602.14        56.74769
602.57        56.70054
603.00        57.00497
603.43        56.94866
603.87         57.0759
604.30        57.08413
604.73        57.10395
605.16        56.89418
605.60        57.13652
606.03        57.07398
606.46        56.92664
606.89        56.80568
607.32        56.80749
607.76        57.07061
608.19         56.9396
608.62        57.12747
609.05        57.73751
609.48        57.16913
609.92        56.96019
610.35         57.0054
610.78        57.21226
611.21        56.88235
611.64        57.06942
612.07        56.65325
612.50        56.91453
612.94        56.85047
613.37        56.74632
613.80        56.78878
614.23        57.00317
614.66        56.56578
615.09        56.78909
615.52        56.69559
615.96         56.6783
616.39        56.63658
616.82        56.57289
617.25        56.58858
617.68        56.56191
618.11         56.4819
618.54        56.49986
618.97        56.49463
619.40        56.47294
619.84        56.59118
620.27        56.49331
620.70        56.42324
621.13        56.32296
621.56        56.47082
621.99        56.81761
622.42         56.8714
622.85        56.59669
623.28        56.55141
623.71        56.68828
624.14         56.4917
624.57        56.57757
625.00        56.99482
625.43        56.38741
625.86         56.5409
626.29        56.60317
626.72        56.48225
627.15         56.5202
627.58        56.52845
628.01         56.6807
628.44         56.4765
628.87         56.5067
629.30        56.56539
629.73        56.46281
630.16         56.3131
630.59        56.41776
631.02        56.46298
631.45        56.19057
631.88        56.17871
632.31        56.33313
632.74        56.26681
633.17        56.43813
633.60        56.41585
634.03        56.33747
634.46        56.26701
634.89        56.14315
635.32        56.04166
635.75        55.96527
636.18        56.00444
636.61        56.12653
637.04        56.19518
637.47         56.1932
637.89        56.19331
638.32        56.19664
638.75        56.20163
639.18        56.21316
639.61        56.22961
640.04        56.24528
640.47          56.254
640.90        56.25425
641.33        56.24807
641.76         56.2421
642.18        56.25273
642.61        56.26936
643.04        56.29378
643.47        56.31612
643.90        56.32601
644.33        56.32012
644.76        56.28685
645.18        56.23932
645.61        56.22607
646.04        56.23898
646.47         56.2029
646.90        56.12552
647.33        56.09637
647.75        56.12038
648.18        56.13218
648.61        56.13663
649.04        56.22176
649.47        56.31334
649.89        56.39699
650.32        55.94305
650.75        56.00855
651.18        56.34423
651.61        56.35058
652.03        56.05811
652.46        55.89631
652.89        55.93185
653.32        56.12834
653.74        56.40098
654.17        56.38374
654.60         55.8943
655.03        56.06607
655.46        56.15829
655.88          56.726
656.31        57.22274
656.74        60.15071
657.16        58.84116
657.59         57.5397
658.02        56.46365
658.45        56.12428
658.87        56.03489
659.30        56.38332
659.73        56.31416
660.15        55.80356
660.58        56.01946
661.01        56.25651
661.44        56.73552
661.86        56.79597
662.29        56.45623
662.72        56.12158
663.14        55.93464
663.57        56.04225
664.00        56.35633
664.42        56.45249
664.85        56.30704
665.27        56.10347
665.70        56.07304
666.13        56.01084
666.55        55.99204
666.98        56.02568
667.41        56.08744
667.83        56.14035
668.26        56.17857
668.69        56.15728
669.11        56.08667
669.54        56.16867
669.96        56.44713
670.39        56.15745
670.82        56.60621
671.24        56.50233
671.67        56.28061
672.09        56.23795
672.52        56.37815
672.94        56.31444
673.37        56.08024
673.80        56.03135
674.22        56.16613
674.65        56.20098
675.07         56.1399
675.50         56.1097
675.92        56.12462
676.35        56.13681
676.77        56.14394
677.20        56.17046
677.62        56.23238
678.05        56.26832
678.47        56.25742
678.90         56.5091
679.32         56.4513
679.75        56.49994
680.17         56.4827
680.60        56.45602
681.02        56.42212
681.45        56.32172
681.87        56.20869
682.30        56.21762
682.72        56.34415
683.15        56.44229
683.57        56.44814
684.00        56.47762
684.42        56.18571
684.85        56.13497
685.27        56.21869
685.70        56.32398
686.12        56.39719
686.54        56.44593
686.97        56.45208
687.39        56.43788
687.82        56.42584
688.24        56.42667
688.66        56.42899
689.09        56.64807
689.51        56.63347
689.94        56.72378
690.36        56.76592
690.78        56.72392
691.21        56.62725
691.63        56.52058
692.06        56.46544
692.48        56.55182
692.90        56.72281
693.33        56.78079
693.75        56.71009
694.17        56.56121
694.60        56.39313
695.02        56.45298
695.44        56.49651
695.87        56.61093
696.29        56.70283
696.71        56.63582
697.14        56.47178
697.56         56.6663
697.98        57.14096
698.41         57.0957
698.83        57.07771
699.25        56.88238
699.68        56.73512
700.10        56.61021
700.52        56.53543
700.94        56.51478
701.37        56.50716
701.79        56.49725
702.21        56.45744
702.64        56.40532
703.06        56.35711
703.48        56.34338
703.90        56.37341
704.33        56.43122
704.75        56.50019
705.17        56.53733
705.59        56.53335
706.01        56.49727
706.44         56.4654
706.86         56.5055
707.28        56.61352
707.70        56.78719
708.12        56.97565
708.55        57.03436
708.97         56.9675
709.39         56.9474
709.81        56.97207
710.23        56.91764
710.66        56.79336
711.08         56.6893
711.50        56.62815
711.92        56.62088
712.34        56.67305
712.76        56.78027
713.19         56.8992
713.61        56.99587
714.03        57.03123
714.45        57.02902
714.87        57.00966
715.29        56.96904
715.71        56.91043
716.13        56.97998
716.56        56.89808
716.98        56.91843
717.40        56.94958
717.82        56.99979
718.24        57.06156
718.66        57.12445
719.08        57.18509
719.50        57.23723
719.92        57.28618
720.34         57.3412
720.76        57.40215
721.19        57.45939
721.61        57.50964
722.03        57.52095
722.45        57.49183
722.87        57.43419
723.29        57.38133
723.71        57.38682
724.13        57.46245
724.55        57.58932
724.97        57.73573
725.39        57.84902
725.81        57.91023
726.23        57.93129
726.65        57.92155
727.07        57.90345
727.49        57.88732
727.91        57.85211
728.33          57.805
728.75         57.7988
729.17        57.82163
729.59        57.78778
730.01        57.71775
730.43        57.72056
730.85        57.80173
731.27        57.88367
731.69        57.95364
732.10        57.98643
732.52        58.13754
732.94        58.00873
733.36        57.72602
733.78        57.59842
734.20         57.6684
734.62        57.77324
735.04        57.85939
735.46        57.93672
735.88        57.99501
736.30        57.96328
736.72        57.87458
737.13        58.00681
737.55         58.2528
737.97         58.1197
738.39        57.71035
738.81        57.67396
739.23        58.01674
739.65        58.24833
740.06        58.25543
740.48        58.28125
740.90        58.28347
741.32        58.14668
741.74         57.9435
742.16        57.86564
742.57        57.96083
742.99        58.15858
743.41        58.38081
743.83        58.48387
744.25          58.432
744.67        58.26724
745.08        58.08549
745.50        58.00317
745.92        58.07051
746.34          58.254
746.75        58.45909
747.17        58.53212
747.59        58.43955
748.01        58.19544
748.42        57.93289
748.84        57.88589
749.26        58.06289
749.68        58.35741
750.09        58.62504
750.51        58.55193
750.93        58.20724
751.35        58.07472
751.76        58.18928
752.18        58.21059
752.60        58.14699
753.01        58.24466
753.43        58.43142
753.85         58.5051
754.27         58.4378
754.68        58.28922
755.10        58.13049
755.52        58.04604
755.93        58.06254
756.35         58.1626
756.77        58.30127
757.18        58.36861
757.60        58.32645
758.02        58.27128
758.43         58.3003
758.85        58.07121
759.26        58.33949
759.68        58.63239
760.10        58.67326
760.51        58.33733
760.93        58.31446
761.34        58.21112
761.76        58.47658
762.18        58.73085
762.59        58.93306
763.01         59.1485
763.42        58.62044
763.84        58.78138
764.26        58.98314
764.67        59.28508
765.09        59.47232
765.50        59.49429
765.92        59.37859
766.33        59.20284
766.75        59.01928
767.16        58.90624
767.58        58.84111
768.00        58.98792
768.41        59.26012
768.83        59.10808
769.24        58.59593
769.66         58.7407
770.07        58.54702
770.49        58.85192
770.90        59.19686
771.32        59.01263
771.73        58.43686
772.15        58.29054
772.56        58.64562
772.97        59.02164
773.39        59.26324
773.80        59.41545
774.22        59.40514
774.63        59.24368
775.05        59.01796
775.46        58.91887
775.88         58.9743
776.29        59.15829
776.70        59.37292
777.12        59.46284
777.53        59.40501
777.95        59.24887
778.36        59.06918
778.77        58.97481
779.19        58.99837
779.60        59.10806
780.02        59.25718
780.43        59.40269
780.84        59.52336
781.26        59.58432
781.67        59.62593
782.09        59.73625
782.50        59.87246
782.91        59.86826
783.33        59.72562
783.74        59.67096
784.15        59.69254
784.57        59.69536
784.98        59.68188
785.39        59.67477
785.81        59.67382
786.22        59.67283
786.63        59.68162
787.04        59.71758
787.46        59.79135
787.87        59.87217
788.28         59.9533
788.70        60.01432
789.11         60.0319
789.52        60.02583
789.93        60.00772
790.35        59.98545
790.76        59.97925
791.17        59.99451
791.58        60.03346
792.00         60.0708
792.41        60.12604
792.82        60.22805
793.23        60.40572
793.65        60.53273
794.06        60.65057
794.47        61.08393
794.88        61.70279
795.29        61.58627
795.71        61.64118
796.12        61.26203
796.53        60.84946
796.94         60.6793
797.35        60.77629
797.76         60.8144
798.18        60.73792
798.59        60.72489
799.00        60.75101
799.41        60.69163
799.82        60.55838
800.23        60.44689
800.64        60.37468
801.06        60.29794
801.47        60.25241
801.88        60.22959
802.29        60.23386
802.70        60.27176
803.11        60.35687
803.52        60.50248
803.93        60.69495
804.34        60.91407
804.75        61.12479
805.17        61.23059
805.58        61.23045
805.99        61.23904
806.40        61.25549
806.81        61.02552
807.22        60.68386
807.63        60.79812
808.04        61.29688
808.45        61.52926
808.86        61.42814
809.27        61.36029
809.68        61.36393
810.09        61.33073
810.50        61.27378
810.91        61.22199
811.32        61.17108
811.73        61.11683
812.14         61.0619
812.55        61.00796
812.96        60.97137
813.37        60.97985
813.78        61.03522
814.19        61.12368
814.60        61.21771
815.01        61.27709
815.42        61.29417
815.83        61.28263
816.24        61.26088
816.65        61.26415
817.05        61.31058
817.46        61.36149
817.87        61.44077
818.28        61.54834
818.69        61.68057
819.10        61.83803
819.51        61.99763
819.92        62.11417
820.33        62.17088
820.74         62.1714
821.14        62.13838
821.55        62.13198
821.96        62.15511
822.37         62.1956
822.78        62.22419
823.19        62.19076
823.60        62.08229
824.00        61.92669
824.41        61.73508
824.82        61.58426
825.23         61.4962
825.64        61.46456
826.04        61.46857
826.45        61.43232
826.86        61.35777
827.27        61.27402
827.68        61.22855
828.08        61.32044
828.49        61.50035
828.90        61.77505
829.31        62.11639
829.72        62.37734
830.12        62.52148
830.53        62.97759
830.94        62.91066
831.35        62.85963
831.75        62.60222
832.16        62.17014
832.57        61.71234
832.97        61.47897
833.38        61.53257
833.79        61.79812
834.20        62.16278
834.60        62.44839
835.01        62.59397
835.42        62.64595
835.82        62.63145
836.23        62.55777
836.64        62.45663
837.04        62.32667
837.45        62.17029
837.86        62.05536
838.26        62.01092
838.67        62.02416
839.08        62.08755
839.48        62.16303
839.89        62.23299
840.29        62.30527
840.70        62.39965
841.11         62.5442
841.51        62.74936
841.92        62.95879
842.33        63.14364
842.73        63.26028
843.14        63.25466
843.54        63.17698
843.95        63.04322
844.35        62.90202
844.76        62.77147
845.17        62.64918
845.57           62.58
845.98        62.59924
846.38        62.73487
846.79        62.95333
847.19        63.21102
847.60        63.35905
848.00        63.39219
848.41         63.3044
848.81        63.20132
849.22        63.20562
849.62        63.38149
850.03        63.64988
850.43        63.93501
850.84        64.01787
851.24        63.90159
851.65        63.58401
852.05        63.23758
852.46        63.08042
852.86        63.17462
853.27        63.48298
853.67        63.77837
854.07        63.87503
854.48        63.70888
854.88        63.36406
855.29         62.9558
855.69        62.84951
856.10        63.04956
856.50        63.52589
856.90        64.02881
857.31        64.18701
857.71        63.95519
858.12        63.40714
858.52        62.73023
858.92        62.18387
859.33        61.86449
859.73        61.74928
860.13        61.79831
860.54        61.93949
860.94        62.18446
861.34        62.50731
861.75        62.83596
862.15        63.11684
862.55        63.27561
862.96        63.28559
863.36        63.15996
863.76        62.89074
864.17        62.49981
864.57        62.04543
864.97        61.55892
865.38        61.07133
865.78        60.65812
866.18        60.32856
866.58        60.20858
866.99        60.46216
867.39        61.10739
867.79        62.02395
868.19        62.95464
868.60        63.46724
869.00        63.56896
869.40        63.55511
869.80        63.44196
870.21        63.07604
870.61        62.56606
871.01         62.0309
871.41        61.57196
871.81        61.22914
872.22        61.03984
872.62        61.02764
873.02         61.1165
873.42        61.33355
873.82        61.44181
874.22         60.9225
874.63        60.16939
875.03        59.97013
875.43        60.42582
875.83        62.19353
876.23        62.15484
876.63        61.78998
877.03        60.74307
877.44        58.46201
877.84        174.4313
878.24        58.94939
878.64        59.35433
879.04        60.53579
879.44        60.73497
879.84        56.99997
880.24        62.91489
880.64        63.70256
881.04        61.80054
881.44        60.36858
881.84         59.8508
882.24        60.39965
882.65        61.43665
883.05        61.60742
883.45        60.66829
883.85        59.50945
884.25        58.59566
884.65        58.22699
885.05        58.52703
885.45        59.31805
885.85        60.24959
886.25        60.83598
886.65        60.95398
887.05        60.75849
887.45         60.3813
887.85        60.05099
888.25        59.86357
888.65        59.72464
889.04        59.68587
889.44        59.84978
889.84        60.19503
890.24        60.69987
890.64        61.17773
891.04        61.33846
891.44        61.14534
891.84         60.6906
892.24        60.17094
892.64        59.93668
893.04        60.08572
893.44        60.50013
893.83        61.05396
894.23        61.52247
894.63        61.84664
895.03        62.10162
895.43        62.27913
895.83        62.36102
896.23         62.3592
896.63        62.24982
897.02        62.12153
897.42         62.1764
897.82        62.41064
898.22        62.77826
898.62        63.10942
899.01        63.12785
899.41        62.76062
899.81        62.11729
900.21        61.39116
900.61        60.90113
901.00        60.72677
901.40        60.84125
901.80        61.12967
902.20        61.25342
902.59        61.12436
902.99         61.1373
903.39        61.47564
903.79        60.62227
904.18        61.47427
904.58         61.6462
904.98        61.88045
905.38        61.95213
905.77        61.82685
906.17        61.58533
906.57        61.27864
906.96        61.09379
907.36        61.08094
907.76        61.20689
908.15        61.45352
908.55        61.64959
908.95        61.79202
909.34        61.86616
909.74        61.95338
910.14        62.13567
910.53        62.42112
910.93        62.77321
911.33        63.02659
911.72        62.92628
912.12        62.45175
912.52        61.69194
912.91        60.90467
913.31         60.5773
913.70        60.78109
914.10         61.3777
914.49        62.08445
914.89        62.33675
915.29        62.01369
915.68        61.27408
916.08        60.42607
916.47        59.90295
916.87        59.86343
917.26        60.17926
917.66         60.6532
918.05        60.98964
918.45        61.07793
918.84        61.00916
919.24        60.94194
919.64        61.18219
920.03        61.77872
920.42        62.59246
920.82        63.33295
921.21        63.57389
921.61        63.26115
922.00        62.60521
922.40        61.98562
922.79        61.86201
923.19        61.95119
923.58        63.01707
923.98        65.15865
924.37        65.44363
924.77        62.36935
925.16        70.28378
925.55         63.4421
925.95        63.60891
926.34        63.47123
926.74        62.77706
927.13        61.46792
927.52        60.73983
927.92        61.07096
928.31        61.76943
928.70        62.64584
929.10          63.341
929.49        63.77319
929.89        64.07423
930.28        64.12668
930.67        63.64078
931.07        62.65586
931.46        61.16121
931.85        59.70716
932.24        59.71234
932.64        61.36934
933.03        63.56534
933.42        65.18467
933.82        68.09729
934.21        66.54006
934.60        65.05487
934.99        63.36251
935.39        62.73239
935.78         63.2986
936.17        65.39097
936.56        72.15646
936.96        64.71748
937.35        68.76082
937.74         65.3084
938.13        62.86319
938.53        60.92406
938.92        60.26985
939.31        61.44187
939.70        63.14482
940.09        64.12255
940.49        64.07349
940.88        63.43545
941.27        62.59568
941.66        62.25394
942.05        62.64858
942.44        63.46968
942.84        64.28488
943.23        64.61052
943.62        64.32497
944.01        63.59344
944.40         62.8214
944.79        62.67603
945.18        63.30494
945.57        64.47427
945.97         65.6431
946.36        66.08842
946.75        65.58961
947.14        64.37444
947.53        62.91771
947.92        62.04675
948.31        62.01475
948.70        62.57224
949.09        63.31564
949.48        63.61966
949.87        63.32925
950.26        62.66661
950.65        61.91073
951.04        61.49628
951.43         61.5548
951.82        61.92459
952.21         62.4246
952.60        62.77058
952.99        62.84416
953.38        62.72401
953.77        62.50715
954.16        62.31468
954.55        62.19705
954.94         62.1541
955.33        62.09858
955.72        61.89511
956.11        61.53946
956.50        61.07042
956.89        60.77373
957.28        61.08128
957.66        62.06146
958.05        63.47881
958.44         64.8557
958.83        65.48066
959.22        65.20006
959.61        64.16364
960.00        62.83508
960.39        62.13421
960.78        62.35276
961.16        63.24752
961.55        64.21067
961.94        64.50646
962.33         64.0011
962.72        62.93204
963.11        61.73534
963.49        61.28675
963.88        61.85926
964.27        63.08351
964.66        64.46628
965.04        65.38154
965.43        65.61073
965.82        65.39052
966.21        64.85184
966.60        64.22529
966.98        63.65014
967.37        63.06583
967.76        62.54928
968.15        62.23698
968.53        62.17056
968.92        62.32142
969.31        62.62352
969.69        62.91227
970.08        63.10015
970.47        63.22385
970.86        63.26764
971.24        63.23612
971.63        63.12975
972.02        62.93779
972.40        62.76841
972.79        62.68814
973.17        62.77947
973.56        63.07656
973.95        63.47603
974.33        63.78173
974.72        63.90985
975.11        63.81289
975.49         63.8268
975.88        64.43318
976.26        65.74102
976.65        67.52537
977.04        69.08295
977.42         69.3355
977.81         68.0557
978.19        65.44763
978.58        62.68668
978.96        61.99984
979.35        63.87238
979.74        67.35686
980.12        70.91163
980.51        72.50692
980.89        71.96665
981.28        69.77119
981.66        66.64443
982.05         64.4355
982.43        63.99047
982.82        64.82919
983.20        66.32402
983.59        67.47578
983.97        67.98811
984.35        68.15184
984.74        68.03393
985.12        67.77272
985.51        67.43105
985.89        67.01961
986.28        66.51717
986.66        65.99453
987.04        65.54063
987.43        65.06979
987.81        64.53551
988.20        65.48469
988.58        68.04585
988.96         69.0776
989.35         67.6526
989.73        74.09539
990.12        70.36821
990.50        70.30025
990.88        69.23191
991.27        68.11591
991.65        67.04292
992.03        66.15031
992.42        65.68018
992.80        65.33212
993.18        65.09863
993.56        65.14024
993.95        65.40053
994.33        65.69995
994.71        65.99139
995.10         66.2341
995.48        66.50463
995.86        66.95689
996.24        67.58814
996.63        68.24716
997.01        68.86073
997.39        69.12729
997.77        68.98215
998.15        68.51691
998.54        67.94638
998.92        67.49544
999.30        67.29322
999.68        67.33126
1000.06         67.4847
1000.45        67.45524
1000.83        67.25296
1001.21        66.94972
1001.59        66.80659
1001.97        67.18751
1002.35        68.06114
1002.73        69.18902
1003.12        70.23531
1003.50        70.85693
1003.88        70.98123
1004.26         70.7382
1004.64        70.24641
1005.02        69.77457
1005.40        69.44931
1005.78        69.17041
1006.16        68.99293
1006.54        68.97054
1006.92        69.11287
1007.30        69.52427
1007.69        69.91609
1008.07        69.93443
1008.45        69.51346
1008.83        68.68916
1009.21        68.05188
1009.59        68.77728
1009.97        70.89925
1010.35        73.64284
1010.73        76.05795
1011.11        77.42155
1011.49        77.80347
1011.86        77.16971
1012.24        75.43196
1012.62        76.06602
1013.00        76.29482
1013.38        75.73667
1013.76         72.8592
1014.14        77.45225
1014.52        84.52834
1014.90        76.55355
1015.28         78.6975
1015.66        80.97201
1016.04        78.12608
1016.41        78.93166
1016.79        78.44012
1017.17        78.32341
1017.55        78.06236
1017.93         77.8624
1018.31        77.89606
1018.69        77.90493
1019.06        77.94772
1019.44        78.09431
1019.82        78.16883
1020.20        77.82547
1020.58        76.99728
1020.95        75.56062
1021.33        74.04688
1021.71        73.76782
1022.09        75.16685
1022.46        77.44001
1022.84        79.46513
1023.22        80.52029
1023.60        80.69201
1023.97        80.30043
1024.35        79.53519
1024.73        78.79411
