SpectraSmart Spectrum 2.9.0.0
--------- Device Information -----------
Spectrum Name :  反射率_0
Saving Time :  2024/04/21 00:01:29
Spectro-Module Model Name : SE2030-DUVN
Spectro-Module Serial Number : OS361AC55029948
Wavelength Start : 200
Wavelength End : 1025
Wavelength Unit : Wavelength(nm)
Spectrum Unit : Reflectance(%)
-----------Spectrum Setting ------------
Integration Time : 20ms
Average : 10
Boxcar : 0
Background removal :  enabled
linearity correction :  enabled
SC :  disabled
Intensity correction :  disabled
DWT denoise :  enabled
savitzky-golay :  disabled
FFT :  disabled
Running average :  disabled
Kalman :  disabled
High pass :  disabled
---------------BEGIN--------------------
Wavelength(nm)             Reflectance(%)
200.29               0
200.75       -18.10726
201.21        6.929984
201.67        19.85037
202.13         24.3995
202.58        23.99769
203.04        21.23223
203.50        16.39135
203.96        10.77318
204.42        5.444792
204.88       -1.097862
205.34       -7.199222
205.80       -11.38734
206.26       -13.41807
206.72        -9.45598
207.18       -6.076618
207.64       -20.03066
208.10       -54.00358
208.55       -101.9408
209.01       -125.9979
209.47       -86.14474
209.93       -27.18426
210.39        20.25113
210.85        50.19144
211.31        62.58356
211.77        62.21846
212.23        50.83205
212.69         23.9027
213.14        -20.3912
213.60        -84.4017
214.06       -238.7159
214.52       -512.2789
214.98       -168.1593
215.44       -9.879432
215.90         37.7943
216.36         50.9645
216.81        47.01547
217.27         24.3667
217.73       -81.22156
218.19        1182.281
218.65        516.2393
219.11       -1119.898
219.57       -42.71382
220.02        26.14566
220.48         38.8054
220.94        33.12614
221.40        8.724299
221.86       -51.54753
222.32       -94.12792
222.77       -43.41627
223.23        2.416418
223.69        26.28004
224.15        35.53354
224.61        37.50708
225.06        36.67189
225.52        33.66422
225.98        28.47877
226.44        21.76892
226.90        12.45611
227.36        5.257928
227.81        9.058384
228.27        20.24091
228.73        32.30108
229.19        40.32474
229.65        41.89234
230.10        38.07001
230.56        30.55036
231.02        20.61644
231.48        13.73467
231.93        14.01797
232.39        19.40566
232.85        26.02083
233.31        30.69832
233.77        33.58333
234.22        36.17064
234.68        38.34703
235.14        39.60242
235.60        40.00808
236.05        38.89874
236.51        36.89064
236.97        40.16115
237.43        49.31393
237.88        56.00674
238.34        57.04581
238.80        73.29595
239.26        66.25812
239.71        63.82189
240.17        56.32304
240.63        49.65473
241.08        48.50315
241.54        55.46546
242.00        68.48106
242.46        77.26324
242.91        79.11143
243.37        73.55871
243.83        62.59085
244.28        55.90972
244.74        59.34258
245.20        68.87063
245.66        76.39909
246.11        73.16436
246.57         58.3507
247.03        34.12507
247.48        5.666481
247.94       -17.82362
248.40       -34.53816
248.85       -51.14373
249.31       -68.36501
249.77       -48.28063
250.22       -15.11192
250.68       -8.347425
251.14       -6.132045
251.59       -2.807533
252.05        2.916543
252.51        11.83711
252.96        25.46394
253.42        43.00786
253.88        58.50776
254.33        70.18089
254.79        76.97691
255.25        78.33532
255.70        77.03677
256.16        75.29951
256.62        74.93163
257.07        77.18146
257.53        81.41116
257.99        85.85966
258.44        88.91039
258.90        90.03728
259.35        88.92707
259.81         87.1214
260.27        84.90953
260.72        82.68282
261.18        81.12373
261.63        79.66164
262.09        78.60664
262.55        77.63359
263.00        76.55079
263.46        75.64241
263.91        74.71247
264.37        74.10016
264.83         73.6489
265.28        73.19197
265.74        72.70911
266.19        71.82589
266.65        70.62997
267.11        69.16177
267.56        67.53484
268.02        66.05837
268.47        64.74545
268.93        63.56738
269.38        62.43662
269.84        61.30165
270.30        60.11967
270.75         58.9262
271.21        57.75023
271.66        56.53403
272.12        55.33096
272.57        54.12539
273.03        53.00347
273.48        52.00559
273.94        51.17599
274.39        50.43706
274.85        49.79644
275.31        49.16144
275.76        48.49159
276.22        47.86245
276.67        47.23014
277.13        46.66932
277.58         46.1167
278.04        45.59476
278.49        45.04398
278.95        44.52715
279.40        43.97094
279.86        43.42543
280.31        42.78956
280.77        42.05124
281.22        41.17669
281.68        40.28492
282.13        39.40717
282.59        38.70048
283.04        38.15604
283.50        37.77375
283.95        37.52482
284.41        37.42267
284.86        37.42173
285.32        37.53734
285.77         37.6656
286.22        37.70418
286.68        37.65182
287.13        37.47599
287.59        37.31385
288.04        37.25639
288.50        37.31551
288.95        37.54006
289.41        37.85638
289.86        37.72391
290.32        37.08153
290.77        37.57233
291.22        36.66282
291.68        36.71413
292.13        36.98015
292.59        37.48798
293.04        38.16323
293.50        38.95806
293.95         39.8486
294.40        40.82683
294.86        41.87495
295.31        42.95244
295.77        44.04677
296.22         45.1338
296.68        46.23134
297.13        47.35892
297.58        48.53717
298.04        49.75891
298.49        51.01301
298.95        52.30918
299.40        53.61682
299.85        54.93513
300.31        56.23557
300.76        57.44009
301.21        58.55214
301.67        59.62453
302.12        60.67244
302.58         61.8354
303.03        63.10394
303.48        64.49052
303.94        65.96406
304.39        67.41805
304.84        68.83096
305.30        70.23598
305.75        71.60899
306.20         73.0276
306.66        74.49826
307.11        75.94163
307.57        77.32877
308.02        78.53823
308.47        79.57967
308.93        80.53073
309.38        81.40826
309.83        82.29595
310.29        83.28455
310.74        84.26962
311.19        85.26044
311.65        86.22594
312.10        87.13243
312.55        87.99715
313.00        88.79096
313.46         89.4705
313.91        90.01863
314.36        90.45662
314.82        90.84768
315.27        91.28674
315.72        91.80306
316.18        92.37276
316.63        92.94039
317.08        93.41631
317.53        93.77364
317.99        94.03634
318.44        94.24519
318.89        94.45244
319.35        94.67309
319.80          94.894
320.25        95.09858
320.70        95.26723
321.16        95.38775
321.61        95.49156
322.06        95.58292
322.51         95.6712
322.97        95.75153
323.42         95.8558
323.87        95.98176
324.32        96.14408
324.78        96.32581
325.23        96.55235
325.68        96.79791
326.13        97.04923
326.59        97.27164
327.04        97.51008
327.49        97.72514
327.94        97.88851
328.39        97.99789
328.85        98.03657
329.30        98.09117
329.75        98.18526
330.20        98.33601
330.66        98.50141
331.11        98.73052
331.56        98.97436
332.01        99.22135
332.46          99.477
332.92         99.6885
333.37        99.89812
333.82        100.0682
334.27        100.2151
334.72        100.3705
335.17        100.5886
335.63        100.8604
336.08        101.2241
336.53        101.6537
336.98        102.1484
337.43        102.6853
337.88        103.2432
338.34        103.7444
338.79        104.1194
339.24        104.3248
339.69         104.391
340.14        104.3649
340.59        104.3273
341.05        104.3228
341.50        104.3568
341.95        104.4549
342.40        104.6556
342.85        104.9607
343.30        105.3555
343.75        105.7976
344.20        106.2182
344.66        106.5905
345.11        106.8961
345.56         107.125
346.01        107.2693
346.46        107.3372
346.91        107.3332
347.36        107.2722
347.81        107.2033
348.26        107.1489
348.72        107.0352
349.17        107.0148
349.62        107.0174
350.07         107.082
350.52        107.1768
350.97        107.2407
351.42         107.175
351.87        106.9479
352.32        106.5882
352.77        106.1267
353.22        105.6092
353.67        105.0656
354.13        104.5173
354.58        103.9608
355.03         103.443
355.48        102.9776
355.93        102.5522
356.38        102.1773
356.83        101.8605
357.28        101.5748
357.73        101.2956
358.18         100.935
358.63        100.3631
359.08        99.56639
359.53        98.59884
359.98        97.56669
360.43        96.62811
360.88        95.83093
361.33         95.1423
361.78        94.51932
362.23        93.88966
362.68        93.22673
363.13        92.54695
363.58        91.86695
364.03        91.20674
364.48        90.56581
364.93        89.93326
365.38        89.26265
365.83        88.49245
366.28        87.61664
366.73        86.64905
367.18        85.68794
367.63        84.88877
368.08        84.28062
368.53        83.82915
368.98        83.38454
369.43        82.69811
369.88        81.72091
370.33        80.52584
370.78        79.30465
371.23        78.40424
371.68        77.92531
372.13        77.75983
372.58        77.72507
373.03        77.52121
373.48        77.05435
373.93        76.41372
374.38        75.67918
374.83        74.99319
375.28        74.41434
375.72        73.87453
376.17        73.38884
376.62        72.93259
377.07        72.47923
377.52        72.03296
377.97        71.56238
378.42        71.01944
378.87        70.41859
379.32        69.79941
379.77        69.19712
380.22        68.64813
380.67        68.15378
381.11        67.69537
381.56         67.2869
382.01        66.96925
382.46        66.74376
382.91        66.59665
383.36        66.44485
383.81        66.15888
384.26        65.71672
384.71         65.1589
385.15        64.56774
385.60        64.13349
386.05        63.87309
386.50        63.73231
386.95        63.63488
387.40        63.46399
387.85         63.1929
388.29        62.82817
388.74        62.48257
389.19        62.15163
389.64        61.83392
390.09        61.49624
390.54        61.15291
390.98        60.82633
391.43        60.56755
391.88         60.3798
392.33        60.20499
392.78        59.99028
393.23        59.73692
393.67        59.32314
394.12        58.93341
394.57        58.94305
395.02        59.24329
395.47        59.20448
395.91        58.81808
396.36        58.57294
396.81        58.50296
397.26        58.33773
397.71        58.06847
398.15         57.8341
398.60        57.70792
399.05        57.46482
399.50        57.22298
399.95        57.40924
400.39        57.88226
400.84        58.01656
401.29        57.74499
401.74        57.23025
402.18        56.66808
402.63        56.54063
403.08        56.77371
403.53        56.66495
403.97        56.18956
404.42        55.84849
404.87        55.67749
405.32        55.53886
405.76        55.43296
406.21        55.32586
406.66        55.22725
407.11        55.30826
407.55        55.48575
408.00        55.39571
408.45        55.05404
408.90        54.64876
409.34        54.32039
409.79        54.33533
410.24         54.6007
410.68        54.67048
411.13        54.51215
411.58         54.4058
412.03          54.373
412.47         54.3216
412.92        54.24139
413.37        54.16943
413.81        54.11881
414.26        54.15096
414.71        54.25333
415.15         54.4179
415.60        54.56873
416.05        54.62121
416.49        54.55553
416.94        54.39305
417.39         54.1916
417.83        54.03646
418.28        53.95161
418.73        53.90401
419.17        53.88076
419.62        53.87172
420.07        53.87257
420.51        53.89605
420.96        53.92737
421.41        53.93294
421.85        53.89681
422.30        53.76455
422.74         53.6054
423.19        53.83386
423.64         54.3531
424.08        54.61189
424.53        54.53032
424.98        54.59972
425.42        54.83991
425.87        54.85196
426.31        54.69508
426.76        54.78583
427.21         55.0708
427.65         55.1111
428.10        54.90387
428.54        54.82116
428.99        54.90105
429.44         54.9794
429.88        55.00788
430.33        54.96124
430.77        54.83989
431.22         54.9255
431.66         55.1661
432.11        55.29835
432.56        55.32856
433.00        55.31454
433.45        55.10289
433.89        55.08075
434.34        55.40808
434.78        54.65094
435.23        54.45234
435.67        55.88254
436.12        56.06092
436.57        56.29086
437.01        55.72765
437.46        55.45938
437.90        56.13138
438.35        55.86256
438.79        56.07796
439.24        56.00621
439.68          56.042
440.13        56.01838
440.57        55.96158
441.02        56.15094
441.46        56.46453
441.91        56.38615
442.35        56.01509
442.80        56.18818
443.24        56.78196
443.69        57.04114
444.13          56.889
444.58        56.74396
445.02        56.65943
445.47        56.69966
445.91        56.82905
446.36        56.87379
446.80         56.8201
447.24        56.76231
447.69         56.7369
448.13        56.88663
448.58        57.00489
449.02        56.95948
449.47        56.74036
449.91        56.63704
450.36        56.68535
450.80        56.65174
451.25         56.5769
451.69        56.66822
452.13        56.87846
452.58         56.9053
453.02        56.75141
453.47         56.6767
453.91        56.68526
454.36        56.64678
454.80        56.53089
455.24        56.41054
455.69        56.31545
456.13        56.08434
456.58        55.82123
457.02        55.95734
457.46        56.21915
457.91        56.16124
458.35        55.85869
458.79        55.69281
459.24        55.69759
459.68        55.64626
460.13        55.59151
460.57        55.42438
461.01        55.13221
461.46        55.54805
461.90        55.19264
462.34        55.11178
462.79        55.12206
463.23        54.84747
463.68         55.4409
464.12         55.1867
464.56        54.58861
465.01        54.64944
465.45        55.18853
465.89        55.21363
466.34        54.80299
466.78        54.74083
467.22        54.96811
467.67        55.10005
468.11        54.46354
468.55        54.27703
468.99        54.35831
469.44        54.34774
469.88        54.24011
470.32        54.23156
470.77        54.31465
471.21        54.36165
471.65        54.35916
472.10         54.3459
472.54        54.29541
472.98        54.20703
473.42          54.094
473.87        53.90649
474.31        53.68703
474.75        53.72779
475.20         53.9529
475.64        53.96504
476.08        53.79672
476.52        53.70328
476.97        53.65829
477.41         53.7364
477.85        53.95136
478.29        53.24993
478.74        53.47362
479.18        53.27164
479.62        53.62156
480.06        53.68673
480.50        53.60588
480.95        53.59876
481.39        53.64048
481.83        53.58599
482.27        53.83911
482.72        53.63087
483.16        53.73081
483.60         53.8707
484.04        53.93298
484.48        53.67548
484.93        53.63096
485.37        53.40911
485.81        53.75687
486.25        53.44223
486.69        54.05079
487.14        53.96358
487.58        53.72824
488.02        53.74704
488.46        53.34838
488.90        53.63747
489.34        53.56793
489.79        53.05704
490.23        53.34475
490.67        53.26576
491.11        53.25609
491.55        53.17358
491.99        53.05894
492.43        53.00409
492.88        53.00219
493.32        53.01134
493.76        52.98292
494.20        52.99248
494.64        53.06548
495.08        52.78406
495.52        52.81332
495.96        52.86485
496.41        53.04222
496.85        52.93371
497.29        52.59101
497.73        52.61236
498.17        52.69457
498.61         52.8823
499.05        52.99294
499.49        52.73904
499.93        52.29264
500.37         52.4063
500.82          52.959
501.26         53.1386
501.70        52.89384
502.14        52.44646
502.58        52.32578
503.02        52.17642
503.46        52.11283
503.90        52.16268
504.34        52.26176
504.78        52.34001
505.22        52.38716
505.66        52.35034
506.10        52.24214
506.54        52.28294
506.98        52.51961
507.42        52.03936
507.86         52.5579
508.30          52.212
508.74        52.30157
509.18        52.14769
509.62        52.02467
510.06        51.96819
510.50        51.96231
510.94        51.93846
511.38        51.88243
511.82        51.85207
512.26        51.84315
512.70        51.82473
513.14        51.79057
513.58        51.74728
514.02        51.69715
514.46        51.63575
514.90        51.57031
515.34        51.56763
515.78        51.63997
516.22        51.70519
516.66        51.59768
517.10        51.96581
517.54        51.72101
517.98        51.72389
518.42        51.67785
518.86        51.64799
519.30        51.64366
519.74        51.62938
520.18        51.62568
520.62        51.71917
521.06        51.86875
521.50        51.88219
521.93        51.77835
522.37        51.75117
522.81        51.81242
523.25        51.85522
523.69        51.85235
524.13        51.81118
524.57        51.73268
525.01        51.62118
525.45        51.52678
525.89        51.52799
526.32        51.63424
526.76        51.82042
527.20        52.02604
527.64         52.1558
528.08        52.18301
528.52        52.13922
528.96        52.05669
529.40        51.98086
529.83        51.92855
530.27        51.90931
530.71        51.91096
531.15        51.91403
531.59        51.91284
532.03        51.91865
532.46        51.92266
532.90        51.91894
533.34        51.90086
533.78        51.87018
534.22        51.82604
534.66        51.76807
535.09        51.69454
535.53        51.62917
535.97        51.57173
536.41        51.53582
536.85        51.52443
537.28        51.52914
537.72        51.55519
538.16        51.61101
538.60        51.68791
539.04        51.77876
539.47        51.83559
539.91        51.83074
540.35        51.74683
540.79        51.60307
541.22        51.44135
541.66        51.34266
542.10         51.3237
542.54        51.36205
542.97         51.4234
543.41        51.47778
543.85        51.50962
544.29        51.54242
544.72        51.56436
545.16        51.60347
545.60         51.6502
546.04        51.62629
546.47        51.57762
546.91        51.69653
547.35        51.91041
547.79        51.97612
548.22        51.85229
548.66        51.58808
549.10        51.29546
549.53        51.25403
549.97         51.4431
550.41        51.50486
550.84        51.42144
551.28        51.41887
551.72        51.51031
552.15        51.58259
552.59        51.63727
553.03          51.624
553.46        51.85485
553.90        51.56486
554.34        51.68919
554.77        51.55378
555.21        51.46359
555.65        51.38561
556.08        51.45677
556.52        51.54461
556.96        51.63119
557.39        51.68564
557.83        51.69418
558.27        51.60774
558.70        51.47084
559.14        51.41258
559.57        51.44539
560.01        51.55179
560.45         51.6532
560.88        51.67088
561.32        51.63336
561.75        51.42989
562.19        51.20029
562.63        51.35517
563.06        51.77543
563.50        51.81109
563.93        51.47387
564.37        51.30449
564.80        51.33549
565.24        51.43117
565.68         51.5568
566.11        51.62069
566.55        51.61956
566.98        51.69991
567.42        51.83487
567.85        51.70627
568.29        51.43353
568.72        51.42019
569.16        51.67543
569.60        51.77184
570.03        51.71947
570.47        51.75048
570.90           51.84
571.34        51.75234
571.77        52.24761
572.21        51.75616
572.64        51.84154
573.08        51.75203
573.51        51.58878
573.95        51.93455
574.38        51.83498
574.82         52.3881
575.25        51.96255
575.69         51.7806
576.12        51.53711
576.56        51.79458
576.99        52.16911
577.42        52.07208
577.86        51.89387
578.29        52.28816
578.73        52.35378
579.16        51.87898
579.60        51.49007
580.03        51.88816
580.47        51.86671
580.90        51.83783
581.33        51.92852
581.77        52.36811
582.20        52.21467
582.64        52.13272
583.07        51.88962
583.51        51.78801
583.94        51.66054
584.37        51.74921
584.81        51.52945
585.24        51.46329
585.68        51.80243
586.11        51.74246
586.54        51.92377
586.98        52.21756
587.41        51.82689
587.85        52.10926
588.28        52.12758
588.71        52.02541
589.15        51.95996
589.58         51.9046
590.01        51.62732
590.45        51.76474
590.88        51.80238
591.31        51.50238
591.75        51.43207
592.18        51.40738
592.61        51.48547
593.05         52.3086
593.48         52.0572
593.91        51.86443
594.35        51.59834
594.78        51.50487
595.21        51.84081
595.65        51.85349
596.08        51.62431
596.51        51.71195
596.94        51.63238
597.38         51.7298
597.81        51.91752
598.24        51.48784
598.68        51.88862
599.11        51.59319
599.54        52.02634
599.97        51.72358
600.41        51.57929
600.84        51.84863
601.27        51.87841
601.70         51.5685
602.14        51.50691
602.57         51.4836
603.00        51.72878
603.43        51.69742
603.87        51.90885
604.30        51.82858
604.73        51.98413
605.16        51.83053
605.60        51.71291
606.03         51.8038
606.46        52.17625
606.89        51.83839
607.32        51.40455
607.76        52.24247
608.19        51.86099
608.62        51.75428
609.05        52.45996
609.48        51.88711
609.92        51.97091
610.35        51.77505
610.78        51.94793
611.21        51.42117
611.64         51.7208
612.07        51.71701
612.50        51.79383
612.94         51.8151
613.37        51.79002
613.80        51.71854
614.23        51.60632
614.66        51.52751
615.09        51.48963
615.52        51.41877
615.96        51.32727
616.39        51.31725
616.82        51.40077
617.25          51.353
617.68         51.5424
618.11        51.45883
618.54        51.40949
618.97        51.32676
619.40         51.2462
619.84        51.46086
620.27        51.46209
620.70        51.38203
621.13        51.14913
621.56        51.28703
621.99         51.7453
622.42        51.82921
622.85        51.49047
623.28        51.48429
623.71          51.514
624.14        51.36601
624.57        51.36899
625.00        51.66578
625.43        51.21873
625.86        51.28958
626.29        51.55043
626.72        51.28694
627.15         51.3738
627.58        51.29189
628.01         51.3778
628.44        51.16176
628.87        50.97736
629.30        51.45151
629.73        51.27948
630.16        51.16441
630.59        51.14065
631.02        51.35442
631.45         51.1918
631.88        51.24292
632.31        51.31696
632.74         51.1529
633.17        51.26722
633.60         51.2204
634.03        51.17375
634.46         51.1616
634.89        51.11197
635.32        51.10228
635.75        51.10427
636.18        51.12185
636.61        51.14392
637.04        51.15491
637.47        51.15228
637.89        51.14581
638.32        51.13299
638.75        51.13247
639.18        51.14836
639.61        51.17566
640.04        51.20983
640.47        51.24454
640.90        51.27538
641.33          51.301
641.76        51.32069
642.18        51.33947
642.61        51.34496
643.04        51.34201
643.47        51.32539
643.90        51.29223
644.33        51.24532
644.76        51.17582
645.18        51.10048
645.61        51.07212
646.04        51.08222
646.47        51.05242
646.90         50.9934
647.33        50.98822
647.75         51.0293
648.18        51.08715
648.61        51.16321
649.04        51.19458
649.47        51.15828
649.89        51.39614
650.32        51.32572
650.75        51.30203
651.18         51.1792
651.61        51.08271
652.03        51.04029
652.46        51.00211
652.89        50.98409
653.32         51.0163
653.74        51.07584
654.17        51.04939
654.60        50.94199
655.03        50.87569
655.46        50.87624
655.88        51.34798
656.31        52.32223
656.74        54.36655
657.16         52.7154
657.59        51.59464
658.02        50.82078
658.45        51.25494
658.87        51.47052
659.30         51.2272
659.73         51.0472
660.15        50.42411
660.58        51.02138
661.01         51.2864
661.44        51.49355
661.86        51.45412
662.29         51.2025
662.72        50.97786
663.14        50.87579
663.57         50.9694
664.00        51.18801
664.42        51.26453
664.85        51.18416
665.27        51.03152
665.70        51.01357
666.13        50.98158
666.55        51.00104
666.98        51.06428
667.41        51.14052
667.83        51.18351
668.26         51.1871
668.69         51.1193
669.11        50.99247
669.54        51.00608
669.96        51.20915
670.39        50.87485
670.82          51.208
671.24        51.15115
671.67        51.06108
672.09        51.01565
672.52        51.03894
672.94        50.96914
673.37        50.84204
673.80        50.86795
674.22        51.02829
674.65        51.08721
675.07        51.04274
675.50        51.00518
675.92        50.99331
676.35         50.9739
676.77        50.94952
677.20        50.94815
677.62        50.99506
678.05        51.03163
678.47        51.03891
678.90        51.36185
679.32        51.35202
679.75        51.46755
680.17        51.51356
680.60         51.5191
681.02        51.49344
681.45        51.46817
681.87        51.46104
682.30        51.42968
682.72        51.40703
683.15        51.44914
683.57        51.50839
684.00        51.63351
684.42        51.38351
684.85        51.30629
685.27        51.27273
685.70        51.19963
686.12        51.08506
686.54        51.01554
686.97        50.99784
687.39        51.00113
687.82        51.07639
688.24        51.15608
688.66        51.22772
689.09        51.49033
689.51        51.53108
689.94        51.65496
690.36        51.72098
690.78         51.6803
691.21        51.57083
691.63        51.47206
692.06        51.44264
692.48        51.53663
692.90        51.71126
693.33        51.80579
693.75        51.81104
694.17        51.77847
694.60        51.70066
695.02        51.75123
695.44        51.70762
695.87        51.52332
696.29        51.25338
696.71        51.34412
697.14        51.72321
697.56        51.94489
697.98        51.97506
698.41        51.83295
698.83        52.02626
699.25        51.93105
699.68        51.72847
700.10        51.57026
700.52        51.48556
700.94        51.43255
701.37        51.38103
701.79        51.33127
702.21        51.26472
702.64         51.2047
703.06        51.17446
703.48        51.20725
703.90        51.30799
704.33        51.45461
704.75        51.61308
705.17        51.71355
705.59        51.73725
706.01        51.69795
706.44        51.63178
706.86        51.61551
707.28        51.65831
707.70         51.7408
708.12        51.83213
708.55        51.87614
708.97         51.8554
709.39        51.79784
709.81        51.73123
710.23        51.70454
710.66        51.73412
711.08        51.81245
711.50        51.90572
711.92        51.96201
712.34        51.96701
712.76        51.95994
713.19        51.96346
713.61        51.90289
714.03         52.0086
714.45        52.08326
714.87        52.17275
715.29        52.19702
715.71         52.1422
716.13        52.16321
716.56        52.02854
716.98        52.01682
717.40        52.05648
717.82        52.13605
718.24        52.23041
718.66        52.30275
719.08        52.34206
719.50        52.35601
719.92        52.35558
720.34        52.35692
720.76        52.36509
721.19        52.36695
721.61        52.37129
722.03        52.36865
722.45           52.36
722.87        52.35282
723.29         52.3523
723.71        52.36496
724.13         52.3921
724.55        52.42656
724.97        52.47267
725.39        52.53782
725.81        52.61869
726.23        52.71114
726.65        52.78629
727.07        52.80702
727.49        52.76847
727.91         52.6627
728.33        52.53609
728.75        52.51051
729.17         52.5868
729.59        52.64917
730.01        52.67132
730.43        52.69915
730.85        52.72368
731.27        52.68034
731.69        52.61253
732.10        52.60896
732.52        52.81936
732.94        52.80907
733.36          52.651
733.78        52.59737
734.20        52.66104
734.62        52.68396
735.04         52.6635
735.46         52.6705
735.88        52.70775
736.30        52.76404
736.72        52.80691
737.13        52.81511
737.55        52.75618
737.97         52.5966
738.39        52.41705
738.81        52.48657
739.23        52.76402
739.65        52.87902
740.06        52.77636
740.48        52.76083
740.90        52.80435
741.32        52.73976
741.74        52.60266
742.16        52.55717
742.57        52.63705
742.99        52.77635
743.41        52.93928
743.83        53.05394
744.25        53.09818
744.67        53.09152
745.08        53.07883
745.50        53.09566
745.92        53.16788
746.34        53.28443
746.75        53.39883
747.17        53.43489
747.59        53.37838
748.01        53.22213
748.42        53.05395
748.84        53.03281
749.26        53.15536
749.68        53.34945
750.09        53.51179
750.51        53.40057
750.93         53.0886
751.35        52.99232
751.76        53.13777
752.18        53.20565
752.60        53.19443
753.01        53.33907
753.43        53.53563
753.85        53.53855
754.27        53.32052
754.68        52.95521
755.10        52.59434
755.52        52.45375
755.93        52.58112
756.35        52.91294
756.77        53.31563
757.18        53.53513
757.60        53.50102
758.02        53.34732
758.43         53.2168
758.85        52.91048
759.26         53.3032
759.68        53.47514
760.10        52.99711
760.51        53.12744
760.93        53.25296
761.34        53.44565
761.76        53.54361
762.18        53.59967
762.59         53.5839
763.01        53.67723
763.42        53.20157
763.84        53.32849
764.26        53.38501
764.67        53.60872
765.09        53.80273
765.50        54.00341
765.92        54.16191
766.33        54.06482
766.75         53.7718
767.16        53.65035
767.58        53.69434
768.00        53.86077
768.41        54.07692
768.83        53.92719
769.24        53.45424
769.66        53.68069
770.07        53.47534
770.49         53.6907
770.90        53.89531
771.32        53.81216
771.73        53.50851
772.15        53.43525
772.56        53.63672
772.97        53.82605
773.39         53.9235
773.80        54.00103
774.22        54.01218
774.63         53.9605
775.05        53.86105
775.46        53.78181
775.88        53.72768
776.29        53.71294
776.70        53.71755
777.12        53.71418
777.53        53.71545
777.95        53.73049
778.36        53.77586
778.77        53.87103
779.19        54.00813
779.60        54.16816
780.02        54.32854
780.43        54.46123
780.84        54.54963
781.26        54.62822
781.67        54.69094
782.09         54.5791
782.50        54.34573
782.91        54.24227
783.33        54.26919
783.74        54.29607
784.15         54.2959
784.57        54.40123
784.98        54.60171
785.39        54.74984
785.81        54.84182
786.22        54.98496
786.63        55.15028
787.04        55.21643
787.46         55.1874
787.87        55.10726
788.28        55.00055
788.70        54.87747
789.11        54.73706
789.52        54.59052
789.93        54.47448
790.35        54.43596
790.76         54.4995
791.17        54.66053
791.58        54.85107
792.00        54.97784
792.41        55.04642
792.82        54.95974
793.23        54.83699
793.65        55.08257
794.06        55.59834
794.47        55.81703
794.88        55.77819
795.29        55.54756
795.71        55.97308
796.12        56.04162
796.53        55.96564
796.94        55.95329
797.35        55.96312
797.76        55.70293
798.18        55.26719
798.59         55.0575
799.00        55.11919
799.41        55.28226
799.82        55.45058
800.23        55.52584
800.64        55.46714
801.06        55.28915
801.47        55.10248
801.88        55.02197
802.29        55.08417
802.70        55.24931
803.11        55.45742
803.52        55.60673
803.93        55.66214
804.34        55.65372
804.75        55.62331
805.17        55.62267
805.58        55.69151
805.99        55.81226
806.40        55.95033
806.81        56.01102
807.22        55.99447
807.63        56.00539
808.04        56.06914
808.45        56.13957
808.86        56.21595
809.27        56.33361
809.68        56.45784
810.09        56.50428
810.50        56.45642
810.91        56.34108
811.32        56.19452
811.73         56.0759
812.14        56.00711
812.55        55.97472
812.96        55.96581
813.37        55.95774
813.78        55.94049
814.19        55.92068
814.60         55.9029
815.01        55.89034
815.42        55.88567
815.83        55.89183
816.24        55.89803
816.65        55.88702
817.05        55.86541
817.46        55.81744
817.87        55.80447
818.28        55.88501
818.69        56.06661
819.10         56.3274
819.51        56.61338
819.92        56.82342
820.33        56.91808
820.74        56.91759
821.14        56.85162
821.55          56.793
821.96         56.7532
822.37        56.71308
822.78        56.66504
823.19        56.59782
823.60        56.50959
824.00        56.42606
824.41        56.32576
824.82        56.21613
825.23        56.10318
825.64        55.99493
826.04        55.92238
826.45        55.89644
826.86        55.93512
827.27         56.0398
827.68        56.18872
828.08        56.35978
828.49        56.46898
828.90        56.55613
829.31        56.66832
829.72         56.7612
830.12        56.82742
830.53        57.34789
830.94         57.3026
831.35         57.2174
831.75        56.80991
832.16        56.15702
832.57        55.50153
832.97        55.25071
833.38        55.49628
833.79        56.09498
834.20        56.81593
834.60        57.31001
835.01        57.47504
835.42        57.41188
835.82        57.21857
836.23        57.02995
836.64        56.92432
837.04        56.86518
837.45        56.82872
837.86        56.83911
838.26        56.90171
838.67        57.01011
839.08        57.15986
839.48        57.31502
839.89        57.45204
840.29        57.56851
840.70        57.64831
841.11        57.66319
841.51        57.62384
841.92         57.5089
842.33        57.36548
842.73        57.27148
843.14        57.21417
843.54        57.21388
843.95        57.23947
844.35        57.25245
844.76        57.23426
845.17        57.19184
845.57        57.17048
845.98        57.21497
846.38        57.34962
846.79        57.52707
847.19        57.69365
847.60        57.69328
848.00         57.5304
848.41        57.23141
848.81        56.92379
849.22        56.77143
849.62        56.85579
850.03        57.08593
850.43        57.41483
850.84        57.66766
851.24        57.83685
851.65         57.9096
852.05        57.93157
852.46        57.90927
852.86        57.85229
853.27        57.78606
853.67         57.6581
854.07        57.51731
854.48        57.34734
854.88        57.17059
855.29        56.98306
855.69        56.91089
856.10        56.90277
856.50        57.00751
856.90        57.11915
857.31        57.09919
857.71        56.96469
858.12        56.71684
858.52        56.43943
858.92        56.23126
859.33        56.11859
859.73        56.11448
860.13        56.18919
860.54        56.28819
860.94        56.44181
861.34        56.62062
861.75        56.79249
862.15        56.97305
862.55        57.11626
862.96        57.19381
863.36        57.20565
863.76        57.11204
864.17        56.91952
864.57         56.6828
864.97         56.4171
865.38        56.13266
865.78        55.88294
866.18         55.6633
866.58        55.59019
866.99        55.81905
867.39        56.37514
867.79        57.17021
868.19         57.9514
868.60        58.26973
869.00        58.14038
869.40        57.88309
869.80        57.57787
870.21        57.15083
870.61        56.72865
871.01        56.43561
871.41        56.23393
871.81        55.94578
872.22          55.582
872.62        55.21349
873.02        54.92685
873.42        55.08192
873.82        55.47889
874.22        55.40445
874.63        55.12528
875.03        55.21133
875.43        55.69381
875.83        57.44139
876.23        57.07357
876.63        56.42822
877.03        55.17092
877.44        52.60451
877.84         184.641
878.24        53.63134
878.64        54.49877
879.04        56.28202
879.44        56.86572
879.84        52.81562
880.24        59.03965
880.64         59.4123
881.04        56.66053
881.44          54.568
881.84        53.79286
882.24        54.46692
882.65        55.86584
883.05        56.30127
883.45        55.45412
883.85        54.37174
884.25        53.53252
884.65        53.19889
885.05        53.50007
885.45        54.24767
885.85         55.1103
886.25        55.64582
886.65        55.74749
887.05        55.57512
887.45        55.25409
887.85        54.99487
888.25        54.88711
888.65        54.83096
889.04         54.8972
889.44        55.22392
889.84        55.77154
890.24        56.48115
890.64        57.09799
891.04        57.23525
891.44        56.85102
891.84        56.09401
892.24        55.21565
892.64        54.66433
893.04        54.59267
893.44        54.86078
893.83          55.395
894.23        56.03942
894.63         56.7194
895.03        57.47697
895.43        58.15007
895.83        58.46265
896.23        58.37291
896.63         57.9413
897.02        57.41149
897.42        57.21893
897.82        57.41929
898.22        57.88908
898.62        58.39909
899.01        58.57057
899.41         58.2936
899.81        57.72791
900.21        57.04428
900.61        56.51552
901.00        56.22634
901.40        56.15211
901.80        56.27588
902.20        56.40344
902.59        56.45757
902.99        56.81462
903.39         57.5278
903.79        56.68776
904.18        57.43301
904.58        57.23836
904.98        57.02254
905.38        56.68568
905.77        56.25016
906.17          55.751
906.57        55.28144
906.96         55.1052
907.36        55.27055
907.76        55.73152
908.15         56.3351
908.55        56.67834
908.95        56.69865
909.34        56.43288
909.74        56.11976
910.14        56.10699
910.53        56.46495
910.93        57.07286
911.33        57.62735
911.72        57.65215
912.12        57.07765
912.52        56.08418
912.91        55.03021
913.31        54.55406
913.70        54.76875
914.10        55.47287
914.49        56.35675
914.89        56.81627
915.29        56.70157
915.68        56.20022
916.08        55.54662
916.47        55.05784
916.87        54.87782
917.26        54.88445
917.66        55.04514
918.05        55.33721
918.45        55.69565
918.84        56.13914
919.24        56.56654
919.64        56.85572
920.03        56.97113
920.42         56.9099
920.82        56.70639
921.21        56.45118
921.61        56.22066
922.00        56.08196
922.40        56.12518
922.79         56.3087
923.19        56.17416
923.58        56.80542
923.98        58.63577
924.37         58.6223
924.77        55.05967
925.16        64.85291
925.55        57.33411
925.95        58.04458
926.34        58.25619
926.74        57.75911
927.13        56.45571
927.52        55.60902
927.92        55.77903
928.31        56.25234
928.70        56.93087
929.10        57.58706
929.49        58.15902
929.89        58.71722
930.28        59.14488
930.67        59.14396
931.07        58.69377
931.46         57.7579
931.85        56.66853
932.24        56.52288
932.64        57.51554
933.03        58.64244
933.42        59.04359
933.82        61.62549
934.21        59.64869
934.60        58.38029
934.99        57.23388
935.39        57.19802
935.78         58.2108
936.17         60.7672
936.56        68.47158
936.96        60.01512
937.35         64.5285
937.74        60.43601
938.13        57.42731
938.53        55.09628
938.92        54.37995
939.31        55.86014
939.70         57.9478
940.09        59.04203
940.49        58.77989
940.88        57.73949
941.27        56.37352
941.66        55.52818
942.05         55.5479
942.44        56.05463
942.84        56.73102
943.23         57.2844
943.62        57.57614
944.01        57.72751
944.40        57.83953
944.79        58.03812
945.18        58.34542
945.57        58.68221
945.97        58.89054
946.36        58.86491
946.75        58.54253
947.14        57.98196
947.53        57.36617
947.92        57.00431
948.31        56.98682
948.70        57.23409
949.09        57.55606
949.48        57.64702
949.87        57.44127
950.26         57.0456
950.65        56.61634
951.04        56.40372
951.43        56.48375
951.82        56.76962
952.21        57.16294
952.60        57.50443
952.99        57.70999
953.38         57.7977
953.77        57.80479
954.16        57.78195
954.55        57.75471
954.94        57.73936
955.33        57.65879
955.72        57.39309
956.11        56.94909
956.50        56.36815
956.89        55.92605
957.28        56.04134
957.66        56.79538
958.05        57.97005
958.44        59.14275
958.83        59.67313
959.22        59.41558
959.61        58.50023
960.00        57.32854
960.39        56.69608
960.78        56.86109
961.16        57.63076
961.55        58.45116
961.94        58.67498
962.33        58.18285
962.72        57.17059
963.11         56.0715
963.49        55.74682
963.88        56.45301
964.27        57.82785
964.66        59.30304
965.04        60.14279
965.43        60.12786
965.82        59.52956
966.21        58.62645
966.60        57.91354
966.98        57.59296
967.37         57.5278
967.76        57.62611
968.15        57.73883
968.53        57.83008
968.92         57.9662
969.31        58.17173
969.69        58.44479
970.08        58.74779
970.47        59.02021
970.86        59.26256
971.24        59.51251
971.63        59.73357
972.02        59.91125
972.40        59.96021
972.79        59.65028
973.17        59.02965
973.56        58.20819
973.95         57.4007
974.33        56.98787
974.72         57.0883
975.11        57.55252
975.49        58.36305
975.88        59.39135
976.26        60.59183
976.65         61.9007
977.04        63.00346
977.42        63.41859
977.81        63.03772
978.19         61.8798
978.58        60.65654
978.96        60.63153
979.35        62.01316
979.74         64.2592
980.12        66.42146
980.51        67.13119
980.89        66.32532
981.28        64.28793
981.66         61.5723
982.05        59.68642
982.43        59.28071
982.82        60.01003
983.20        61.31597
983.59        62.27817
983.97        62.64898
984.35        62.69539
984.74        62.48299
985.12        62.17364
985.51        61.84541
985.89        61.49271
986.28         61.1797
986.66        61.12279
987.04        61.40385
987.43        61.87267
987.81        62.19067
988.20        63.45729
988.58        65.72351
988.96        65.90913
989.35        63.20359
989.73        69.95472
990.12        65.53308
990.50        65.74913
990.88        65.12151
991.27        64.59138
991.65        64.14021
992.03        63.97613
992.42        64.13306
992.80        63.90214
993.18        63.20645
993.56        62.28499
993.95        61.45947
994.33        61.19495
994.71        61.62604
995.10        62.56368
995.48        63.76372
995.86        64.83217
996.24        65.58182
996.63        65.98277
997.01        66.19466
997.39        66.28416
997.77        66.27077
998.15        66.13818
998.54        65.82378
998.92        65.11193
999.30        64.05075
999.68        62.77823
1000.06        61.61969
1000.45        61.15902
1000.83        61.68246
1001.21        62.94903
1001.59        64.67156
1001.97         66.4096
1002.35        67.89429
1002.73        69.11278
1003.12        69.92557
1003.50        70.24468
1003.88        70.08638
1004.26        69.50049
1004.64         68.6021
1005.02        67.70707
1005.40        66.99715
1005.78        66.43365
1006.16        66.14822
1006.54        66.25368
1006.92        66.73671
1007.30        67.63929
1007.69         68.5208
1008.07        68.82922
1008.45        68.44609
1008.83        67.44537
1009.21         66.4616
1009.59        66.81028
1009.97        68.64073
1010.35        71.18585
1010.73        73.50216
1011.11        74.87974
1011.49        75.39202
1011.86         74.9652
1012.24        73.51873
1012.62        74.69162
1013.00        75.35169
1013.38        75.08974
1013.76        72.28326
1014.14        76.84178
1014.52        83.82954
1014.90        74.76891
1015.28        76.15601
1015.66        77.81702
1016.04        73.65883
1016.41        74.10202
1016.79         73.3126
1017.17        73.29504
1017.55        73.36883
1017.93        73.76592
1018.31         74.6734
1018.69        75.70477
1019.06        76.76891
1019.44        77.84558
1019.82        78.53658
1020.20        78.26259
1020.58        76.91172
1020.95        74.28994
1021.33        71.10637
1021.71        69.61683
1022.09         70.8973
1022.46         73.8794
1022.84        76.80116
1023.22        78.37041
1023.60        78.64886
1023.97        78.13457
1024.35        77.18899
1024.73        76.52264
