SpectraSmart Spectrum 2.9.0.0
--------- Device Information -----------
Spectrum Name :  反射率_0
Saving Time :  2024/04/21 00:47:32
Spectro-Module Model Name : SE2030-DUVN
Spectro-Module Serial Number : OS361AC55029948
Wavelength Start : 200
Wavelength End : 1025
Wavelength Unit : Wavelength(nm)
Spectrum Unit : Reflectance(%)
-----------Spectrum Setting ------------
Integration Time : 20ms
Average : 10
Boxcar : 0
Background removal :  enabled
linearity correction :  enabled
SC :  disabled
Intensity correction :  disabled
DWT denoise :  enabled
savitzky-golay :  disabled
FFT :  disabled
Running average :  disabled
Kalman :  disabled
High pass :  disabled
---------------BEGIN--------------------
Wavelength(nm)             Reflectance(%)
200.29               0
200.75       -100.1731
201.21       -28.06558
201.67        10.96167
202.13        22.83006
202.58        17.85994
203.04        2.308199
203.50       -19.70275
203.96       -35.36603
204.42       -37.19218
204.88       -30.29836
205.34       -20.08727
205.80       -13.83466
206.26        -13.4034
206.72       -14.62542
207.18       -18.40917
207.64       -27.20516
208.10       -38.77422
208.55       -52.60939
209.01       -54.48498
209.47       -30.77689
209.93       -2.717728
210.39        18.06133
210.85        30.82874
211.31        36.49058
211.77        37.26825
212.23        34.48074
212.69        24.67669
213.14        -1.42447
213.60        -64.7691
214.06       -275.6617
214.52       -805.0168
214.98       -382.6838
215.44        -105.417
215.90       -10.66252
216.36        21.31862
216.81        25.81339
217.27        9.036697
217.73       -82.41273
218.19        1027.071
218.65        436.4477
219.11       -938.4295
219.57       -36.53545
220.02        20.59213
220.48        30.61331
220.94        25.08656
221.40        3.146545
221.86       -50.13269
222.32       -86.42756
222.77       -40.18076
223.23       0.8826759
223.69        22.00066
224.15        29.83916
224.61        30.97987
225.06        29.35909
225.52        25.73283
225.98        20.49843
226.44        14.38512
226.90        6.306965
227.36       0.4144051
227.81        4.306559
228.27        14.54997
228.73        25.54624
229.19        32.86927
229.65        34.28087
230.10        30.78214
230.56        24.03284
231.02        15.29582
231.48        9.459463
231.93        10.06787
232.39        15.23913
232.85        21.09701
233.31        24.32926
233.77        25.09593
234.22        24.92716
234.68        24.05454
235.14        22.83035
235.60        21.80064
236.05        19.99634
236.51        17.74558
236.97        21.93637
237.43         33.0281
237.88         40.3625
238.34        39.75888
238.80        61.53492
239.26        51.14222
239.71        48.30296
240.17        38.85951
240.63        29.84075
241.08        26.27468
241.54        31.56774
242.00        44.22007
242.46        51.24561
242.91          48.908
243.37        37.58554
243.83        19.14682
244.28        5.244097
244.74        4.763281
245.20        12.12719
245.66        20.78248
246.11        24.50051
246.57        22.13119
247.03        16.15517
247.48        7.362244
247.94        -3.09188
248.40       -17.41078
248.85       -50.70406
249.31       -149.2719
249.77       -222.7469
250.22       -70.16207
250.68        -8.53908
251.14        11.72968
251.59        19.22987
252.05        22.63637
252.51        25.35573
252.96        26.59136
253.42         24.7217
253.88        20.46852
254.33        16.45317
254.79        18.74243
255.25        29.00062
255.70        41.55125
256.16        52.46403
256.62        59.99596
257.07        63.47773
257.53        64.56332
257.99        64.28959
258.44        63.28069
258.90         62.7441
259.35        62.19373
259.81        61.80375
260.27         61.1511
260.72        59.91639
261.18        58.61974
261.63        57.22684
262.09        56.08321
262.55         55.0626
263.00        54.04513
263.46        53.16001
263.91        52.31208
264.37        51.82993
264.83        51.57565
265.28        51.38956
265.74        51.13469
266.19        50.39729
266.65        49.22272
267.11        47.70052
267.56        46.01632
268.02        44.55274
268.47        43.36781
268.93        42.41678
269.38        41.56369
269.84        40.65585
270.30        39.64126
270.75        38.57858
271.21         37.5937
271.66        36.80071
272.12        36.23511
272.57        35.80034
273.03        35.38416
273.48        34.78611
273.94        33.99824
274.39         33.0619
274.85        32.11896
275.31        31.30508
275.76        30.65788
276.22         30.1753
276.67        29.78513
277.13        29.46673
277.58        29.15407
278.04        28.87008
278.49         28.5855
278.95        28.34274
279.40         28.0878
279.86        27.84117
280.31        27.49993
280.77        27.00957
281.22        26.35291
281.68        25.63979
282.13        24.94984
282.59        24.47458
283.04        24.21832
283.50        24.13657
283.95        24.17254
284.41        24.26769
284.86        24.37521
285.32        24.52889
285.77        24.64937
286.22        24.64227
286.68        24.52433
287.13        24.28084
287.59        24.08558
288.04        24.09969
288.50        24.32195
288.95        24.80684
289.41        25.42468
289.86         25.4999
290.32        24.92713
290.77        25.67723
291.22        24.70804
291.68        24.80702
292.13        25.09916
292.59        25.62255
293.04        26.32103
293.50        27.17791
293.95        28.18496
294.40        29.32288
294.86        30.57516
295.31        31.89849
295.77        33.27016
296.22        34.67006
296.68         36.0863
297.13        37.50296
297.58        38.93986
298.04        40.40728
298.49        41.94462
298.95        43.63379
299.40        45.46324
299.85        47.41191
300.31        49.40346
300.76        51.29254
301.21           53.06
301.67        54.76877
302.12        56.47585
302.58        58.38022
303.03        60.48444
303.48        62.77594
303.94        65.16285
304.39        67.44675
304.84        69.58289
305.30        71.62801
305.75         73.6217
306.20        75.73994
306.66         78.0076
307.11         80.3113
307.57        82.55617
308.02        84.51872
308.47        86.20048
308.93        87.71782
309.38           89.16
309.83        90.74084
310.29        92.54096
310.74        94.41973
311.19        96.29825
311.65        98.02483
312.10        99.52662
312.55        100.8564
313.00        102.0167
313.46        103.0184
313.91        103.8668
314.36        104.5713
314.82        105.2122
315.27         105.906
315.72        106.6942
316.18        107.5629
316.63        108.4389
317.08        109.1935
317.53         109.788
317.99        110.2467
318.44        110.6419
318.89        111.0774
319.35        111.5732
319.80         112.101
320.25        112.5792
320.70        112.8873
321.16        112.9947
321.61        112.9667
322.06        112.9003
322.51         112.955
322.97        113.1614
323.42        113.5235
323.87        113.9434
324.32        114.2735
324.78         114.455
325.23        114.5728
325.68        114.6991
326.13         114.985
326.59        115.4328
327.04        116.0374
327.49        116.6676
327.94        117.1507
328.39         117.431
328.85        117.5218
329.30        117.5656
329.75        117.6559
330.20        117.8417
330.66        118.0595
331.11        118.3492
331.56        118.6229
332.01        118.8672
332.46        119.1082
332.92        119.3364
333.37        119.6853
333.82         120.118
334.27        120.6139
334.72        121.1272
335.17        121.5871
335.63        121.9432
336.08        122.2846
336.53         122.624
336.98        123.0408
337.43         123.551
337.88        124.1153
338.34        124.6806
338.79        125.2265
339.24        125.7036
339.69        126.1352
340.14        126.4946
340.59        126.7455
341.05        126.8979
341.50        126.9684
341.95        127.0576
342.40        127.3367
342.85        127.8337
343.30        128.5003
343.75        129.1804
344.20        129.6236
344.66        129.7843
345.11        129.7211
345.56        129.5901
346.01        129.6404
346.46        129.9404
346.91          130.38
347.36        130.8242
347.81        131.1682
348.26        131.3809
348.72        131.1469
349.17        131.2036
349.62        131.1677
350.07        131.2709
350.52        131.4418
350.97        131.5887
351.42        131.5596
351.87        131.3103
352.32        130.8953
352.77        130.4085
353.22         129.985
353.67        129.6588
354.13         129.413
354.58        129.1352
355.03        128.7043
355.48        128.1021
355.93        127.3779
356.38        126.6541
356.83        126.1093
357.28        125.7631
357.73        125.5432
358.18        125.3013
358.63        124.8064
359.08        124.0124
359.53         123.008
359.98        121.9214
360.43        120.9446
360.88        120.1261
361.33        119.3967
361.78        118.7073
362.23        117.9826
362.68        117.1955
363.13        116.3861
363.58        115.5291
364.03        114.5746
364.48        113.5262
364.93        112.3946
365.38        111.2704
365.83        110.3091
366.28        109.5382
366.73        108.9049
367.18         108.308
367.63        107.5817
368.08         106.687
368.53        105.6901
368.98         104.638
369.43        103.5902
369.88        102.5726
370.33        101.5619
370.78        100.6014
371.23        99.78856
371.68        99.14426
372.13        98.64002
372.58        98.20324
373.03        97.69788
373.48         97.0759
373.93        96.37441
374.38        95.59906
374.83        94.77872
375.28        93.95506
375.72        93.11279
376.17        92.35738
376.62        91.76167
377.07        91.31292
377.52        90.96164
377.97        90.62319
378.42        90.16636
378.87        89.56672
379.32        88.88585
379.77        88.15087
380.22        87.38265
380.67        86.59353
381.11        85.77875
381.56        85.00133
382.01        84.39954
382.46        84.00839
382.91        83.79268
383.36        83.63741
383.81        83.35661
384.26        82.89903
384.71        82.30964
385.15        81.65771
385.60        81.12228
386.05        80.72029
386.50        80.40956
386.95        80.12001
387.40         79.7529
387.85        79.30067
388.29        78.76287
388.74        78.31564
389.19        77.99014
389.64        77.78508
390.09        77.65858
390.54         77.5344
390.98        77.28043
391.43        76.90677
391.88        76.44375
392.33        75.96607
392.78        75.53095
393.23        75.15146
393.67        74.90553
394.12        74.79557
394.57        74.34019
395.02        73.65951
395.47        73.49014
395.91        73.76527
396.36        73.69748
396.81         73.2639
397.26        72.92821
397.71        72.71932
398.15        72.46024
398.60        72.23723
399.05        71.99129
399.50        71.78423
399.95        71.75301
400.39         71.8584
400.84        71.95045
401.29        71.92607
401.74        71.50464
402.18         70.8101
402.63        70.42693
403.08        70.36434
403.53        70.11373
403.97        69.68091
404.42        69.42778
404.87        69.34885
405.32        69.31277
405.76        69.30236
406.21         69.2681
406.66        69.18011
407.11        69.24665
407.55         69.3755
408.00        68.94812
408.45        68.11652
408.90        67.75317
409.34        67.87875
409.79        67.86995
410.24        67.67471
410.68        67.58652
411.13        67.58728
411.58        67.51787
412.03        67.39681
412.47        67.34658
412.92        67.35472
413.37        67.39813
413.81        67.43549
414.26        67.46246
414.71        67.45229
415.15        67.42513
415.60        67.36897
416.05        67.32103
416.49        67.28927
416.94          67.256
417.39        67.19675
417.83        67.06266
418.28         66.8556
418.73        66.59991
419.17        66.33691
419.62        66.14368
420.07        66.04207
420.51        65.99995
420.96        66.02843
421.41        66.08786
421.85        66.13386
422.30        66.22434
422.74        66.29613
423.19        66.34698
423.64        66.35876
424.08        66.38539
424.53        66.38836
424.98        66.40228
425.42         66.4427
425.87        66.45911
426.31         66.4599
426.76        66.51373
427.21        66.60952
427.65        66.64035
428.10        66.52169
428.54        66.54313
428.99         66.3381
429.44        66.09942
429.88        65.79195
430.33        65.93869
430.77        66.32999
431.22        66.39455
431.66        66.16532
432.11        66.19395
432.56        66.53234
433.00        66.71149
433.45        66.47575
433.89        66.35547
434.34        66.49772
434.78        65.47471
435.23        65.10478
435.67        66.09408
436.12        66.64672
436.57        66.92353
437.01        66.41421
437.46        66.07885
437.90        66.60717
438.35        66.92448
438.79        66.66487
439.24         66.6257
439.68        66.65273
440.13        66.59566
440.57        66.46573
441.02        66.49461
441.46        66.65485
441.91        66.65261
442.35        66.49886
442.80        66.82975
443.24         67.4489
443.69        67.50977
444.13        67.03345
444.58        66.70843
445.02        66.62402
445.47        66.75229
445.91        66.99194
446.36        67.08238
446.80        66.98607
447.24        66.83897
447.69        66.70828
448.13        66.80213
448.58        66.88906
449.02        66.79249
449.47        66.51298
449.91        66.41544
450.36        66.53409
450.80        66.58855
451.25        66.57082
451.69        66.63324
452.13        66.71338
452.58        66.50133
453.02        66.06612
453.47        65.81023
453.91        65.75297
454.36        65.70375
454.80        65.62503
455.24        65.51678
455.69        65.35447
456.13        65.24587
456.58        65.23237
457.02        65.05172
457.46        64.37329
457.91        65.08035
458.35        65.00121
458.79        65.17706
459.24        65.00853
459.68        64.85027
460.13        64.78819
460.57        64.57448
461.01        64.23984
461.46        64.52588
461.90         64.1703
462.34         63.9981
462.79        64.06297
463.23        63.68369
463.68        64.27977
464.12        63.98996
464.56        63.39855
465.01        63.51746
465.45        64.10451
465.89        64.18014
466.34        63.79154
466.78        63.48152
467.22        63.25742
467.67         63.5544
468.11        62.86227
468.55        62.81108
468.99          62.907
469.44        62.89141
469.88        62.73677
470.32        62.59806
470.77        62.50003
471.21        62.37867
471.65        62.24341
472.10        62.11491
472.54         61.9998
472.98        61.93729
473.42        61.93332
473.87        61.96399
474.31        61.98468
474.75        62.07132
475.20         62.1763
475.64        62.13972
476.08        61.96944
476.52        61.87073
476.97         61.8419
477.41        61.77582
477.85        61.63115
478.29         61.7599
478.74        61.13577
479.18        61.46022
479.62        61.70942
480.06        61.59303
480.50        61.74873
480.95        61.77254
481.39        61.88438
481.83        61.67789
482.27        62.18891
482.72        61.55275
483.16        61.69359
483.60        61.89205
484.04        61.82747
484.48        61.59346
484.93        61.64871
485.37         61.3878
485.81        61.88756
486.25        61.49619
486.69        63.25872
487.14        63.51488
487.58        62.31504
488.02        61.64656
488.46        61.43767
488.90        61.70474
489.34        61.38191
489.79        60.62931
490.23        60.92081
490.67        61.03481
491.11        61.36845
491.55        61.30702
491.99        60.92324
492.43        60.77401
492.88        60.87719
493.32        60.93847
493.76        60.88494
494.20        60.87633
494.64        60.93234
495.08          60.641
495.52        60.59805
495.96         60.6975
496.41        60.97982
496.85        60.93843
497.29        60.57694
497.73        60.45918
498.17        60.29905
498.61        60.42008
499.05        60.63851
499.49        60.44155
499.93        59.97754
500.37         60.1226
500.82        60.73161
501.26        60.87658
501.70        60.52753
502.14        60.00337
502.58        59.90417
503.02        59.74402
503.46        59.65247
503.90        59.72003
504.34        59.87254
504.78        59.99012
505.22        60.05197
505.66        60.02671
506.10        59.93677
506.54        59.97046
506.98        60.16761
507.42        59.73077
507.86        60.31565
508.30        59.81335
508.74        60.05405
509.18        59.90575
509.62        59.80369
510.06        59.76818
510.50        59.78225
510.94        59.76711
511.38        59.69046
511.82        59.60608
512.26         59.5105
512.70        59.37164
513.14        59.22578
513.58        59.15038
514.02        59.15778
514.46        59.22331
514.90        59.29495
515.34        59.32853
515.78        59.31187
516.22        59.22724
516.66        58.95712
517.10        59.16662
517.54        58.94753
517.98        59.00535
518.42        59.05362
518.86        59.09643
519.30        59.12284
519.74        59.10554
520.18        59.08001
520.62        59.17042
521.06        59.33612
521.50        59.34923
521.93        59.21564
522.37        59.13713
522.81         59.1257
523.25        59.06738
523.69        58.96429
524.13        58.87334
524.57        58.80153
525.01         58.7383
525.45        58.69415
525.89        58.68337
526.32        58.70335
526.76        58.75317
527.20        58.81397
527.64         58.8572
528.08        58.87319
528.52        58.86986
528.96        58.85265
529.40        58.82547
529.83        58.78971
530.27        58.77006
530.71        58.75665
531.15        58.73195
531.59        58.69672
532.03        58.66592
532.46        58.63626
532.90        58.61397
533.34        58.59638
533.78         58.5809
534.22        58.57483
534.66        58.58937
535.09        58.61532
535.53        58.66804
535.97        58.71418
536.41        58.71836
536.85        58.67506
537.28        58.59359
537.72        58.50845
538.16        58.47834
538.60        58.51219
539.04        58.58982
539.47        58.65733
539.91        58.68118
540.35         58.6362
540.79        58.54836
541.22        58.44292
541.66        58.37186
542.10        58.34856
542.54        58.35736
542.97        58.38801
543.41        58.45622
543.85        58.54527
544.29         58.6542
544.72        58.74989
545.16        58.81042
545.60        58.81721
546.04         58.7793
546.47         58.7229
546.91        58.68958
547.35        58.69336
547.79        58.73948
548.22        58.77467
548.66         58.7588
549.10        58.68211
549.53        58.53299
549.97        58.36657
550.41        58.27437
550.84        58.26717
551.28        58.32442
551.72        58.41912
552.15        58.44625
552.59        58.38972
553.03        58.53571
553.46        58.40375
553.90        58.38207
554.34        58.32649
554.77        58.24143
555.21         58.1791
555.65        58.20762
556.08        58.32631
556.52        58.54292
556.96        58.76706
557.39        58.82318
557.83        58.72311
558.27        58.59267
558.70        58.48122
559.14        58.38869
559.57        58.32174
560.01        58.36804
560.45        58.47387
560.88        58.44548
561.32        58.35145
561.75        58.36421
562.19        58.48848
562.63        58.55481
563.06        58.52103
563.50        58.35974
563.93         58.1273
564.37        58.04818
564.80        58.11462
565.24        58.23641
565.68        58.36916
566.11        58.46834
566.55        58.52839
566.98         58.6012
567.42        58.68099
567.85        58.59797
568.29        58.47366
568.72        58.53135
569.16        58.75454
569.60        59.07765
570.03        59.02442
570.47        59.10091
570.90        59.14199
571.34        59.27459
571.77        59.63309
572.21        59.31473
572.64        59.51622
573.08        59.30909
573.51        59.28633
573.95        59.66651
574.38        59.49612
574.82        60.34759
575.25        60.08622
575.69        59.93346
576.12         59.4749
576.56        59.36872
576.99        59.50959
577.42        59.78394
577.86        60.06635
578.29        60.44102
578.73        60.80822
579.16        60.54219
579.60        59.92239
580.03          59.829
580.47        59.97108
580.90         60.1846
581.33        60.13622
581.77         60.4644
582.20         60.8256
582.64        61.03305
583.07        60.58403
583.51        60.15144
583.94        59.53823
584.37        59.86775
584.81          59.077
585.24        59.28937
585.68        60.10498
586.11        60.02009
586.54        60.13239
586.98        59.95222
587.41        59.53872
587.85        59.83603
588.28        60.03972
588.71        60.20152
589.15        59.78879
589.58        59.53276
590.01        59.29979
590.45        59.09501
590.88        59.20913
591.31        58.89465
591.75        58.90364
592.18        58.76101
592.61         58.7687
593.05         59.1496
593.48        59.60581
593.91        60.05404
594.35        60.15777
594.78        59.82401
595.21        59.18829
595.65         59.1977
596.08        59.74573
596.51        59.90268
596.94        59.32412
597.38        59.05629
597.81        59.08307
598.24        59.22472
598.68        58.90588
599.11        58.99703
599.54        59.29621
599.97        59.25424
600.41        59.21929
600.84         59.5466
601.27        59.58876
601.70        59.29472
602.14         59.2403
602.57        59.04232
603.00        58.89903
603.43        59.40719
603.87        59.45417
604.30        59.42718
604.73        59.40814
605.16         59.3119
605.60        59.03199
606.03        59.06557
606.46         59.3289
606.89         59.1028
607.32        58.94127
607.76        59.33556
608.19        59.14823
608.62        59.25873
609.05        59.67549
609.48        59.18127
609.92        59.28613
610.35        58.98634
610.78        59.28213
611.21        59.16562
611.64        59.09162
612.07        58.99945
612.50        58.99171
612.94        58.97965
613.37        58.97096
613.80         59.0782
614.23        59.22882
614.66        59.02823
615.09        58.66329
615.52        58.59241
615.96        58.81329
616.39        58.83643
616.82         58.6453
617.25         58.5141
617.68        58.51379
618.11        58.44275
618.54        58.48534
618.97        58.48313
619.40        58.44909
619.84        58.45149
620.27        58.35958
620.70        58.24159
621.13        58.09324
621.56        58.07877
621.99        58.20979
622.42        58.27776
622.85        58.24694
623.28        58.42729
623.71        58.66727
624.14        58.67575
624.57        58.25935
625.00        58.60073
625.43        58.16296
625.86        58.32489
626.29        58.64147
626.72        58.21934
627.15        58.37844
627.58        58.23499
628.01        58.28057
628.44        58.01959
628.87        57.86412
629.30        58.40599
629.73        58.13861
630.16        58.15762
630.59        57.98505
631.02        58.19466
631.45        57.94754
631.88        57.94632
632.31        57.97915
632.74        57.75129
633.17         57.8586
633.60        57.81026
634.03        57.78855
634.46        57.82915
634.89          57.832
635.32        57.85402
635.75        57.85498
636.18        57.84526
636.61        57.82808
637.04        57.81318
637.47        57.80554
637.89        57.80876
638.32        57.80729
638.75        57.80127
639.18        57.78948
639.61        57.77179
640.04        57.75817
640.47        57.76413
640.90        57.79031
641.33        57.83144
641.76        57.86553
642.18        57.86364
642.61        57.80732
643.04        57.71486
643.47        57.61583
643.90        57.56253
644.33        57.56841
644.76        57.60641
645.18         57.6558
645.61        57.70514
646.04        57.73177
646.47        57.68586
646.90        57.59705
647.33        57.57162
647.75        57.61234
648.18        57.68341
648.61        57.78397
649.04        57.84288
649.47        57.82846
649.89        58.11123
650.32        58.03123
650.75        58.01103
651.18        57.87454
651.61        57.72985
652.03        57.63201
652.46        57.55149
652.89        57.52566
653.32        57.69249
653.74        57.96861
654.17        57.92682
654.60        57.38652
655.03        57.41223
655.46        57.18582
655.88        58.22848
656.31        59.95432
656.74        64.78339
657.16        63.95269
657.59        62.00134
658.02        59.39721
658.45        58.20844
658.87        58.25494
659.30        58.09766
659.73        57.95677
660.15        57.66953
660.58        57.85896
661.01        58.02057
661.44        58.18638
661.86        58.15674
662.29        57.93006
662.72        57.72745
663.14        57.62057
663.57        57.61493
664.00        57.69217
664.42        57.74308
664.85        57.76085
665.27        57.71385
665.70        57.78372
666.13         57.7839
666.55        57.77103
666.98        57.73701
667.41        57.69091
667.83        57.65963
668.26         57.6609
668.69        57.64149
669.11        57.58639
669.54        57.67688
669.96        57.95513
670.39        57.59289
670.82         57.9824
671.24        58.01022
671.67        58.06415
672.09        58.12293
672.52        58.18612
672.94        58.10779
673.37        57.92635
673.80        57.85614
674.22        57.90747
674.65        57.88949
675.07        57.81999
675.50        57.80122
675.92          57.849
676.35        57.91488
676.77        57.99055
677.20        58.10077
677.62        58.23956
678.05        58.31215
678.47        58.29261
678.90        58.48415
679.32         58.3642
679.75        58.37994
680.17        58.37964
680.60        58.37617
681.02        58.35487
681.45        58.30362
681.87        58.23355
682.30        58.11735
682.72        58.01197
683.15        58.02615
683.57         58.1208
684.00        58.26947
684.42        58.09035
684.85        58.10441
685.27         58.1889
685.70        58.23677
686.12        58.22643
686.54        58.22015
686.97        58.21465
687.39        58.20957
687.82        58.22416
688.24        58.21577
688.66        58.17125
689.09         58.3298
689.51        58.25804
689.94        58.34753
690.36           58.45
690.78        58.51814
691.21        58.54579
691.63         58.5145
692.06        58.47122
692.48        58.53118
692.90        58.66467
693.33        58.70391
693.75        58.64091
694.17        58.53852
694.60        58.43855
695.02        58.48761
695.44        58.44832
695.87        58.61795
696.29        58.86657
696.71        58.75156
697.14        58.38432
697.56        58.60398
697.98        59.29764
698.41        59.31288
698.83        59.20803
699.25        58.94136
699.68        58.77283
700.10        58.64371
700.52        58.59034
700.94        58.62206
701.37         58.6826
701.79        58.73422
702.21        58.73832
702.64        58.71339
703.06        58.67658
703.48        58.66346
703.90        58.68603
704.33        58.72666
704.75        58.77014
705.17        58.77794
705.59        58.74399
706.01        58.67733
706.44        58.62285
706.86        58.66542
707.28        58.80429
707.70        59.02063
708.12        59.24551
708.55        59.34498
708.97        59.29866
709.39        59.19408
709.81         59.0797
710.23        58.99923
710.66        58.98248
711.08        59.04575
711.50        59.12895
711.92        59.13816
712.34        59.05777
712.76        58.91951
713.19        58.77769
713.61        58.76351
714.03        58.87902
714.45        59.09465
714.87        59.34087
715.29        59.47341
715.71        59.45594
716.13        59.48093
716.56        59.30491
716.98        59.27455
717.40        59.32057
717.82        59.42175
718.24         59.5396
718.66        59.61749
719.08        59.64193
719.50        59.63149
719.92        59.61606
720.34        59.63821
720.76        59.70687
721.19        59.79589
721.61        59.89371
722.03        59.95595
722.45        59.97154
722.87        59.95533
723.29        59.92489
723.71        59.90792
724.13        59.91537
724.55        59.93848
724.97        59.97565
725.39        60.02469
725.81        60.08113
726.23        60.14388
726.65        60.20283
727.07        60.24698
727.49        60.27393
727.91        60.27119
728.33        60.24731
728.75         60.2551
729.17         60.2859
729.59        60.25714
730.01         60.1905
730.43        60.19353
730.85        60.27354
731.27        60.36031
731.69        60.44756
732.10        60.50355
732.52         60.6977
732.94         60.6394
733.36        60.43779
733.78         60.3559
734.20        60.42682
734.62        60.48438
735.04        60.50294
735.46        60.55915
735.88        60.65512
736.30        60.58306
736.72        60.67884
737.13        60.64743
737.55        60.56343
737.97        60.41063
738.39        60.24874
738.81        60.25108
739.23        60.39241
739.65        60.45336
740.06        60.39548
740.48        60.43495
740.90        60.53899
741.32        60.59947
741.74         60.6101
742.16        60.62586
742.57        60.65892
742.99        60.67542
743.41        60.67721
743.83        60.64969
744.25        60.59253
744.67        60.50866
745.08        60.45224
745.50        60.46825
745.92        60.58068
746.34        60.77935
746.75        60.98323
747.17        61.05697
747.59        60.97491
748.01        60.74062
748.42        60.48418
748.84        60.44054
749.26        60.61712
749.68        60.90776
750.09        61.17603
750.51        61.11484
750.93        60.79646
751.35        60.71493
751.76        60.88366
752.18        60.91026
752.60        60.79292
753.01        60.80161
753.43        60.88208
753.85        60.84667
754.27        60.68569
754.68        60.49497
755.10        60.33656
755.52        60.22422
755.93        60.19987
756.35         60.3558
756.77        60.66742
757.18        60.90389
757.60         61.0062
758.02        61.24274
758.43        61.59749
758.85        61.21593
759.26        61.16825
759.68        61.18333
760.10        60.87725
760.51        60.66014
760.93        61.03373
761.34         61.1474
761.76        61.19597
762.18        61.36025
762.59         61.5529
763.01        61.65925
763.42         60.9234
763.84        60.95192
764.26        61.14449
764.67        61.50688
765.09        61.78689
765.50        61.88176
765.92        61.78341
766.33        61.51247
766.75        61.16393
767.16         60.9847
767.58        60.96744
768.00        61.19081
768.41        61.58245
768.83        61.51275
769.24         61.0391
769.66        61.51964
770.07        61.84756
770.49        61.84478
770.90        61.30117
771.32        61.13127
771.73        61.36267
772.15        61.40989
772.56        61.28485
772.97        61.29944
773.39        61.41669
773.80        61.48476
774.22        61.45599
774.63        61.39761
775.05        61.31466
775.46         61.2631
775.88         61.2404
776.29        61.25104
776.70        61.26527
777.12        61.25735
777.53        61.23603
777.95          61.195
778.36        61.16805
778.77        61.20426
779.19        61.31605
779.60        61.49691
780.02        61.68188
780.43        61.83228
780.84        61.94033
781.26        61.86256
781.67        61.71383
782.09        61.97743
782.50         62.4981
782.91         62.4974
783.33        62.02586
783.74        61.90446
784.15        62.15218
784.57        62.33829
784.98        62.41852
785.39        62.45596
785.81        62.45791
786.22        62.48935
786.63        62.56479
787.04         62.6254
787.46        62.68252
787.87        62.76061
788.28        62.84415
788.70        62.86755
789.11        62.80824
789.52        62.70905
789.93         62.5997
790.35        62.51389
790.76        62.47637
791.17        62.47892
791.58        62.52322
792.00        62.56525
792.41          62.619
792.82        62.77088
793.23        63.01214
793.65        63.04649
794.06        62.95745
794.47        63.32568
794.88        64.04639
795.29        63.99408
795.71        64.10852
796.12        63.93059
796.53        63.78875
796.94        63.60686
797.35        63.42553
797.76        63.28506
798.18        63.19412
798.59        63.14531
799.00        63.13286
799.41        63.18754
799.82        63.24795
800.23        63.19772
800.64        63.01923
801.06        62.72272
801.47        62.44672
801.88        62.35301
802.29        62.48157
802.70        62.77839
803.11        63.13328
803.52        63.35539
803.93         63.3912
804.34        63.29823
804.75        63.15552
805.17        63.11162
805.58        63.23631
805.99        63.38254
806.40        63.52726
806.81        63.82074
807.22        64.14361
807.63        64.10143
808.04        63.76652
808.45        63.63055
808.86         63.7416
809.27        63.81532
809.68        63.82507
810.09        63.85378
810.50        63.89113
810.91        63.92744
811.32        63.93069
811.73        63.84291
812.14        63.66027
812.55        63.40135
812.96         63.1524
813.37        63.05889
813.78         63.1529
814.19        63.39139
814.60        63.66408
815.01        63.79837
815.42        63.75141
815.83        63.56702
816.24        63.33032
816.65         63.2038
817.05        63.25001
817.46        63.39709
817.87        63.59471
818.28        63.72738
818.69        63.76852
819.10        63.75681
819.51        63.75234
819.92        63.85363
820.33        64.07601
820.74        64.36237
821.14        64.63873
821.55        64.82361
821.96        64.87775
822.37        64.82694
822.78        64.68626
823.19        64.48587
823.60        64.25182
824.00         63.9991
824.41        63.73309
824.82        63.52312
825.23        63.39119
825.64        63.34342
826.04        63.37477
826.45        63.42576
826.86        63.49263
827.27        63.58637
827.68        63.71061
828.08        63.89368
828.49        64.06258
828.90        64.24233
829.31        64.43826
829.72        64.56698
830.12        64.61852
830.53         64.9872
830.94        64.88933
831.35        64.83608
831.75        64.61842
832.16        64.26906
832.57        63.92082
832.97        63.78978
833.38        63.92085
833.79        64.23499
834.20        64.62783
834.60        64.94054
835.01        65.11853
835.42        65.20855
835.82        65.21944
836.23        65.12417
836.64        64.95675
837.04        64.73348
837.45        64.50796
837.86        64.43014
838.26        64.53944
838.67          64.785
839.08        65.09652
839.48        65.33703
839.89         65.4535
840.29        65.47919
840.70        65.45111
841.11        65.43059
841.51         65.4564
841.92        65.47793
842.33        65.49076
842.73        65.49146
843.14        65.43604
843.54        65.36133
843.95         65.2934
844.35        65.28909
844.76        65.35071
845.17        65.47172
845.57         65.6069
845.98        65.64748
846.38        65.60277
846.79        65.48036
847.19        65.38451
847.60        65.40863
848.00        65.60624
848.41        65.90411
848.81        66.26377
849.22        66.54884
849.62         66.7426
850.03         66.8334
850.43         66.8593
850.84        66.78216
851.24        66.65659
851.65        66.42091
852.05        66.17321
852.46        65.99849
852.86        65.93481
853.27        66.02029
853.67        66.09999
854.07         66.0789
854.48        65.90996
854.88        65.63801
855.29        65.36314
855.69        65.42933
856.10        65.81396
856.50         66.4984
856.90        67.17469
857.31        67.37787
857.71         67.0483
858.12        66.26791
858.52        65.32984
858.92         64.6776
859.33          64.454
859.73        64.59325
860.13        64.92893
860.54        65.17343
860.94        65.28439
861.34        65.29995
861.75        65.27092
862.15        65.34921
862.55        65.52251
862.96        65.70847
863.36        65.82274
863.76        65.69855
864.17        65.31171
864.57        64.76752
864.97        64.18542
865.38        63.74031
865.78        63.54657
866.18        63.56324
866.58        63.80118
866.99        64.22756
867.39        64.80431
867.79        65.46886
868.19        66.09716
868.60        66.43862
869.00        66.53007
869.40        66.60963
869.80        66.60493
870.21        66.21246
870.61        65.51331
871.01        64.69471
871.41        63.97877
871.81        63.57624
872.22        63.55074
872.62        63.85015
873.02        64.33631
873.42        64.90459
873.82         65.2576
874.22        64.95763
874.63        64.31048
875.03        63.94142
875.43        63.97004
875.83        65.07575
876.23        64.52944
876.63        63.89464
877.03        62.90565
877.44        60.99815
877.84        169.0997
878.24        62.38168
878.64        63.19122
879.04        64.63328
879.44        65.03383
879.84        61.65728
880.24        66.63954
880.64        66.85781
881.04        64.50894
881.44        62.68074
881.84         61.9254
882.24        62.37621
882.65        63.45494
883.05        63.79828
883.45        63.14182
883.85        62.36083
884.25        61.82652
884.65        61.71699
885.05        62.11627
885.45        62.84301
885.85        63.66332
886.25        64.28541
886.65        64.61263
887.05        64.74503
887.45        64.65463
887.85        64.29657
888.25        63.71761
888.65        62.93391
889.04         62.1997
889.44        61.94985
889.84        62.25467
890.24        62.97508
890.64        63.79438
891.04        64.22807
891.44        64.17105
891.84        63.77822
892.24        63.22348
892.64        62.82021
893.04         62.6824
893.44        62.69464
893.83        62.84736
894.23        63.10128
894.63        63.43166
895.03        63.87811
895.43        64.30526
895.83        64.47132
896.23        64.34016
896.63        63.96265
897.02        63.55827
897.42        63.52565
897.82        63.89552
898.22        64.54554
898.62        65.19974
899.01        65.41537
899.41        65.06805
899.81        64.32127
900.21         63.4313
900.61        62.81716
901.00        62.59988
901.40        62.72812
901.80         63.0593
902.20        63.22522
902.59        63.12465
902.99         63.1353
903.39        63.46882
903.79        62.74242
904.18        63.69579
904.58         64.0477
904.98        64.40002
905.38        64.39448
905.77        63.98701
906.17        63.31678
906.57        62.57254
906.96        62.16169
907.36        62.18981
907.76        62.55929
908.15        63.14141
908.55        63.56754
908.95        63.77105
909.34        63.79859
909.74        63.77983
910.14        63.87956
910.53        64.13421
910.93        64.46207
911.33        64.71174
911.72        64.65918
912.12        64.27805
912.52        63.65881
912.91        62.98594
913.31        62.62355
913.70         62.6278
914.10        62.89841
914.49        63.26736
914.89        63.36615
915.29         63.1255
915.68        62.64573
916.08        62.12566
916.47        61.82088
916.87        61.84098
917.26        62.11322
917.66        62.50192
918.05        62.81185
918.45        62.96257
918.84        63.00211
919.24        63.06364
919.64        63.42125
920.03        64.10185
920.42        64.97164
920.82        65.72845
921.21        65.92349
921.61        65.50143
922.00        64.68692
922.40        63.86994
922.79        63.53375
923.19        63.43734
923.58        64.32206
923.98        66.32014
924.37        66.64183
924.77        63.84269
925.16        71.63569
925.55        65.35535
925.95        65.71392
926.34        65.70428
926.74        65.10721
927.13        63.82216
927.52        62.88821
927.92        62.79761
928.31        62.99028
928.70        63.42649
929.10        63.94945
929.49        64.50864
929.89        65.14001
930.28        65.71169
930.67        65.89138
931.07         65.6321
931.46        64.92068
931.85        64.05285
932.24        63.98529
932.64        64.88475
933.03        65.90146
933.42        66.32085
933.82        68.52633
934.21        66.98641
934.60        66.01984
934.99        65.12441
935.39        65.06816
935.78        65.79471
936.17        67.73347
936.56        73.91618
936.96        66.72412
937.35        70.33546
937.74        66.79855
938.13         64.1916
938.53        62.15952
938.92        61.50434
939.31        62.73072
939.70        64.56892
940.09        65.77038
940.49        66.03014
940.88        65.80211
941.27        65.32992
941.66        65.04023
942.05        65.12457
942.44         65.3698
942.84        65.64127
943.23        65.88848
943.62        66.05507
944.01        66.16467
944.40        66.32671
944.79        66.68789
945.18          67.234
945.57        67.88744
945.97        68.33548
946.36        68.21056
946.75        67.41698
947.14        66.10017
947.53        64.64621
947.92        63.73734
948.31         63.5799
948.70        63.97325
949.09        64.62002
949.48        65.03665
949.87        65.07843
950.26        64.91402
950.65        64.61413
951.04        64.28477
951.43        63.99524
951.82        63.68059
952.21        63.45742
952.60        63.55824
952.99        63.98946
953.38        64.65213
953.77        65.32689
954.16        65.68301
954.55        65.65244
954.94        65.34452
955.33        64.84491
955.72        64.33582
956.11        63.92607
956.50         63.5681
956.89         63.3777
957.28        63.52387
957.66        64.03792
958.05        64.80788
958.44        65.58298
958.83        65.96501
959.22        65.85715
959.61        65.30754
960.00        64.56905
960.39        64.15441
960.78         64.2268
961.16        64.69078
961.55        65.13228
961.94        65.06364
962.33        64.40475
962.72        63.29816
963.11        62.16019
963.49        61.82879
963.88        62.54351
964.27        63.97753
964.66        65.54523
965.04        66.47825
965.43        66.55103
965.82        66.01528
966.21        65.18365
966.60        64.61689
966.98        64.51785
967.37        64.72217
967.76        65.03157
968.15        65.12552
968.53        64.94005
968.92         64.5892
969.31        64.25762
969.69        64.20596
970.08        64.46168
970.47        64.90168
970.86        65.38806
971.24        65.70619
971.63        65.76588
972.02        65.67055
972.40        65.44202
972.79        65.00991
973.17        64.45864
973.56        63.80394
973.95        63.27466
974.33        63.27912
974.72        63.88243
975.11        64.92477
975.49        66.16678
975.88         67.1201
976.26        67.70357
976.65        67.98794
977.04        68.00652
977.42        67.78973
977.81        67.34338
978.19        66.56725
978.58        65.94547
978.96         66.2657
979.35        67.56521
979.74         69.4845
980.12        71.23933
980.51        71.65867
980.89        70.71759
981.28        68.62039
981.66        65.93562
982.05        64.19154
982.43        64.04185
982.82        65.13647
983.20        66.84859
983.59        68.15234
983.97        68.77561
984.35        68.98335
984.74        68.87395
985.12        68.68971
985.51        68.51871
985.89        68.32394
986.28        68.11436
986.66        68.01459
987.04        68.08749
987.43         68.2186
987.81        68.21454
988.20        69.15514
988.58        71.12396
988.96         71.4677
989.35         69.3838
989.73        74.94157
990.12        70.91933
990.50        70.59794
990.88        69.53336
991.27        68.81261
991.65        68.52494
992.03        68.75265
992.42        69.42266
992.80        69.75037
993.18        69.56169
993.56         69.1046
993.95        68.53839
994.33        68.09184
994.71         67.8802
995.10        67.78004
995.48        67.87298
995.86        68.30345
996.24         69.0322
996.63        69.91873
997.01        70.79708
997.39        71.19501
997.77        70.99854
998.15        70.32979
998.54         69.4415
998.92        68.62914
999.30        68.06995
999.68        67.77467
1000.06        67.68469
1000.45        67.62165
1000.83        67.64559
1001.21        67.78258
1001.59        68.28269
1001.97        69.48073
1002.35        71.24694
1002.73        73.26231
1003.12        75.03386
1003.50        76.03284
1003.88        76.17702
1004.26        75.62969
1004.64        74.62394
1005.02         73.6898
1005.40        73.07838
1005.78         72.6697
1006.16        72.39968
1006.54        72.08985
1006.92        71.71362
1007.30        71.49347
1007.69        71.33632
1008.07        71.13239
1008.45        70.86873
1008.83        70.52112
1009.21        70.50446
1009.59         71.6219
1009.97        73.76331
1010.35        76.25411
1010.73        78.39276
1011.11        79.73806
1011.49         80.3923
1011.86        80.31712
1012.24         79.2505
1012.62        79.71378
1013.00        79.33118
1013.38        77.94849
1013.76        74.41099
1014.14        78.48134
1014.52        85.43645
1014.90        78.66562
1015.28        81.49017
1015.66        83.92619
1016.04        81.35932
1016.41        81.46394
1016.79        80.07143
1017.17        78.69708
1017.55        76.98108
1017.93        75.09567
1018.31        73.88229
1018.69        74.17532
1019.06         76.0937
1019.44        79.12991
1019.82        82.09278
1020.20        83.44309
1020.58         82.8847
1020.95        80.51365
1021.33        76.88374
1021.71        74.25533
1022.09        74.12696
1022.46        75.66209
1022.84        77.67388
1023.22        79.28957
1023.60         80.4549
1023.97        81.56509
1024.35        82.58154
1024.73        83.22036
