SpectraSmart Spectrum 2.9.0.0
--------- Device Information -----------
Spectrum Name :  反射率_0
Saving Time :  2024/04/21 00:23:37
Spectro-Module Model Name : SE2030-DUVN
Spectro-Module Serial Number : OS361AC55029948
Wavelength Start : 200
Wavelength End : 1025
Wavelength Unit : Wavelength(nm)
Spectrum Unit : Reflectance(%)
-----------Spectrum Setting ------------
Integration Time : 20ms
Average : 10
Boxcar : 0
Background removal :  enabled
linearity correction :  enabled
SC :  disabled
Intensity correction :  disabled
DWT denoise :  enabled
savitzky-golay :  disabled
FFT :  disabled
Running average :  disabled
Kalman :  disabled
High pass :  disabled
---------------BEGIN--------------------
Wavelength(nm)             Reflectance(%)
200.29               0
200.75        58.60473
201.21        39.76051
201.67        26.98744
202.13        20.23089
202.58        16.48283
203.04        14.74395
203.50        14.79281
203.96        16.39643
204.42        18.87678
204.88        21.13915
205.34        24.40265
205.80        30.84942
206.26        41.86602
206.72        59.39809
207.18        76.71587
207.64        77.20708
208.10        54.22265
208.55        13.31062
209.01        -20.0959
209.47       -11.78073
209.93        16.25876
210.39        42.06718
210.85        58.94171
211.31        64.80653
211.77        61.73361
212.23        50.06448
212.69        25.59308
213.14       -13.33829
213.60        -68.1232
214.06       -194.7511
214.52       -407.1462
214.98       -122.8773
215.44        1.736238
215.90        38.15091
216.36        47.68237
216.81        43.66924
217.27        24.24859
217.73       -64.45807
218.19        992.7615
218.65        433.9966
219.11       -919.2164
219.57       -28.64551
220.02        29.11562
220.48        41.76867
220.94        41.60664
221.40         31.2293
221.86        3.585946
222.32        -13.6874
222.77        12.68425
223.23        34.59613
223.69        45.26058
224.15        48.59864
224.61        48.00617
225.06        45.41091
225.52        41.46576
225.98        36.64706
226.44        31.52181
226.90        25.44821
227.36         20.6076
227.81        21.36597
228.27        26.18309
228.73        31.98417
229.19        36.05769
229.65        36.77715
230.10         34.6921
230.56        31.29762
231.02         27.0833
231.48         23.6786
231.93        22.85423
232.39        24.34082
232.85        26.64831
233.31         28.3092
233.77        29.35795
234.22        30.62022
234.68        31.69957
235.14        31.76108
235.60        30.85461
236.05        28.52711
236.51        25.47771
236.97        28.78999
237.43        39.20606
237.88        46.60675
238.34         47.3468
238.80        67.52786
239.26        60.40274
239.71        60.05153
240.17        54.55923
240.63        48.37134
241.08        44.42937
241.54        44.71336
242.00        50.22574
242.46        54.52329
242.91        56.41616
243.37        57.25188
243.83        58.71736
244.28         63.8884
244.74        72.25702
245.20        80.33228
245.66         84.9942
246.11         83.6838
246.57        76.61036
247.03        64.81045
247.48        49.55037
247.94        32.58212
248.40        10.68429
248.85        -35.2495
249.31       -167.5813
249.77       -266.9514
250.22        -63.9361
250.68        19.98801
251.14        47.22679
251.59        55.95099
252.05        57.86358
252.51        55.72655
252.96         49.6578
253.42        43.27018
253.88        40.70761
254.33         41.9695
254.79        46.96389
255.25        53.15691
255.70        58.44575
256.16        62.63433
256.62        65.98778
257.07        68.81779
257.53        71.46113
257.99        73.46128
258.44        73.95264
258.90        72.94577
259.35        70.34483
259.81        67.33549
260.27        64.43601
260.72        62.30397
261.18        61.27164
261.63        60.62565
262.09        60.20423
262.55        59.39286
263.00        58.09405
263.46        56.72667
263.91        55.35425
264.37        54.52044
264.83        54.13258
265.28        53.92422
265.74        53.76535
266.19        53.25701
266.65        52.41908
267.11         51.3243
267.56        50.04457
268.02        48.79082
268.47        47.57793
268.93        46.39407
269.38        45.21996
269.84        44.09692
270.30        43.02268
270.75         42.0228
271.21        41.09662
271.66         40.1544
272.12        39.21809
272.57        38.27509
273.03        37.41631
273.48        36.72578
273.94        36.22159
274.39        35.81467
274.85         35.4189
275.31        34.83192
275.76        34.02445
276.22        33.12657
276.67        32.23009
277.13        31.55295
277.58        31.08831
278.04        30.78804
278.49        30.55142
278.95        30.33165
279.40        30.04435
279.86        29.74075
280.31        29.34972
280.77        28.86089
281.22        28.25379
281.68        27.61566
282.13        26.96445
282.59        26.41355
283.04        25.96341
283.50        25.60993
283.95        25.37491
284.41        25.32003
284.86        25.41733
285.32         25.6552
285.77        25.88899
286.22        25.92985
286.68        25.77128
287.13        25.43157
287.59        25.10779
288.04        24.99544
288.50        25.10925
288.95        25.48662
289.41        26.00964
289.86        26.02418
290.32        25.42348
290.77        26.16237
291.22        25.18795
291.68        25.22047
292.13        25.37954
292.59        25.71033
293.04         26.1906
293.50        26.86214
293.95         27.7244
294.40        28.73439
294.86        29.83044
295.31        30.89872
295.77        31.90704
296.22        32.87207
296.68        33.82302
297.13        34.80313
297.58        35.85086
298.04        36.95655
298.49        38.15936
298.95        39.54207
299.40        41.08271
299.85        42.75298
300.31        44.44666
300.76        45.97392
301.21         47.3124
301.67        48.55127
302.12        49.76979
302.58        51.19036
303.03        52.83505
303.48        54.68036
303.94        56.67762
304.39        58.69849
304.84        60.70335
305.30        62.73516
305.75        64.74792
306.20        66.77338
306.66        68.81437
307.11        70.80484
307.57        72.76601
308.02        74.66814
308.47        76.53044
308.93        78.39832
309.38        80.22429
309.83        81.98417
310.29        83.74101
310.74        85.41973
311.19        87.06889
311.65        88.72244
312.10        90.36803
312.55        92.00272
313.00        93.57811
313.46        95.02134
313.91        96.30152
314.36        97.44592
314.82        98.53078
315.27         99.6716
315.72        100.8991
316.18        102.1714
316.63        103.4051
317.08        104.4673
317.53        105.3156
317.99        105.9855
318.44         106.533
318.89        107.0336
319.35        107.5202
319.80        107.9883
320.25        108.4293
320.70        108.8358
321.16        109.1965
321.61        109.5342
322.06        109.8714
322.51        110.2436
322.97        110.6428
323.42        111.1086
323.87        111.5588
324.32        111.8771
324.78        112.0271
325.23        112.0771
325.68        112.1496
326.13         112.481
326.59         113.088
327.04        113.9523
327.49        114.8564
327.94        115.4704
328.39        115.7028
328.85        115.6116
329.30        115.4406
329.75        115.4613
330.20        115.7723
330.66        116.2531
331.11        116.8622
331.56        117.3756
332.01        117.7322
332.46        118.0029
332.92        118.2037
333.37        118.5094
333.82        118.9084
334.27         119.361
334.72        119.8506
335.17        120.3614
335.63        120.8486
336.08        121.3885
336.53         121.938
336.98        122.4751
337.43        122.9892
337.88        123.4708
338.34        123.9127
338.79         124.374
339.24        124.8387
339.69        125.3134
340.14        125.7655
340.59         126.148
341.05        126.4622
341.50        126.7282
341.95        127.0365
342.40        127.5356
342.85        128.2415
343.30        129.1005
343.75        129.9447
344.20        130.5146
344.66        130.7601
345.11         130.732
345.56        130.6044
346.01        130.6584
346.46        130.9685
346.91         131.423
347.36        131.8529
347.81         132.099
348.26        132.1324
348.72        131.6622
349.17        131.5024
349.62        131.3594
350.07        131.4862
350.52        131.7725
350.97        132.0834
351.42         132.191
351.87        132.0243
352.32        131.6698
352.77         131.206
353.22        130.7473
353.67        130.3365
354.13        129.9513
354.58        129.5663
355.03        129.2019
355.48        128.8555
355.93        128.5336
356.38        128.2101
356.83        127.8339
357.28        127.3828
357.73        126.8508
358.18        126.2537
358.63        125.6304
359.08        124.9975
359.53        124.3564
359.98        123.6754
360.43        122.8984
360.88          122.02
361.33        121.0612
361.78        120.1019
362.23        119.2673
362.68        118.5841
363.13        118.0194
363.58        117.4645
364.03        116.7448
364.48        115.8199
364.93        114.7363
365.38        113.6158
365.83        112.6606
366.28        111.9143
366.73        111.3066
367.18        110.7166
367.63        109.9526
368.08        108.9787
368.53        107.8852
368.98        106.7596
369.43        105.7161
369.88        104.7952
370.33        103.9588
370.78         103.218
371.23          102.61
371.68        102.1284
372.13        101.7475
372.58        101.4085
373.03         101.006
373.48        100.4951
373.93        99.89542
374.38        99.18546
374.83        98.35462
375.28        97.44306
375.72        96.46266
376.17        95.55965
376.62        94.85351
377.07        94.35146
377.52        94.00217
377.97        93.71458
378.42        93.34267
378.87        92.84818
379.32        92.27999
379.77        91.67168
380.22        91.06002
380.67        90.44981
381.11        89.82486
381.56        89.18836
382.01        88.58382
382.46        88.03779
382.91        87.55997
383.36         87.1284
383.81        86.69614
384.26        86.24734
384.71         85.7881
385.15        85.33172
385.60        84.96774
386.05        84.67902
386.50        84.44382
386.95        84.19996
387.40        83.86261
387.85        83.42768
388.29        82.87803
388.74        82.39459
389.19        82.01289
389.64        81.73226
390.09        81.51255
390.54        81.29479
390.98        80.96507
391.43        80.55769
391.88        80.12634
392.33        79.72091
392.78        79.35648
393.23        79.12903
393.67        78.90428
394.12        78.79075
394.57        78.73333
395.02        78.70584
395.47        78.68063
395.91        78.61674
396.36        78.42696
396.81        78.12875
397.26        77.79887
397.71        77.42782
398.15        76.99534
398.60        76.60844
399.05        76.08056
399.50        75.60696
399.95        75.69105
400.39        76.20228
400.84         76.5484
401.29        76.53632
401.74        75.96694
402.18        75.05314
402.63        74.63688
403.08        74.72014
403.53        74.47633
403.97        73.90438
404.42        73.60723
404.87        73.59309
405.32        73.57425
405.76        73.51337
406.21        73.54828
406.66        73.61224
407.11         73.4838
407.55        73.20774
408.00        73.04951
408.45        73.03065
408.90        72.80589
409.34        72.43731
409.79         72.3781
410.24        72.55695
410.68        72.56179
411.13        72.36942
411.58         72.1802
412.03        72.04072
412.47        71.97152
412.92        71.96282
413.37        72.01112
413.81        72.06718
414.26        72.11912
414.71        72.13509
415.15        72.14163
415.60        72.09814
416.05         72.0039
416.49        71.86891
416.94        71.68764
417.39        71.51089
417.83        71.40788
418.28        71.39332
418.73        71.44463
419.17        71.50542
419.62        71.49136
420.07        71.38554
420.51        71.21037
420.96        71.04037
421.41        70.95451
421.85        70.94414
422.30        70.97282
422.74        70.98976
423.19        71.15253
423.64        71.37908
424.08        71.42176
424.53        71.24366
424.98        71.20171
425.42        71.34116
425.87        71.35397
426.31         71.2855
426.76        71.49728
427.21        71.89639
427.65        71.97364
428.10        71.70375
428.54        71.52547
428.99        71.49844
429.44        71.41074
429.88         71.2349
430.33        71.07278
430.77        70.91348
431.22        70.91262
431.66        71.04205
432.11        71.27559
432.56        71.59755
433.00        71.67197
433.45        71.27056
433.89        71.22923
434.34        71.73927
434.78        70.40911
435.23        70.28568
435.67        71.40868
436.12        71.82758
436.57        72.11282
437.01         71.5285
437.46        71.52663
437.90        72.27791
438.35        71.82973
438.79        72.15123
439.24        71.97057
439.68        71.88877
440.13        71.82268
440.57        71.76635
441.02          71.754
441.46        71.77686
441.91        71.69582
442.35        71.54794
442.80        72.09649
443.24        73.04185
443.69        73.05379
444.13        72.22159
444.58        71.78886
445.02        71.86825
445.47        72.14665
445.91        72.48281
446.36        72.62917
446.80        72.52252
447.24        72.41128
447.69        72.38702
448.13        72.25568
448.58        72.34177
449.02        72.35436
449.47        72.36188
449.91        72.34658
450.36        72.32035
450.80         72.1861
451.25        72.00645
451.69         71.9869
452.13        72.08554
452.58        71.95567
453.02        71.62029
453.47        71.43455
453.91        71.39833
454.36        71.33194
454.80        71.24964
455.24         71.1657
455.69         71.0779
456.13        71.12402
456.58        71.33411
457.02        70.82343
457.46         70.9103
457.91        70.68222
458.35         70.6513
458.79        70.55911
459.24        70.47457
459.68         70.4481
460.13         70.4715
460.57        70.40762
461.01        70.25858
461.46        70.23235
461.90        69.82497
462.34        69.98011
462.79        69.63978
463.23        69.69463
463.68        69.79201
464.12         69.5308
464.56        69.04868
465.01        69.21062
465.45        69.77702
465.89        69.87305
466.34         69.5319
466.78        69.23413
467.22        69.04588
467.67        69.14111
468.11        68.71371
468.55        68.78094
468.99        68.99324
469.44        69.00007
469.88        68.76351
470.32        68.45348
470.77        68.17015
471.21        67.98914
471.65        67.94815
472.10        68.02688
472.54         68.1385
472.98        68.19736
473.42        68.19616
473.87        68.08376
474.31        67.88233
474.75        67.99351
475.20        68.36724
475.64        68.08231
476.08        68.03223
476.52        67.91061
476.97        67.94471
477.41        68.08044
477.85         68.2375
478.29        67.97145
478.74        67.33281
479.18        67.60853
479.62         67.7779
480.06        67.94239
480.50        67.81013
480.95        67.78097
481.39        67.79871
481.83        67.80432
482.27        68.00446
482.72        67.40221
483.16        67.70972
483.60        67.54816
484.04        67.77743
484.48        67.69851
484.93        68.21503
485.37        67.30898
485.81        68.07652
486.25        67.41544
486.69        68.97346
487.14        68.99548
487.58        67.93546
488.02        67.52338
488.46        67.22009
488.90         67.2246
489.34        66.82558
489.79        66.85423
490.23         67.3362
490.67        67.60041
491.11         67.6505
491.55          67.458
491.99         67.1318
492.43        66.93301
492.88          66.907
493.32        66.94749
493.76        66.96301
494.20        66.96737
494.64        66.96155
495.08        66.63358
495.52        66.53739
495.96        66.62543
496.41        66.92546
496.85        67.07319
497.29        66.97475
497.73        66.81343
498.17        66.34433
498.61        66.51004
499.05        67.04541
499.49         66.8189
499.93        66.02113
500.37        65.87098
500.82        66.38883
501.26        66.76209
501.70        66.85738
502.14        66.37636
502.58        66.00639
503.02        65.81793
503.46        65.96252
503.90        66.15899
504.34         66.3074
504.78        66.42707
505.22        66.47313
505.66        66.45199
506.10        66.43139
506.54        66.37099
506.98        66.24892
507.42        66.39688
507.86        66.73672
508.30        66.06714
508.74        66.54655
509.18        66.40688
509.62        66.30765
510.06        66.23798
510.50         66.2008
510.94        66.08907
511.38        65.90454
511.82        65.78836
512.26         65.7561
512.70        65.72173
513.14        65.66816
513.58        65.68385
514.02        65.78446
514.46        65.57323
514.90        65.72384
515.34        65.69455
515.78        65.69145
516.22        65.67804
516.66        65.51366
517.10        65.75826
517.54        65.62267
517.98        65.71542
518.42        65.77572
518.86        65.77839
519.30        65.71508
519.74        65.56061
520.18        65.39094
520.62        65.40658
521.06         65.5767
521.50        65.63847
521.93        65.56146
522.37        65.50571
522.81        65.46926
523.25        65.34375
523.69        65.17053
524.13        65.07344
524.57        65.07066
525.01        65.12724
525.45        65.21121
525.89        65.27055
526.32        65.28803
526.76        65.28777
527.20        65.28646
527.64        65.31297
528.08        65.36974
528.52        65.43781
528.96        65.50423
529.40        65.54464
529.83        65.54969
530.27        65.56323
530.71        65.55653
531.15         65.4807
531.59        65.33929
532.03        65.15549
532.46        64.98461
532.90        64.92873
533.34        64.99773
533.78        65.15741
534.22        65.33404
534.66        65.41252
535.09        65.35773
535.53        65.22969
535.97        65.06587
536.41        64.94456
536.85        64.89146
537.28        64.88143
537.72        64.90442
538.16         64.9469
538.60        64.99599
539.04        65.05731
539.47        65.09991
539.91        65.12846
540.35        65.12363
540.79         65.0913
541.22        65.04027
541.66        65.00391
542.10        64.98541
542.54        64.97355
542.97        64.96381
543.41        64.98159
543.85        65.02296
544.29        65.09818
544.72         65.1644
545.16        65.21295
545.60        65.22744
546.04        65.12982
546.47        65.00118
546.91         65.1402
547.35        65.46819
547.79        65.59659
548.22        65.46672
548.66        65.27736
549.10        65.08939
549.53        64.93939
549.97        64.86436
550.41        64.80775
550.84          64.791
551.28        64.86025
551.72        64.96175
552.15          65.074
552.59        65.20963
553.03        64.88251
553.46        65.04801
553.90        64.92571
554.34         64.7739
554.77        64.84274
555.21        64.87777
555.65        64.69277
556.08        65.00466
556.52        65.14961
556.96        65.30099
557.39        65.40408
557.83        65.43132
558.27        65.24242
558.70        64.92852
559.14        64.76978
559.57        64.78168
560.01        64.95781
560.45        65.16911
560.88        65.05627
561.32        64.73534
561.75        64.63605
562.19        64.79869
562.63        64.89303
563.06        64.88615
563.50         64.8861
563.93        64.88064
564.37        64.89919
564.80        64.92043
565.24        64.96609
565.68        65.02751
566.11        65.05636
566.55        65.06495
566.98        65.14006
567.42        65.25581
567.85        65.11922
568.29        64.86401
568.72        64.88554
569.16        65.20244
569.60        65.39192
570.03        65.36594
570.47         65.5173
570.90        65.78503
571.34        65.71829
571.77         65.8595
572.21        66.10106
572.64          65.653
573.08        65.89092
573.51        65.73651
573.95        66.20739
574.38          65.941
574.82        66.58057
575.25        66.12507
575.69        66.09638
576.12        65.87009
576.56        65.80858
576.99        65.97841
577.42        66.04501
577.86         66.2289
578.29        66.73936
578.73        67.10499
579.16        66.69378
579.60        65.62127
580.03        66.14279
580.47        66.07548
580.90        66.05551
581.33        66.50455
581.77        66.56058
582.20        66.73796
582.64        67.02535
583.07        66.66647
583.51        66.40327
583.94        66.10076
584.37        65.63873
584.81        65.33239
585.24        65.48468
585.68        66.46431
586.11        66.14624
586.54         66.1299
586.98        66.29934
587.41        65.70186
587.85        66.20263
588.28        66.33999
588.71        66.27773
589.15        66.14265
589.58        65.84833
590.01        65.70457
590.45        65.53207
590.88        65.79543
591.31        65.49831
591.75        65.49505
592.18        65.42277
592.61        65.53838
593.05        65.90199
593.48        65.92165
593.91        66.47147
594.35        66.02176
594.78        65.93082
595.21        65.77957
595.65        65.82293
596.08        65.95072
596.51        66.05359
596.94        65.63964
597.38        65.52142
597.81        65.60477
598.24        65.66499
598.68        65.70161
599.11        65.51873
599.54        65.99161
599.97        65.82191
600.41        65.51754
600.84        65.77565
601.27        65.69656
601.70        65.83469
602.14        65.55894
602.57        65.51836
603.00         65.6286
603.43        65.75241
603.87        66.02871
604.30        65.90432
604.73        65.98581
605.16        65.39043
605.60        65.69484
606.03        65.70493
606.46        65.80786
606.89        65.74947
607.32        65.25081
607.76        66.00243
608.19        65.72231
608.62        65.62801
609.05        66.16598
609.48        65.76207
609.92        65.85281
610.35        65.74612
610.78        65.64758
611.21        65.57751
611.64         65.4688
612.07        65.51804
612.50         65.7017
612.94        65.70779
613.37         65.4936
613.80        65.93647
614.23        65.72748
614.66        65.57888
615.09        65.54604
615.52        65.46313
615.96         65.4625
616.39        65.39349
616.82        65.25508
617.25        65.42813
617.68        65.27055
618.11        65.30289
618.54        65.47647
618.97        65.38267
619.40        65.07863
619.84        65.06196
620.27        64.99449
620.70        64.97808
621.13        64.91006
621.56        64.99405
621.99        65.22211
622.42        65.37053
622.85        65.35052
623.28        65.50952
623.71        65.43921
624.14         65.4275
624.57        65.34832
625.00        65.83887
625.43        65.10619
625.86        65.04575
626.29        65.19205
626.72        64.83049
627.15        64.93785
627.58        64.98173
628.01        65.27444
628.44        65.04986
628.87        64.69353
629.30        65.25725
629.73          65.146
630.16        65.01451
630.59        64.92307
631.02         65.1228
631.45        64.99124
631.88        65.01781
632.31         64.9767
632.74         64.9929
633.17        64.95863
633.60        64.91005
634.03        64.82434
634.46        64.76825
634.89        64.65913
635.32        64.62691
635.75        64.64721
636.18        64.70549
636.61        64.77481
637.04        64.81409
637.47        64.81207
637.89        64.78748
638.32        64.74084
638.75        64.70006
639.18        64.67648
639.61        64.66579
640.04        64.67163
640.47        64.70124
640.90        64.75148
641.33        64.81471
641.76        64.88519
642.18        64.95902
642.61         65.0149
643.04        65.06293
643.47        65.08214
643.90        65.04501
644.33        64.95248
644.76        64.80421
645.18        64.65468
645.61        64.60715
646.04        64.66924
646.47          64.771
646.90         64.8649
647.33        64.91455
647.75        64.88665
648.18          64.797
648.61        64.71975
649.04        64.67868
649.47        64.66452
649.89        65.08126
650.32        65.13628
650.75        65.14415
651.18        64.92139
651.61        64.78764
652.03        64.79184
652.46        64.73626
652.89        64.64931
653.32        64.74806
653.74        65.02606
654.17        64.99992
654.60        64.66819
655.03        64.88531
655.46        64.45018
655.88        64.84438
656.31        66.28909
656.74        70.78537
657.16        69.55692
657.59        67.81732
658.02        65.72401
658.45        65.14787
658.87        65.05707
659.30        65.09515
659.73         65.0246
660.15        64.34901
660.58        64.76691
661.01        64.97244
661.44        65.29822
661.86        65.30532
662.29        65.00568
662.72        64.72676
663.14        64.57432
663.57        64.61546
664.00        64.80219
664.42        64.88786
664.85         64.8599
665.27        64.76965
665.70        64.84632
666.13        64.87039
666.55        64.90989
666.98        64.96378
667.41        65.00758
667.83        65.01196
668.26        64.98364
668.69        64.87546
669.11        64.71502
669.54        64.77764
669.96        65.13021
670.39        64.82423
670.82        65.37198
671.24        65.44931
671.67        65.48022
672.09        65.41849
672.52        65.33217
672.94        65.27747
673.37        65.26193
673.80        65.24038
674.22        65.21109
674.65        65.16407
675.07        65.11777
675.50         65.0574
675.92        65.00751
676.35        64.99332
676.77         65.0187
677.20        65.08541
677.62         65.1897
678.05         65.2531
678.47        65.25098
678.90        65.43844
679.32        65.37402
679.75        65.42142
680.17        65.45135
680.60        65.47649
681.02        65.48384
681.45        65.46397
681.87        65.42972
682.30        65.34235
682.72        65.26028
683.15        65.31667
683.57        65.46813
684.00        65.61672
684.42        65.44814
684.85        65.45358
685.27        65.53089
685.70        65.56185
686.12        65.52397
686.54        65.48416
686.97        65.43848
687.39        65.40035
687.82        65.38062
688.24        65.36578
688.66        65.33516
689.09        65.55711
689.51        65.52007
689.94        65.61795
690.36        65.68181
690.78        65.69506
691.21         65.6687
691.63        65.59752
692.06        65.54251
692.48        65.62891
692.90        65.81689
693.33        65.91265
693.75        65.90524
694.17        65.84017
694.60         65.7438
695.02        65.84735
695.44        65.85493
695.87        65.85982
696.29        65.79692
696.71        65.67538
697.14        65.56546
697.56        65.76241
697.98        66.16082
698.41        66.27982
698.83        66.19141
699.25        66.03773
699.68        65.90553
700.10        65.80316
700.52        65.75611
700.94        65.76057
701.37        65.78469
701.79        65.82339
702.21        65.84545
702.64         65.8648
703.06        65.87396
703.48        65.86789
703.90        65.85158
704.33        65.82112
704.75        65.79046
705.17        65.76521
705.59        65.75117
706.01        65.74441
706.44        65.76103
706.86        65.84439
707.28          65.981
707.70        66.15725
708.12        66.33324
708.55         66.4385
708.97        66.45168
709.39        66.40025
709.81        66.32007
710.23        66.28105
710.66        66.30703
711.08        66.38889
711.50        66.48027
711.92        66.52666
712.34        66.51435
712.76        66.45892
713.19        66.38303
713.61        66.37219
714.03        66.41722
714.45        66.51187
714.87        66.62071
715.29        66.64388
715.71        66.56061
716.13        66.57249
716.56        66.39104
716.98        66.37592
717.40        66.43645
717.82        66.55358
718.24        66.68992
718.66        66.78957
719.08        66.83781
719.50        66.85243
719.92        66.84711
720.34        66.84109
720.76        66.84458
721.19        66.84047
721.61        66.85889
722.03        66.92008
722.45        67.02497
722.87        67.16661
723.29        67.31348
723.71        67.41154
724.13        67.44712
724.55         67.4323
724.97        67.39555
725.39        67.38783
725.81        67.42183
726.23        67.47845
726.65        67.53776
727.07        67.57188
727.49        67.57528
727.91        67.55441
728.33        67.51448
728.75        67.49268
729.17        67.48312
729.59        67.41201
730.01        67.32554
730.43        67.35609
730.85        67.50972
731.27        67.72094
731.69        67.92445
732.10        67.95483
732.52        68.00682
732.94        67.74276
733.36        67.34414
733.78        67.15154
734.20        67.22514
734.62        67.39289
735.04        67.59346
735.46        67.78603
735.88        67.93793
736.30        68.07456
736.72        68.15218
737.13        68.13836
737.55        67.99982
737.97        67.68744
738.39        67.34039
738.81        67.36694
739.23          67.731
739.65        67.94188
740.06        67.89156
740.48        67.93657
740.90        68.03172
741.32        67.88708
741.74        67.70746
742.16        67.61771
742.57        67.71387
742.99        67.89982
743.41        68.11133
743.83        68.22785
744.25        68.21439
744.67        68.10333
745.08        67.98561
745.50        67.96245
745.92        68.07521
746.34        68.29022
746.75        68.49742
747.17        68.51945
747.59        68.33184
748.01        67.96312
748.42         67.5744
748.84        67.48347
749.26        67.71535
749.68        68.02333
750.09        68.28114
750.51        68.44548
750.93        68.46303
751.35        68.30507
751.76        68.06033
752.18        67.90794
752.60         67.8923
753.01        67.96793
753.43        68.04794
753.85        68.04952
754.27        67.94745
754.68        67.77338
755.10        67.60538
755.52        67.53497
755.93        67.58898
756.35        67.75265
756.77          67.964
757.18        68.08398
757.60        68.06525
758.02        67.99511
758.43        68.01814
758.85         67.8034
759.26        68.29307
759.68        68.67643
760.10         68.3521
760.51        67.96044
760.93        68.16431
761.34        68.11615
761.76        68.21051
762.18        68.44748
762.59        68.72773
763.01        68.88357
763.42        68.06299
763.84        68.07368
764.26         68.3618
764.67         68.7389
765.09        69.00637
765.50        69.15644
765.92        69.19621
766.33        69.16649
766.75        69.09028
767.16        69.00188
767.58        68.87857
768.00        68.98846
768.41        69.27443
768.83        69.07019
769.24        68.47999
769.66        68.71477
770.07        68.91814
770.49        69.10984
770.90        69.02013
771.32        68.93195
771.73        68.90307
772.15        68.93508
772.56        69.05873
772.97        69.22726
773.39        69.36958
773.80        69.47566
774.22        69.49144
774.63        69.44363
775.05         69.3419
775.46        69.25754
775.88        69.19013
776.29        69.15685
776.70        69.12392
777.12        69.04691
777.53        68.94609
777.95        68.83887
778.36        68.77207
778.77        68.80698
779.19        68.94476
779.60        69.15595
780.02        69.39719
780.43        69.59575
780.84        69.71926
781.26        69.84237
781.67        69.96387
782.09        69.82933
782.50        69.53378
782.91         69.5239
783.33        69.74897
783.74        69.82955
784.15        69.70501
784.57        69.65397
784.98        69.69387
785.39        69.70819
785.81        69.69927
786.22        69.68999
786.63        69.71327
787.04         69.8245
787.46        70.03615
787.87        70.29532
788.28        70.54204
788.70        70.67521
789.11        70.65657
789.52        70.53439
789.93        70.37876
790.35        70.29381
790.76        70.31738
791.17        70.41483
791.58        70.55112
792.00        70.60651
792.41        70.58202
792.82        70.63152
793.23        70.74944
793.65        70.60715
794.06        70.37512
794.47        70.73079
794.88        71.49671
795.29        71.91314
795.71         71.8526
796.12        71.77106
796.53        71.68575
796.94        71.63458
797.35        71.58033
797.76        71.24171
798.18        70.71953
798.59        70.46456
799.00        70.52573
799.41        70.68681
799.82        70.87244
800.23        71.04537
800.64        71.16058
801.06        71.19859
801.47        71.21282
801.88        71.21388
802.29        71.21799
802.70        71.22273
803.11        71.22595
803.52        71.22657
803.93        71.21973
804.34        71.20325
804.75        71.22009
805.17        71.26968
805.58        71.36846
805.99        71.65285
806.40        72.00831
806.81        71.85469
807.22         71.3404
807.63        71.37732
808.04        71.93202
808.45        72.16042
808.86        72.00694
809.27        71.97372
809.68        72.08278
810.09        72.11322
810.50        72.06114
810.91        71.99955
811.32        71.91513
811.73        71.78419
812.14        71.61341
812.55        71.40069
812.96        71.21736
813.37        71.18874
813.78        71.33485
814.19        71.61699
814.60        71.91781
815.01        72.05672
815.42        71.99512
815.83        71.77773
816.24        71.51769
816.65        71.43141
817.05        71.58743
817.46        71.88181
817.87         72.2284
818.28        72.45485
818.69        72.51767
819.10        72.47578
819.51        72.38178
819.92        72.32656
820.33        72.34399
820.74        72.38983
821.14        72.45748
821.55        72.56422
821.96        72.68999
822.37        72.84232
822.78        72.96259
823.19        72.94331
823.60        72.76332
824.00        72.46526
824.41        72.11256
824.82        71.89495
825.23        71.86393
825.64        71.98509
826.04        72.18512
826.45         72.2978
826.86         72.2972
827.27        72.23347
827.68        72.17844
828.08        72.27944
828.49        72.49628
828.90        72.81364
829.31        73.17743
829.72        73.43742
830.12        73.56215
830.53        73.85172
830.94        73.73956
831.35        73.62913
831.75        73.38284
832.16         73.0036
832.57        72.60705
832.97        72.37638
833.38        72.35616
833.79        72.50293
834.20        72.73847
834.60        72.93361
835.01        73.04651
835.42        73.11127
835.82        73.15453
836.23        73.16877
836.64        73.18289
837.04        73.20117
837.45        73.21033
837.86        73.26176
838.26        73.37095
838.67        73.50346
839.08        73.66106
839.48        73.82899
839.89        73.98547
840.29        74.14062
840.70        74.25742
841.11        74.27845
841.51        74.21757
841.92        74.06004
842.33        73.89445
842.73        73.86427
843.14        73.95807
843.54        74.17117
843.95        74.42283
844.35        74.60737
844.76        74.67792
845.17        74.66393
845.57        74.62003
845.98        74.59981
846.38        74.65075
846.79        74.72697
847.19        74.81424
847.60        74.80919
848.00        74.73331
848.41        74.58469
848.81        74.47274
849.22        74.49574
849.62        74.71399
850.03        75.04079
850.43        75.41151
850.84        75.62151
851.24        75.67425
851.65        75.54895
852.05        75.36644
852.46        75.23199
852.86        75.19624
853.27        75.26863
853.67        75.31332
854.07         75.2928
854.48        75.16174
854.88        74.96952
855.29        74.75461
855.69         74.7672
856.10        74.95408
856.50        75.33925
856.90        75.70433
857.31         75.7396
857.71        75.43402
858.12        74.81881
858.52        74.10361
858.92        73.56739
859.33        73.29902
859.73        73.28582
860.13        73.41502
860.54        73.49276
860.94         73.5172
861.34        73.49426
861.75        73.46305
862.15        73.56558
862.55        73.77726
862.96        74.02411
863.36        74.20934
863.76        74.13706
864.17        73.76888
864.57          73.207
864.97         72.5795
865.38        72.08452
865.78        71.84673
866.18        71.81382
866.58        71.97269
866.99        72.25417
867.39         72.6401
867.79        73.10978
868.19        73.57615
868.60        73.84278
869.00        73.94055
869.40        74.03002
869.80        74.09489
870.21        73.97543
870.61        73.73893
871.01        73.46677
871.41        73.17422
871.81        72.80118
872.22        72.36693
872.62        71.92616
873.02        71.55759
873.42         71.5319
873.82        71.73687
874.22        71.70685
874.63        71.60734
875.03        71.78736
875.43        72.23925
875.83        73.49297
876.23        73.38417
876.63        72.97951
877.03        72.05284
877.44        70.16991
877.84        153.8126
878.24        70.36438
878.64        70.95895
879.04         72.2843
879.44        72.91827
879.84         70.6442
880.24        74.69773
880.64           75.06
881.04        73.49161
881.44        72.37508
881.84         72.1024
882.24        72.70967
882.65         73.6241
883.05        73.71416
883.45         72.7532
883.85        71.44012
884.25        70.25476
884.65        69.64838
885.05         69.7737
885.45        70.41671
885.85        71.23511
886.25        71.75216
886.65        71.82924
887.05        71.61509
887.45        71.20406
887.85        70.75093
888.25         70.3538
888.65        69.97854
889.04        69.70875
889.44         69.6969
889.84         69.9548
890.24        70.42238
890.64        71.00368
891.04        71.55285
891.44        72.00778
891.84        72.38691
892.24        72.61514
892.64         72.5799
893.04         72.2822
893.44        71.77212
893.83        71.22452
894.23        70.88071
894.63        70.81585
895.03        70.98788
895.43        71.29964
895.83        71.56326
896.23        71.72218
896.63        71.82648
897.02        71.91745
897.42        72.13071
897.82        72.44924
898.22        72.80026
898.62        73.11476
899.01         73.3079
899.41        73.32309
899.81        73.20892
900.21        72.96476
900.61         72.5867
901.00        72.09986
901.40        71.59901
901.80        71.18533
902.20        70.90181
902.59        70.76047
902.99         70.9517
903.39        71.52303
903.79        71.20316
904.18        72.04088
904.58        72.33938
904.98        72.58053
905.38        72.50729
905.77        72.10209
906.17        71.47292
906.57        70.79787
906.96        70.46941
907.36        70.58057
907.76        71.03365
908.15        71.70452
908.55        72.22102
908.95        72.50537
909.34        72.59193
909.74        72.57009
910.14        72.54616
910.53        72.56355
910.93        72.59146
911.33        72.53667
911.72         72.2626
912.12        71.77779
912.52        71.14252
912.91        70.56402
913.31        70.44013
913.70        70.80919
914.10        71.55253
914.49        72.38046
914.89        72.70737
915.29        72.41959
915.68        71.67529
916.08        70.82216
916.47        70.36899
916.87        70.48388
917.26        71.00572
917.66        71.70031
918.05        72.20991
918.45        72.39938
918.84        72.38879
919.24        72.31018
919.64        72.43149
920.03        72.81301
920.42        73.32685
920.82        73.77937
921.21        73.90282
921.61        73.65911
922.00        73.19986
922.40        72.76711
922.79        72.63081
923.19        72.58355
923.58        73.21566
923.98         74.6386
924.37        74.78324
924.77        72.55795
925.16        78.38509
925.55        73.54153
925.95        73.88348
926.34        74.08314
926.74        73.96436
927.13        73.38457
927.52        72.96286
927.92        72.98801
928.31        73.04637
928.70        73.22768
929.10        73.58858
929.49        74.12334
929.89        74.82151
930.28        75.40887
930.67        75.30291
931.07        74.42104
931.46        72.87161
931.85        71.22968
932.24        70.83226
932.64        71.92185
933.03        73.61227
933.42        74.97142
933.82        77.15834
934.21         76.0015
934.60        74.79483
934.99        73.44651
935.39         73.0397
935.78        73.69785
936.17        75.57353
936.56        80.64302
936.96        75.58894
937.35        78.22663
937.74        75.40366
938.13        73.18867
938.53        71.62671
938.92        71.41875
939.31        72.82257
939.70        74.57832
940.09         75.3776
940.49        74.94743
940.88        73.73817
941.27        72.24697
941.66        71.42923
942.05         71.6358
942.44        72.49481
942.84        73.53439
943.23         74.1813
943.62        74.26879
944.01         73.9899
944.40         73.6227
944.79        73.61329
945.18        74.06538
945.57        74.78757
945.97        75.45297
946.36        75.69064
946.75        75.36417
947.14        74.62331
947.53        73.72643
947.92        73.11151
948.31        72.93414
948.70        73.07738
949.09        73.37202
949.48         73.5496
949.87        73.53495
950.26        73.42316
950.65        73.30753
951.04        73.32549
951.43         73.5124
951.82          73.795
952.21        74.09161
952.60        74.29072
952.99        74.33654
953.38        74.24349
953.77        74.06799
954.16        73.88039
954.55        73.71182
954.94        73.59115
955.33        73.44259
955.72        73.13474
956.11        72.68385
956.50         72.1471
956.89        71.80502
957.28        72.08746
957.66         73.0516
958.05        74.43087
958.44        75.80997
958.83        76.57733
959.22        76.57773
959.61        75.95007
960.00        74.93342
960.39        74.03897
960.78        73.51175
961.16          73.288
961.55         73.1758
961.94        72.94609
962.33        72.53483
962.72        72.02927
963.11         71.5966
963.49        71.55553
963.88        71.95329
964.27        72.62795
964.66        73.29704
965.04        73.61074
965.43        73.45591
965.82        72.99516
966.21        72.38039
966.60        71.89949
966.98        71.67124
967.37        71.58015
967.76         71.6602
968.15        71.95482
968.53        72.44683
968.92        73.12069
969.31        73.72952
969.69        73.84258
970.08        73.35699
970.47         72.3914
970.86        71.36095
971.24        71.00826
971.63        71.48547
972.02        72.54449
972.40        73.76094
972.79        74.42622
973.17        74.43538
973.56        74.01218
973.95        73.41458
974.33        73.09894
974.72        73.20495
975.11        73.52975
975.49        74.08074
975.88          74.809
976.26        75.69507
976.65        76.68041
977.04        77.46982
977.42        77.57179
977.81        76.86598
978.19        75.42285
978.58        73.86953
978.96        73.38625
979.35        74.24707
979.74        76.00215
980.12        77.86902
980.51         78.7191
980.89        78.49572
981.28        77.41807
981.66        75.93034
982.05        75.09924
982.43        75.35387
982.82        76.38338
983.20          77.678
983.59         78.4387
983.97        78.50185
984.35        78.07352
984.74        77.38921
985.12        76.95556
985.51        76.88865
985.89        77.06462
986.28        77.25842
986.66        77.20033
987.04        76.87404
987.43         76.3261
987.81        75.55238
988.20        75.67971
988.58        76.95872
988.96         77.1528
989.35        75.63448
989.73        80.42393
990.12        77.92924
990.50        78.54806
990.88        78.62608
991.27        78.55133
991.65        78.26482
992.03        77.86629
992.42        77.60188
992.80        77.52904
993.18        77.68745
993.56        78.11334
993.95        78.58353
994.33        78.69614
994.71        78.38236
995.10        77.72402
995.48        77.08559
995.86        77.05373
996.24        77.72499
996.63        78.81001
997.01        79.96668
997.39        80.45395
997.77        80.10389
998.15        79.17538
998.54        78.02841
998.92        77.12403
999.30        76.67623
999.68        76.57494
1000.06        76.77197
1000.45        77.10155
1000.83        77.57314
1001.21        78.21568
1001.59        78.94216
1001.97        79.61266
1002.35        80.16095
1002.73        80.51534
1003.12        80.77997
1003.50        81.17828
1003.88         81.7389
1004.26        82.45847
1004.64        83.06571
1005.02        82.99736
1005.40        82.09011
1005.78        80.49249
1006.16        78.78501
1006.54        77.92268
1006.92         78.1469
1007.30        79.22099
1007.69        80.48501
1008.07        81.03774
1008.45        80.65294
1008.83        79.60124
1009.21        78.40968
1009.59        78.17886
1009.97          79.158
1010.35        80.71871
1010.73        82.32503
1011.11        83.66631
1011.49        84.79007
1011.86        85.70979
1012.24        86.12257
1012.62        87.22755
1013.00        87.19817
1013.38        86.06747
1013.76        83.24484
1014.14        85.45157
1014.52         89.8814
1014.90        84.74649
1015.28        86.28774
1015.66         87.5507
1016.04        84.93294
1016.41        84.55533
1016.79        83.26889
1017.17        82.52015
1017.55        81.98941
1017.93        81.72178
1018.31        82.03808
1018.69        83.00658
1019.06        84.55051
1019.44        86.47111
1019.82         88.1003
1020.20        88.56252
1020.58        87.70193
1020.95        85.45235
1021.33        82.39724
1021.71        80.68589
1022.09        81.46811
1022.46        83.79955
1022.84        86.25767
1023.22        87.75277
1023.60        88.30602
1023.97        88.34389
1024.35        88.10083
1024.73        87.97862
