SpectraSmart Spectrum 2.9.0.0
--------- Device Information -----------
Spectrum Name :  反射率_0
Saving Time :  2024/04/21 00:01:02
Spectro-Module Model Name : SE2030-DUVN
Spectro-Module Serial Number : OS361AC55029948
Wavelength Start : 200
Wavelength End : 1025
Wavelength Unit : Wavelength(nm)
Spectrum Unit : Reflectance(%)
-----------Spectrum Setting ------------
Integration Time : 20ms
Average : 10
Boxcar : 0
Background removal :  enabled
linearity correction :  enabled
SC :  disabled
Intensity correction :  disabled
DWT denoise :  enabled
savitzky-golay :  disabled
FFT :  disabled
Running average :  disabled
Kalman :  disabled
High pass :  disabled
---------------BEGIN--------------------
Wavelength(nm)             Reflectance(%)
200.29               0
200.75       -31.22044
201.21        16.43589
201.67        38.96144
202.13        43.45366
202.58        37.00856
203.04        23.16301
203.50        4.662246
203.96       -7.985126
204.42       -8.865447
204.88       -3.112746
205.34         7.64282
205.80        21.94398
206.26         40.2253
206.72        67.51536
207.18        93.12798
207.64         89.8959
208.10        48.08168
208.55       -22.92899
209.01       -79.75286
209.47       -64.86753
209.93       -16.28102
210.39        28.26427
210.85        58.29392
211.31        71.62199
211.77        72.52188
212.23        63.16954
212.69        39.48419
213.14       -1.306685
213.60       -64.42934
214.06       -221.2717
214.52       -535.1575
214.98       -214.9063
215.44       -43.86259
215.90        11.89489
216.36        30.55603
216.81        33.73124
217.27        25.67805
217.73       -22.18789
218.19        567.7728
218.65          256.42
219.11       -497.8384
219.57       -1.203176
220.02        30.33569
220.48         35.0607
220.94        30.39948
221.40        14.62176
221.86       -21.16443
222.32       -38.67815
222.77      -0.5375323
223.23        29.46451
223.69         43.4943
224.15        47.03062
224.61        44.89464
225.06        39.71931
225.52        32.71732
225.98        25.66138
226.44        19.66937
226.90        13.29572
227.36        9.708033
227.81        14.17496
228.27        23.20054
228.73        32.53479
229.19         38.3565
229.65         38.4996
230.10         33.6772
230.56        25.10254
231.02        14.20911
231.48        7.129532
231.93        8.145618
232.39        14.86936
232.85        22.34884
233.31        26.41415
233.77        27.27604
234.22        26.70699
234.68        25.35103
235.14        24.33247
235.60        24.42521
236.05        24.46166
236.51        24.29533
236.97        29.31127
237.43        39.46635
237.88        45.43792
238.34        43.56492
238.80        63.19712
239.26        52.88087
239.71        50.44502
240.17        42.12173
240.63         33.7249
241.08        29.29992
241.54        32.20503
242.00         42.5296
242.46        50.02454
242.91        52.38396
243.37        50.82608
243.83        46.59328
244.28        44.88515
244.74         48.1629
245.20         52.4283
245.66        55.12128
246.11        54.18619
246.57        49.27787
247.03        41.91301
247.48        31.13027
247.94        13.91841
248.40       -17.10012
248.85       -94.82947
249.31       -340.1295
249.77       -552.6072
250.22       -182.2922
250.68       -23.81532
251.14        29.26728
251.59        47.94605
252.05        54.51444
252.51        56.04906
252.96        51.52377
253.42        40.04423
253.88        26.06032
254.33        14.10914
254.79        12.63538
255.25        23.75353
255.70        39.14743
256.16        53.03836
256.62        62.74643
257.07        67.05201
257.53        67.97079
257.99        67.06786
258.44        65.05098
258.90        63.19204
259.35        61.23301
259.81        59.49814
260.27        57.89789
260.72        56.48701
261.18        55.59427
261.63        54.87279
262.09        54.39336
262.55        53.80329
263.00        52.99146
263.46        52.21291
263.91        51.39545
264.37        50.88015
264.83        50.56693
265.28        50.29327
265.74        50.02616
266.19        49.50401
266.65        48.76596
267.11        47.84186
267.56        46.76042
268.02        45.66427
268.47        44.55345
268.93        43.44135
269.38        42.33156
269.84        41.29479
270.30        40.33269
270.75        39.44713
271.21        38.62323
271.66        37.75776
272.12         36.8654
272.57        35.94921
273.03        35.09277
273.48        34.36707
273.94        33.80651
274.39        33.35214
274.85        32.95204
275.31        32.45933
275.76        31.84391
276.22        31.18439
276.67        30.56644
277.13        30.19557
277.58        30.04018
278.04        30.04853
278.49        30.02845
278.95         29.8029
279.40        29.29861
279.86        28.62753
280.31        27.87912
280.77        27.27589
281.22        26.82763
281.68        26.52809
282.13        26.25088
282.59        25.89426
283.04        25.41757
283.50        24.89929
283.95        24.44319
284.41         24.2302
284.86        24.27255
285.32        24.51559
285.77        24.80713
286.22        24.94855
286.68        24.92263
287.13        24.75801
287.59        24.62061
288.04        24.65296
288.50        24.85779
288.95        25.27834
289.41        25.83485
289.86        25.93613
290.32        25.48364
290.77        26.40498
291.22        25.60434
291.68        25.71922
292.13        25.86081
292.59        26.10302
293.04        26.47715
293.50        27.10559
293.95        28.01311
294.40        29.14172
294.86        30.38932
295.31        31.57583
295.77        32.65329
296.22        33.65458
296.68        34.65873
297.13        35.78558
297.58        37.08052
298.04        38.50027
298.49        40.00681
298.95         41.5633
299.40        43.12569
299.85        44.71239
300.31        46.29058
300.76        47.78312
301.21        49.19233
301.67        50.55827
302.12        51.92521
302.58        53.46759
303.03        55.18272
303.48        57.06623
303.94         59.0359
304.39        60.91013
304.84        62.65147
305.30         64.3175
305.75        65.94188
306.20        67.68134
306.66        69.55857
307.11        71.47217
307.57         73.3501
308.02        75.01677
308.47        76.46652
308.93        77.79412
309.38        79.04716
309.83        80.34701
310.29        81.79555
310.74        83.26526
311.19        84.72245
311.65        86.07249
312.10        87.26709
312.55        88.33809
313.00         89.3079
313.46        90.21449
313.91        91.05918
314.36        91.84551
314.82        92.57608
315.27        93.24928
315.72        93.88332
316.18        94.49156
316.63        95.10225
317.08         95.7588
317.53        96.45664
317.99        97.16417
318.44        97.83703
318.89        98.39086
319.35        98.80343
319.80        99.11324
320.25         99.3343
320.70        99.50011
321.16        99.62598
321.61        99.71735
322.06        99.82885
322.51        100.0552
322.97        100.3934
323.42        100.8579
323.87         101.326
324.32        101.6026
324.78        101.6302
325.23        101.5084
325.68        101.3575
326.13        101.4088
326.59        101.7022
327.04        102.2187
327.49        102.8377
327.94        103.3872
328.39        103.8028
328.85        104.0992
329.30        104.3707
329.75        104.6468
330.20        104.9485
330.66        105.2121
331.11        105.4947
331.56        105.7672
332.01         106.033
332.46        106.3115
332.92        106.5619
333.37        106.8449
333.82        107.1248
334.27        107.4107
334.72        107.7355
335.17        108.1546
335.63        108.6426
336.08         109.229
336.53        109.8411
336.98         110.408
337.43        110.8988
337.88         111.326
338.34        111.6636
338.79        111.9337
339.24        112.1312
339.69        112.2712
340.14        112.4113
340.59        112.6434
341.05        112.9946
341.50        113.4544
341.95        113.9837
342.40        114.5166
342.85        115.0171
343.30        115.4823
343.75        115.9053
344.20        116.2844
344.66        116.6263
345.11        116.9138
345.56        117.1298
346.01         117.252
346.46        117.2973
346.91        117.2715
347.36        117.2393
347.81        117.3501
348.26        117.6301
348.72         117.838
349.17        118.2532
349.62        118.4609
350.07        118.5393
350.52        118.5012
350.97        118.3829
351.42        118.2453
351.87        118.0995
352.32        117.9212
352.77         117.687
353.22        117.3597
353.67        116.9393
354.13        116.4786
354.58        115.9695
355.03        115.4475
355.48        114.9366
355.93        114.4305
356.38        113.9785
356.83        113.6526
357.28         113.439
357.73         113.295
358.18        113.1054
358.63        112.6906
359.08        112.0166
359.53        111.1495
359.98        110.1885
360.43        109.2863
360.88        108.4899
361.33         107.756
361.78        107.0728
362.23        106.4185
362.68        105.7802
363.13        105.1788
363.58        104.5694
364.03        103.8714
364.48        103.0714
364.93        102.1818
365.38        101.2826
365.83        100.5128
366.28        99.89807
366.73         99.3904
367.18        98.89601
367.63        98.26476
368.08        97.46549
368.53        96.55929
368.98         95.6096
369.43        94.70284
369.88        93.86355
370.33        93.05702
370.78        92.28806
371.23        91.58134
371.68        90.94553
372.13        90.38882
372.58        89.87095
373.03        89.30908
373.48        88.67727
373.93        87.98758
374.38        87.28449
374.83        86.65704
375.28        86.13157
375.72         85.6646
376.17        85.23541
376.62        84.74013
377.07        84.14805
377.52        83.47801
377.97         82.7795
378.42        82.15199
378.87        81.63859
379.32        81.22388
379.77        80.85416
380.22        80.43641
380.67        79.94096
381.11        79.39174
381.56        78.83727
382.01        78.38292
382.46        78.05787
382.91        77.82692
383.36         77.6067
383.81        77.27073
384.26        76.78957
384.71        76.20352
385.15        75.57877
385.60        75.07971
386.05        74.71854
386.50        74.45712
386.95        74.22392
387.40        73.91405
387.85        73.51501
388.29        73.02592
388.74        72.60603
389.19        72.28606
389.64        72.06323
390.09        71.89173
390.54        71.72407
390.98        71.47562
391.43        71.18015
391.88        70.87249
392.33        70.56844
392.78        70.31061
393.23        70.11388
393.67        69.84934
394.12        69.64482
394.57        69.68867
395.02        69.89052
395.47        69.84138
395.91        69.52936
396.36        69.25146
396.81        69.04792
397.26        68.77558
397.71        68.42068
398.15        68.07169
398.60        67.82149
399.05        67.41131
399.50        67.01791
399.95        67.23516
400.39        67.88078
400.84        68.10301
401.29        67.78674
401.74        67.17001
402.18         66.4694
402.63        66.17903
403.08        66.26641
403.53        66.06329
403.97        65.56341
404.42        65.28834
404.87        65.23423
405.32        65.17107
405.76        65.07735
406.21        64.95953
406.66        64.83228
407.11        64.86015
407.55        64.97098
408.00        64.82156
408.45        64.45381
408.90        64.02807
409.34        63.70988
409.79        63.88303
410.24        64.36395
410.68        64.46809
411.13        64.14169
411.58        63.76126
412.03        63.46083
412.47        63.32618
412.92         63.3875
413.37        63.61509
413.81        63.88545
414.26        64.06839
414.71        64.10509
415.15        64.05229
415.60        63.90749
416.05        63.72894
416.49        63.55113
416.94        63.35157
417.39        63.16605
417.83        63.04262
418.28        62.99217
418.73        63.00844
419.17         63.0532
419.62        63.06599
420.07        63.02968
420.51        62.95245
420.96        62.88615
421.41        62.87215
421.85        62.89317
422.30        62.95093
422.74        62.99752
423.19        63.10483
423.64        63.23377
424.08        63.32044
424.53        63.30692
424.98        63.32208
425.42        63.38937
425.87        63.33867
426.31        63.24202
426.76        63.41967
427.21        63.79966
427.65        63.93909
428.10         63.7812
428.54        63.65599
428.99         63.6068
429.44        63.47686
429.88         63.2751
430.33         63.1053
430.77        62.96975
431.22        63.07717
431.66         63.3677
432.11         63.5849
432.56        63.73447
433.00        63.89376
433.45        63.82312
433.89        63.72473
434.34        63.83139
434.78         62.5771
435.23        62.79477
435.67        63.62126
436.12        63.91192
436.57        64.05045
437.01        63.65572
437.46        63.39743
437.90        63.93899
438.35        64.29967
438.79        64.26911
439.24        64.30396
439.68        64.31976
440.13        64.17906
440.57        63.95409
441.02        64.10831
441.46        64.52902
441.91        64.48863
442.35        64.07838
442.80        64.32367
443.24        65.04888
443.69        65.25241
444.13        64.88013
444.58        64.57325
445.02        64.40671
445.47        64.37639
445.91        64.46179
446.36        64.51394
446.80        64.51573
447.24        64.58627
447.69        64.71754
448.13        64.93578
448.58        65.01514
449.02         64.9571
449.47        64.76122
449.91        64.66019
450.36        64.69731
450.80         64.6753
451.25        64.61736
451.69        64.68777
452.13        64.83117
452.58        64.73695
453.02        64.44531
453.47        64.30424
453.91        64.32574
454.36        64.33819
454.80        64.28992
455.24        64.21393
455.69        64.12568
456.13        63.92592
456.58        63.69562
457.02        63.76262
457.46          63.753
457.91        63.77487
458.35        63.78619
458.79         63.7233
459.24        63.63478
459.68        63.46917
460.13        63.28773
460.57        63.11721
461.01        62.99329
461.46        62.81381
461.90         62.8046
462.34        62.67875
462.79        62.67744
463.23         62.8008
463.68        63.00934
464.12        62.75668
464.56        62.20042
465.01        62.36406
465.45        62.96446
465.89        62.96243
466.34        62.47359
466.78        62.13046
467.22        61.94819
467.67        62.55212
468.11        62.00792
468.55        62.02459
468.99        62.01336
469.44        61.97502
469.88        61.88919
470.32        61.74033
470.77        61.57669
471.21        61.45404
471.65        61.39381
472.10        61.38383
472.54        61.37111
472.98         61.3313
473.42         61.2729
473.87        61.10504
474.31        60.86705
474.75        61.00624
475.20        61.44896
475.64        61.24621
476.08        61.13936
476.52        61.01057
476.97        61.05231
477.41        61.05442
477.85        61.01688
478.29        60.88742
478.74        60.60296
479.18        60.96938
479.62        60.77893
480.06        60.86229
480.50        60.90882
480.95        60.77951
481.39        60.41224
481.83        61.03023
482.27        61.03171
482.72        60.84988
483.16         61.2676
483.60        61.53818
484.04        61.43835
484.48        61.05733
484.93        61.19202
485.37        60.36237
485.81        60.91149
486.25         60.9636
486.69        61.81153
487.14        61.20185
487.58        60.73389
488.02        60.71642
488.46        60.36942
488.90        60.89706
489.34        60.41873
489.79        59.95544
490.23        60.50099
490.67         60.6631
491.11        60.80083
491.55        60.68696
491.99        60.41259
492.43        60.29005
492.88        60.33567
493.32        60.37112
493.76        60.32802
494.20        60.32677
494.64        60.39174
495.08        60.11147
495.52          60.075
495.96         60.1998
496.41        60.52475
496.85        60.40653
497.29        59.91169
497.73        59.92793
498.17        60.10672
498.61        60.25834
499.05        60.19036
499.49        59.92205
499.93        59.60255
500.37         59.5714
500.82        59.79729
501.26        60.11336
501.70        60.36891
502.14        59.96121
502.58        59.51261
503.02        59.27122
503.46        59.38131
503.90        59.51424
504.34        59.58122
504.78        59.64112
505.22        59.68108
505.66        59.63535
506.10        59.52662
506.54        59.58083
506.98        59.84282
507.42        59.55529
507.86        59.91834
508.30        59.96386
508.74        59.91583
509.18        59.85638
509.62        59.76428
510.06        59.67922
510.50        59.58558
510.94        59.42406
511.38        59.23877
511.82        59.16044
512.26        59.20142
512.70        59.30244
513.14        59.41749
513.58        59.48881
514.02        59.49416
514.46        59.44613
514.90         59.3615
515.34        59.31252
515.78         59.3182
516.22        59.32041
516.66        59.15591
517.10        59.41503
517.54        59.17529
517.98        59.17062
518.42        59.13648
518.86        59.10534
519.30        59.08117
519.74        59.02534
520.18        58.98505
520.62        59.10503
521.06        59.34265
521.50        59.46305
521.93        59.43967
522.37        59.42048
522.81        59.40564
523.25        59.29716
523.69         59.1249
524.13        58.99187
524.57        58.91853
525.01        58.87953
525.45        58.87765
525.89         58.9139
526.32        58.97912
526.76        59.07968
527.20        59.18631
527.64        59.25223
528.08        59.26582
528.52        59.23694
528.96        59.19278
529.40        59.17326
529.83        59.18474
530.27        59.24006
530.71        59.29999
531.15        59.30035
531.59        59.23094
532.03        59.12094
532.46        58.99591
532.90        58.90741
533.34         58.8667
533.78        58.86199
534.22        58.87645
534.66        58.88405
535.09        58.86815
535.53        58.85448
535.97        58.84087
536.41        58.84015
536.85        58.85265
537.28        58.86944
537.72        58.87963
538.16        58.86901
538.60        58.83511
539.04         58.7891
539.47        58.72481
539.91        58.68048
540.35        58.64774
540.79        58.62385
541.22        58.61361
541.66        58.63767
542.10        58.68947
542.54         58.7588
542.97        58.81852
543.41        58.85643
543.85        58.86326
544.29        58.85731
544.72        58.83003
545.16        58.81801
545.60         58.8151
546.04        58.75343
546.47        58.68048
546.91        58.77685
547.35        58.97461
547.79        59.05913
548.22        58.97816
548.66        58.75539
549.10        58.45799
549.53        58.47933
549.97         58.7605
550.41        58.85028
550.84        58.72692
551.28        58.64272
551.72        58.62099
552.15        58.65589
552.59        58.77899
553.03        58.62852
553.46        58.79268
553.90        58.74251
554.34        58.64775
554.77        58.49681
555.21        58.36197
555.65         58.3292
556.08        58.40237
556.52        58.58281
556.96         58.7853
557.39        58.88251
557.83        58.86162
558.27        58.75206
558.70        58.62478
559.14         58.5667
559.57        58.58968
560.01        58.78125
560.45        59.00163
560.88        58.89986
561.32        58.59053
561.75        58.34293
562.19        58.28015
562.63         58.5252
563.06        58.91735
563.50        58.87245
563.93        58.44098
564.37        58.24348
564.80        58.32592
565.24        58.51521
565.68        58.73329
566.11        58.84919
566.55        58.85353
566.98        58.86176
567.42        58.89364
567.85        58.80665
568.29        58.67699
568.72        58.63287
569.16        58.72367
569.60        58.76698
570.03        58.80017
570.47        58.91789
570.90         59.1026
571.34        59.01302
571.77        59.29514
572.21         59.0372
572.64        59.21755
573.08        58.55739
573.51        58.97052
573.95        59.34114
574.38        59.29739
574.82        59.32037
575.25        59.58421
575.69        59.25911
576.12        58.84068
576.56        59.04905
576.99        59.24183
577.42        59.23624
577.86         59.1685
578.29        59.74156
578.73        59.80243
579.16        59.34837
579.60        59.14969
580.03         59.2919
580.47        59.39545
580.90        59.51582
581.33        59.48872
581.77        59.70783
582.20        59.79642
582.64        59.75862
583.07        59.58109
583.51        59.46602
583.94        59.28022
584.37        58.99543
584.81         58.7959
585.24        58.82785
585.68         59.4524
586.11        59.43264
586.54        59.18851
586.98        59.39688
587.41        59.24804
587.85        59.36147
588.28         59.5337
588.71        59.59326
589.15        59.51921
589.58         59.0204
590.01        58.87216
590.45        58.92432
590.88        58.91878
591.31        58.76523
591.75        58.96952
592.18         58.8652
592.61         58.6474
593.05        59.19146
593.48        59.42071
593.91        59.46379
594.35        59.21344
594.78        59.14237
595.21        58.97963
595.65        58.98665
596.08        59.03125
596.51        59.20008
596.94        59.05822
597.38        59.05768
597.81        59.12694
598.24        59.14259
598.68        58.88339
599.11        59.02493
599.54         59.1772
599.97        58.67832
600.41        58.93118
600.84        59.29061
601.27        59.11181
601.70        59.11793
602.14        58.90589
602.57        58.91175
603.00        59.05803
603.43        59.17929
603.87        59.38419
604.30        59.14807
604.73        59.01585
605.16        58.78579
605.60        58.82363
606.03        58.86186
606.46          59.007
606.89        58.60807
607.32        58.65179
607.76        59.21983
608.19        58.96229
608.62        58.87786
609.05        59.45355
609.48        58.97902
609.92        59.03982
610.35        59.06638
610.78        59.31243
611.21        58.77634
611.64        59.09929
612.07        59.00671
612.50        58.99449
612.94        58.94452
613.37        58.87883
613.80          58.986
614.23        58.93981
614.66         58.8666
615.09        58.71571
615.52        58.71538
615.96        58.84638
616.39        58.88708
616.82        58.75988
617.25        58.78976
617.68        58.78356
618.11        58.63528
618.54        58.52614
618.97        58.56494
619.40        58.70068
619.84        58.83038
620.27        58.41671
620.70        58.24944
621.13        58.21885
621.56        58.30489
621.99        58.46413
622.42        58.56646
622.85        58.55906
623.28        58.63576
623.71        58.38601
624.14         58.8036
624.57        58.46569
625.00         58.9268
625.43        58.48114
625.86        58.53079
626.29        58.66392
626.72        58.57247
627.15        58.48568
627.58        58.39172
628.01        58.44096
628.44        58.29328
628.87        58.06845
629.30        58.65936
629.73        58.50139
630.16         58.3906
630.59        58.35302
631.02        58.57575
631.45        58.37936
631.88        58.38596
632.31        58.36568
632.74        58.36873
633.17        58.36797
633.60        58.34273
634.03        58.29272
634.46        58.27797
634.89        58.21734
635.32        58.21128
635.75        58.23529
636.18        58.28306
636.61        58.33961
637.04        58.38379
637.47        58.40911
637.89        58.42508
638.32         58.4274
638.75        58.43454
639.18        58.45085
639.61        58.47235
640.04        58.49317
640.47        58.50537
640.90        58.50582
641.33        58.49443
641.76        58.48058
642.18        58.48491
642.61        58.49716
643.04        58.52179
643.47        58.53733
643.90        58.51376
644.33        58.44722
644.76        58.33477
645.18        58.21826
645.61        58.18581
646.04        58.23889
646.47        58.30057
646.90        58.33849
647.33        58.35736
647.75         58.3349
648.18        58.26105
648.61        58.19786
649.04        58.18923
649.47        58.21197
649.89        58.57164
650.32        58.56999
650.75        58.57212
651.18        58.41501
651.61        58.32997
652.03        58.33961
652.46        58.29882
652.89        58.28989
653.32        58.36595
653.74        58.42827
654.17          58.694
654.60        58.83733
655.03        58.03359
655.46         57.9358
655.88        58.58061
656.31        59.59404
656.74        62.29583
657.16        60.93865
657.59        59.29856
658.02        58.41095
658.45        58.60735
658.87        58.40147
659.30        58.53743
659.73        58.38103
660.15        57.69479
660.58        58.62508
661.01        58.86505
661.44        58.95894
661.86        58.74111
662.29        58.33444
662.72        58.16838
663.14        58.27143
663.57        58.33585
664.00        58.31838
664.42        58.34132
664.85        58.40089
665.27        58.33125
665.70        58.33737
666.13        58.32558
666.55        58.36248
666.98        58.41659
667.41        58.46433
667.83        58.47702
668.26        58.45753
668.69        58.36838
669.11         58.2275
669.54        58.26878
669.96        58.54779
670.39        58.21565
670.82        58.64325
671.24        58.64599
671.67        58.60904
672.09        58.53764
672.52        58.47894
672.94        58.35852
673.37        58.22904
673.80        58.27677
674.22        58.47551
674.65        58.57217
675.07        58.56021
675.50        58.55895
675.92        58.58832
676.35        58.60734
676.77        58.61755
677.20        58.64215
677.62         58.6962
678.05        58.72083
678.47        58.69912
678.90        58.92637
679.32        58.86622
679.75        58.92712
680.17        58.94795
680.60        58.94727
681.02        58.92273
681.45        58.88206
681.87        58.84113
682.30        58.76778
682.72        58.70093
683.15        58.71902
683.57        58.78117
684.00        58.87617
684.42        58.65461
684.85        58.66438
685.27        58.79037
685.70        58.91799
686.12        58.99205
686.54        59.01756
686.97        58.97862
687.39         58.9031
687.82        58.82095
688.24        58.75526
688.66        58.70161
689.09        58.88649
689.51        58.85038
689.94        58.95294
690.36        59.03622
690.78        59.06751
691.21        59.05233
691.63        58.99308
692.06        58.94044
692.48        58.99183
692.90        59.12084
693.33        59.17624
693.75        59.15928
694.17        59.11381
694.60        59.03992
695.02        59.13715
695.44        59.14338
695.87        59.04858
696.29        58.86533
696.71        58.92989
697.14        59.20059
697.56        59.40696
697.98        59.50343
698.41        59.41002
698.83        59.51706
699.25         59.4024
699.68        59.21426
700.10        59.06121
700.52        58.97166
700.94        58.91668
701.37        58.88272
701.79        58.89794
702.21        58.93921
702.64        59.01133
703.06        59.09856
703.48        59.17687
703.90        59.24121
704.33        59.29303
704.75        59.32527
705.17        59.31062
705.59        59.24763
706.01        59.13942
706.44        59.03973
706.86        59.03517
707.28          59.125
707.70        59.34079
708.12         59.5971
708.55        59.61592
708.97        59.42859
709.39        59.39505
709.81        59.51841
710.23         59.5218
710.66        59.40735
711.08        59.36054
711.50        59.38468
711.92        59.41443
712.34        59.44778
712.76        59.50012
713.19        59.55368
713.61        59.61935
714.03        59.66991
714.45        59.71781
714.87        59.75552
715.29        59.73437
715.71        59.64814
716.13        59.66196
716.56        59.51446
716.98        59.52458
717.40        59.60653
717.82        59.74751
718.24        59.89941
718.66        59.98712
719.08        59.99225
719.50        59.93356
719.92        59.84773
720.34        59.79263
720.76        59.78615
721.19        59.80498
721.61        59.84503
722.03        59.87147
722.45        59.87692
722.87        59.87547
723.29        59.88351
723.71        59.92456
724.13        60.00322
724.55        60.10586
724.97        60.21814
725.39        60.31905
725.81        60.39924
726.23        60.46264
726.65        60.50726
727.07        60.53674
727.49        60.55568
727.91        60.54902
728.33        60.53022
728.75        60.55961
729.17        60.62592
729.59        60.64103
730.01        60.61361
730.43        60.62792
730.85         60.6851
731.27        60.72486
731.69        60.74285
732.10        60.70976
732.52        60.80371
732.94        60.63554
733.36        60.33706
733.78        60.20854
734.20        60.28618
734.62        60.40748
735.04        60.52171
735.46        60.61327
735.88        60.66505
736.30        60.69277
736.72        60.69194
737.13         60.6989
737.55        60.69355
737.97        60.59541
738.39        60.47252
738.81        60.64655
739.23        61.03934
739.65        61.12617
740.06        60.88152
740.48        60.80227
740.90        60.86758
741.32        60.81583
741.74        60.66415
742.16        60.59106
742.57        60.62707
742.99        60.70512
743.41        60.80521
743.83        60.87394
744.25        60.89429
744.67        60.88203
745.08         60.8762
745.50        60.89631
745.92        60.96558
746.34        61.07701
746.75        61.18951
747.17        61.23426
747.59        61.19954
748.01        61.07339
748.42        60.93693
748.84        60.94278
749.26         61.0786
749.68        61.26215
750.09        61.40806
750.51        61.29145
750.93        61.00394
751.35        61.01387
751.76        61.29068
752.18        61.36851
752.60        61.23096
753.01         61.1768
753.43        61.18545
753.85        61.13547
754.27         61.0267
754.68        60.89054
755.10        60.77951
755.52        60.74962
755.93        60.81504
756.35        60.97258
756.77        61.16521
757.18        61.25768
757.60        61.21122
758.02        61.11812
758.43        61.11278
758.85        60.88895
759.26        61.42186
759.68        61.77189
760.10        61.39898
760.51        61.36449
760.93        61.32004
761.34        61.41087
761.76        61.56244
762.18        61.69334
762.59         61.7232
763.01        61.81443
763.42        61.21434
763.84        61.29941
764.26        61.45186
764.67        61.81943
765.09        62.14457
765.50        62.17288
765.92        61.95504
766.33        61.77559
766.75        61.70059
767.16         61.6654
767.58        61.63488
768.00        61.89029
768.41        62.32288
768.83        62.19171
769.24        61.58722
769.66        61.78217
770.07        61.80964
770.49        62.04295
770.90        62.11666
771.32        61.98041
771.73        61.72416
772.15         61.6834
772.56        61.90278
772.97        62.15392
773.39        62.32401
773.80         62.4146
774.22        62.36614
774.63        62.20428
775.05        61.98696
775.46        61.86045
775.88        61.84292
776.29        61.92189
776.70        62.03445
777.12         62.0831
777.53        62.06131
777.95        62.00276
778.36        61.94035
778.77        61.91484
779.19        61.93409
779.60        61.98032
780.02        62.05608
780.43        62.15638
780.84        62.26673
781.26          62.463
781.67        62.71168
782.09        62.65976
782.50        62.39739
782.91        62.47874
783.33        62.83681
783.74        62.95857
784.15        62.77775
784.57        62.63795
784.98        62.58701
785.39        62.53307
785.81         62.4924
786.22        62.48284
786.63         62.5216
787.04          62.637
787.46        62.83105
787.87        63.05975
788.28        63.26434
788.70          63.348
789.11        63.27512
789.52        63.08831
789.93        62.86522
790.35         62.7241
790.76        62.71637
791.17        62.81804
791.58        62.97979
792.00        63.09735
792.41         63.1673
792.82        63.21236
793.23         63.2991
793.65        63.43534
794.06        63.64286
794.47        64.05804
794.88         64.5751
795.29        64.42942
795.71        64.57664
796.12        64.27981
796.53        63.93398
796.94        63.83302
797.35        63.98815
797.76        64.04845
798.18        63.96817
798.59        63.96058
799.00        64.00959
799.41        63.98358
799.82         63.8791
800.23        63.77205
800.64        63.67497
801.06        63.54174
801.47        63.44747
801.88        63.44667
802.29        63.54994
802.70         63.7444
803.11        63.96534
803.52        64.09477
803.93        64.10106
804.34        64.01337
804.75        63.89916
805.17         63.8659
805.58        63.96886
805.99        64.14889
806.40        64.35088
806.81        64.50602
807.22        64.56947
807.63        64.51529
808.04        64.40775
808.45         64.3989
808.86        64.51334
809.27        64.68046
809.68        64.84029
810.09        64.91002
810.50        64.86132
810.91        64.72485
811.32        64.54385
811.73        64.38596
812.14        64.28088
812.55        64.21775
812.96        64.19261
813.37        64.19626
813.78        64.22269
814.19        64.27441
814.60        64.35011
815.01        64.44656
815.42        64.55758
815.83        64.67515
816.24        64.77471
816.65        64.81561
817.05         64.7924
817.46        64.69461
817.87        64.57906
818.28        64.48984
818.69        64.44525
819.10        64.44064
819.51        64.48165
819.92        64.57077
820.33        64.69936
820.74        64.85707
821.14        65.01712
821.55        65.16264
821.96        65.26928
822.37        65.32934
822.78        65.33527
823.19        65.28255
823.60        65.17341
824.00         65.0304
824.41        64.83074
824.82        64.60004
825.23        64.36151
825.64        64.13921
826.04        63.98802
826.45        63.94484
826.86        64.03079
827.27        64.23246
827.68        64.51608
828.08        64.83627
828.49        65.08752
828.90        65.31279
829.31        65.51697
829.72         65.6217
830.12        65.62577
830.53        65.90647
830.94        65.72432
831.35         65.6216
831.75        65.40562
832.16        65.09457
832.57        64.80029
832.97         64.6976
833.38        64.81602
833.79        65.09222
834.20        65.41909
834.60        65.63075
835.01        65.68242
835.42        65.63067
835.82         65.5195
836.23        65.38268
836.64        65.27025
837.04        65.17736
837.45        65.13179
837.86        65.23978
838.26          65.514
838.67         65.9025
839.08        66.31216
839.48         66.5741
839.89        66.63451
840.29        66.54032
840.70        66.35605
841.11        66.19576
841.51        66.11712
841.92        66.05416
842.33        66.01825
842.73        66.02237
843.14        66.02091
843.54        66.06155
843.95        66.10001
844.35        66.07713
844.76        65.97829
845.17        65.81873
845.57        65.68369
845.98        65.68571
846.38        65.86802
846.79        66.15907
847.19        66.48418
847.60        66.64355
848.00        66.62541
848.41        66.46286
848.81        66.26662
849.22        66.15806
849.62        66.22176
850.03        66.37499
850.43        66.62375
850.84        66.87744
851.24         67.1514
851.65        67.40016
852.05        67.63354
852.46        67.76223
852.86        67.76327
853.27        67.69334
853.67        67.50465
854.07        67.27254
854.48        66.98697
854.88        66.66194
855.29        66.31956
855.69        66.16393
856.10        66.15332
856.50        66.34253
856.90        66.55605
857.31        66.53479
857.71        66.27435
858.12        65.79285
858.52        65.27552
858.92        64.97821
859.33        64.96487
859.73        65.20879
860.13        65.55829
860.54        65.76031
860.94        65.79978
861.34         65.7016
861.75        65.55481
862.15        65.58531
862.55        65.79887
862.96        66.09892
863.36        66.37396
863.76        66.40173
864.17        66.13079
864.57        65.67245
864.97         65.1233
865.38        64.62666
865.78         64.2913
866.18        64.07695
866.58        64.03722
866.99        64.22535
867.39        64.65076
867.79        65.26209
868.19        65.89085
868.60         66.2127
869.00        66.24424
869.40        66.21942
869.80        66.15228
870.21        65.89227
870.61        65.53346
871.01        65.20184
871.41        64.89868
871.81        64.52606
872.22          64.104
872.62        63.66992
873.02        63.35398
873.42        63.55016
873.82        64.09689
874.22        64.39191
874.63        64.50037
875.03        64.61606
875.43        64.72075
875.83        65.61716
876.23        64.78105
876.63        63.98026
877.03        63.02774
877.44        61.28191
877.84        168.2404
878.24         62.9694
878.64        63.76942
879.04        65.14854
879.44         65.4798
879.84        62.06295
880.24        66.92437
880.64        67.06646
881.04        64.69572
881.44        62.97617
881.84        62.47321
882.24        63.26939
882.65        64.66656
883.05        65.16837
883.45        64.48141
883.85        63.48968
884.25        62.63572
884.65        62.23887
885.05        62.43538
885.45        63.02039
885.85        63.73116
886.25        64.22503
886.65        64.39558
887.05        64.37077
887.45        64.15914
887.85        63.76721
888.25         63.2556
888.65        62.62234
889.04        62.07912
889.44        61.99243
889.84        62.40882
890.24        63.19886
890.64        64.08133
891.04        64.63282
891.44        64.75761
891.84        64.58577
892.24         64.2452
892.64         63.9704
893.04         63.8545
893.44        63.81247
893.83        63.87585
894.23         64.0684
894.63        64.38465
895.03        64.84449
895.43        65.30662
895.83        65.51672
896.23        65.43128
896.63        65.11205
897.02        64.75668
897.42        64.73128
897.82        65.06293
898.22        65.63165
898.62        66.20647
899.01        66.42051
899.41        66.16269
899.81        65.57808
900.21        64.85029
900.61        64.27807
901.00        63.95791
901.40        63.87416
901.80        63.97742
902.20        64.04944
902.59         64.0217
902.99        64.21963
903.39        64.75621
903.79         64.1516
904.18         65.0088
904.58        65.18455
904.98        65.33379
905.38        65.22414
905.77        64.83996
906.17        64.27541
906.57         63.6707
906.96        63.35654
907.36         63.4116
907.76        63.76323
908.15         64.2961
908.55        64.66302
908.95         64.8064
909.34        64.75879
909.74        64.66018
910.14        64.69343
910.53        64.90427
910.93         65.2279
911.33        65.49006
911.72        65.42303
912.12        65.00235
912.52        64.33175
912.91        63.66484
913.31        63.47686
913.70        63.83325
914.10        64.58488
914.49        65.45398
914.89        65.88422
915.29        65.74782
915.68        65.19404
916.08        64.49535
916.47        64.03439
916.87        63.96529
917.26        64.17727
917.66        64.52412
918.05        64.79556
918.45        64.89687
918.84        64.88773
919.24        64.88036
919.64        65.10492
920.03        65.58777
920.42        66.22183
920.82        66.73114
921.21        66.70602
921.61        66.11837
922.00        65.19581
922.40        64.35631
922.79        64.12817
923.19        64.26336
923.58        65.43313
923.98        67.69212
924.37        68.27567
924.77        65.80946
925.16        73.27118
925.55        67.33231
925.95        67.43453
926.34        67.00279
926.74        65.86132
927.13        64.07127
927.52         62.9791
927.92        63.15058
928.31        63.88737
928.70         64.9436
929.10         65.8739
929.49        66.55862
929.89        67.13477
930.28        67.47752
930.67        67.27631
931.07        66.53632
931.46         65.2288
931.85        63.84395
932.24        63.67595
932.64        64.93133
933.03        66.64685
933.42        67.82861
933.82        70.26031
934.21        68.60566
934.60        67.07649
934.99        65.46429
935.39        65.02473
935.78        65.85574
936.17        68.19545
936.56        74.72222
936.96         68.1485
937.35        71.73139
937.74        68.33784
938.13        65.72714
938.53        63.66259
938.92        62.96769
939.31        64.09011
939.70        65.77902
940.09        66.79574
940.49        66.83548
940.88        66.35766
941.27        65.65343
941.66        65.23622
942.05         65.3259
942.44        65.68491
942.84        66.09826
943.23        66.39734
943.62        66.50099
944.01        66.46316
944.40        66.46664
944.79        66.78342
945.18        67.44045
945.57        68.33408
945.97         69.0723
946.36        69.16825
946.75        68.49467
947.14        67.21178
947.53        65.80762
947.92        65.13331
948.31         65.4128
948.70        66.38004
949.09        67.53815
949.48        68.11058
949.87        67.90213
950.26        67.16534
950.65        66.21826
951.04        65.57261
951.43        65.40921
951.82        65.57336
952.21        65.92509
952.60        66.24165
952.99        66.42126
953.38        66.52194
953.77        66.61754
954.16        66.80239
954.55        67.09035
954.94        67.44482
955.33        67.70213
955.72        67.59625
956.11        67.08118
956.50        66.25034
956.89        65.41152
957.28        65.04281
957.66          65.284
958.05        65.93532
958.44         66.6769
958.83        67.00735
959.22        66.79185
959.61        66.12227
960.00         65.2779
960.39        64.80575
960.78        64.88037
961.16        65.38145
961.55        65.85772
961.94        65.77814
962.33        65.05645
962.72        63.84693
963.11        62.60586
963.49        62.25501
963.88        63.05065
964.27        64.62203
964.66        66.33865
965.04        67.36935
965.43        67.47929
965.82        66.96371
966.21        66.11636
966.60        65.46311
966.98        65.22382
967.37        65.23988
967.76         65.4442
968.15          65.735
968.53        66.06458
968.92         66.4514
969.31        66.86093
969.69        67.19511
970.08        67.38444
970.47        67.42216
970.86        67.29616
971.24        67.03401
971.63        66.66049
972.02        66.21188
972.40        65.77575
972.79        65.36588
973.17         65.0564
973.56        64.88062
973.95        64.85799
974.33         65.0014
974.72        65.28535
975.11        65.64072
975.49        66.15759
975.88        66.91712
976.26        67.93773
976.65        69.06391
977.04        69.97374
977.42        70.17347
977.81        69.54112
978.19        68.16492
978.58         66.6655
978.96        66.16651
979.35        66.93542
979.74        68.53748
980.12        70.26359
980.51        71.04391
980.89        70.83715
981.28        69.86794
981.66         68.4847
982.05        67.60109
982.43        67.57921
982.82        68.16277
983.20        69.03982
983.59        69.70894
983.97        70.05196
984.35        70.20093
984.74        70.13373
985.12        69.88791
985.51        69.48341
985.89        68.97847
986.28        68.46762
986.66        68.14895
987.04        68.11588
987.43        68.26312
987.81         68.3056
988.20         69.1732
988.58         70.9511
988.96        71.00539
989.35        68.72489
989.73        74.71514
990.12        71.53525
990.50         72.4537
990.88        72.65027
991.27        72.44917
991.65        71.69768
992.03        70.63386
992.42        69.60934
992.80        68.67149
993.18        67.94785
993.56        67.50799
993.95        67.31999
994.33        67.24963
994.71        67.26517
995.10         67.3807
995.48        67.66137
995.86        68.18866
996.24        68.94126
996.63        69.77496
997.01        70.61179
997.39        71.16378
997.77        71.34301
998.15        71.17638
998.54         70.8866
998.92         70.7357
999.30        70.84814
999.68        71.22985
1000.06        71.59798
1000.45        71.34862
1000.83        70.48415
1001.21        69.24406
1001.59        68.26987
1001.97          68.466
1002.35        69.83354
1002.73         71.8476
1003.12         73.9091
1003.50         75.3523
1003.88        76.02555
1004.26        76.18789
1004.64        75.83984
1005.02        75.00676
1005.40        73.81614
1005.78        72.25376
1006.16        70.81318
1006.54        70.29263
1006.92        70.86143
1007.30        72.37298
1007.69         74.1297
1008.07         75.1748
1008.45        75.24947
1008.83        74.55032
1009.21        73.60819
1009.59        73.54236
1009.97        74.59261
1010.35        76.18034
1010.73        77.63398
1011.11        78.47878
1011.49        78.77555
1011.86        78.41118
1012.24        77.36967
1012.62        78.80434
1013.00        79.94316
1013.38         80.4423
1013.76        78.86197
1014.14        82.40021
1014.52        87.40796
1014.90        79.37257
1015.28        79.41938
1015.66        80.38725
1016.04        77.09557
1016.41         78.5374
1016.79        79.07889
1017.17        79.55798
1017.55        79.23281
1017.93        78.49865
1018.31        77.94461
1018.69        78.05357
1019.06        78.99599
1019.44        80.46642
1019.82        81.75064
1020.20        81.89052
1020.58         80.6756
1020.95        78.04927
1021.33         74.7711
1021.71        73.26033
1022.09         74.6859
1022.46        77.86926
1022.84        80.99233
1023.22         82.7474
1023.60        83.20889
1023.97        82.87274
1024.35        82.19324
1024.73        82.00916
