SpectraSmart Spectrum 2.9.0.0
--------- Device Information -----------
Spectrum Name :  反射率_0
Saving Time :  2024/04/21 00:05:52
Spectro-Module Model Name : SE2030-DUVN
Spectro-Module Serial Number : OS361AC55029948
Wavelength Start : 200
Wavelength End : 1025
Wavelength Unit : Wavelength(nm)
Spectrum Unit : Reflectance(%)
-----------Spectrum Setting ------------
Integration Time : 20ms
Average : 10
Boxcar : 0
Background removal :  enabled
linearity correction :  enabled
SC :  disabled
Intensity correction :  disabled
DWT denoise :  enabled
savitzky-golay :  disabled
FFT :  disabled
Running average :  disabled
Kalman :  disabled
High pass :  disabled
---------------BEGIN--------------------
Wavelength(nm)             Reflectance(%)
200.29               0
200.75       -58.11227
201.21       -19.14103
201.67        3.589551
202.13        14.94508
202.58        20.53657
203.04        24.89064
203.50        27.68871
203.96        26.34353
204.42        20.13119
204.88        8.903676
205.34       -2.215632
205.80       -6.587227
206.26       -2.349518
206.72        13.51093
207.18        32.74818
207.64        32.40294
208.10        4.119209
208.55       -44.30519
209.01       -79.40997
209.47       -59.58506
209.93       -17.37024
210.39        18.65873
210.85        41.90779
211.31        51.34567
211.77        50.30692
212.23        40.30534
212.69        16.24265
213.14       -28.93621
213.60        -108.319
214.06       -327.6881
214.52       -793.9183
214.98       -330.3741
215.44        -74.8726
215.90        7.279055
216.36        34.33735
216.81        38.92675
217.27        27.28153
217.73       -40.81484
218.19        798.5454
218.65        358.9753
219.11       -747.9279
219.57       -18.24377
220.02        27.92329
220.48        34.65702
220.94        27.09102
221.40        2.336229
221.86        -55.2178
222.32        -90.4193
222.77         -36.555
223.23        9.574062
223.69        32.49624
224.15        39.81287
224.61        38.98512
225.06        34.17973
225.52        27.29212
225.98        20.95411
226.44        16.56857
226.90        12.38657
227.36        10.92143
227.81        16.03373
228.27         24.2658
228.73        32.31714
229.19        37.15037
229.65        36.91482
230.10        32.22757
230.56        24.29765
231.02        14.24033
231.48         7.15379
231.93        7.039902
232.39        12.15794
232.85        18.48066
233.31        22.51779
233.77        24.36165
234.22        25.50455
234.68        26.03079
235.14        25.93694
235.60        25.55459
236.05        24.01832
236.51        21.55547
236.97        24.70467
237.43        34.16105
237.88        39.58387
238.34        36.66115
238.80         58.4014
239.26        46.74892
239.71        44.54075
240.17        36.08924
240.63        26.90246
241.08        20.43071
241.54         20.0114
242.00         26.5834
242.46        29.61902
242.91        26.15373
243.37        17.29865
243.83         4.84921
244.28       -2.614369
244.74       0.3940771
245.20        8.192351
245.66        15.67281
246.11        18.58333
246.57        16.09951
247.03        10.09087
247.48      0.05117339
247.94       -15.70565
248.40       -43.62955
248.85        -114.468
249.31        -341.842
249.77       -561.4259
250.22       -226.3784
250.68       -75.85275
251.14       -24.00532
251.59       -5.655749
252.05       0.4394716
252.51        1.737776
252.96       -1.952237
253.42       -9.215338
253.88       -16.07351
254.33        -20.4099
254.79       -16.95815
255.25       -4.785881
255.70        9.851423
256.16        22.56752
256.62        31.80596
257.07        36.99076
257.53        39.58853
257.99        40.80175
258.44         41.1871
258.90        41.68061
259.35        41.99969
259.81        42.28054
260.27        42.29217
260.72        41.88131
261.18        41.37859
261.63        40.73878
262.09        40.16147
262.55        39.54209
263.00        38.82929
263.46         38.1768
263.91        37.52717
264.37        37.13779
264.83        36.92109
265.28        36.75365
265.74        36.59294
266.19        36.23134
266.65        35.68899
267.11        35.00063
267.56        34.16713
268.02        33.27003
268.47        32.31413
268.93        31.32517
269.38        30.36251
269.84        29.57239
270.30        28.96373
270.75        28.49589
271.21         28.0913
271.66        27.56186
272.12        26.89389
272.57        26.13651
273.03         25.3734
273.48        24.70071
273.94         24.1607
274.39        23.68817
274.85        23.29061
275.31        22.92537
275.76        22.56702
276.22        22.25312
276.67        21.94493
277.13        21.64237
277.58        21.31512
278.04        20.97866
278.49        20.62366
278.95        20.29964
279.40        19.97815
279.86        19.67293
280.31        19.33155
280.77         18.9432
281.22        18.48978
281.68        18.03929
282.13        17.59767
282.59        17.22959
283.04        16.93065
283.50        16.69283
283.95        16.53049
284.41        16.48209
284.86        16.52847
285.32        16.65022
285.77        16.75395
286.22        16.70852
286.68        16.51508
287.13         16.1914
287.59        15.87286
288.04        15.66598
288.50        15.57131
288.95        15.69703
289.41        16.00957
289.86        15.93408
290.32        15.35722
290.77        16.42368
291.22        15.57156
291.68        15.73708
292.13        15.87576
292.59        16.05979
293.04        16.27209
293.50        16.56923
293.95        16.97189
294.40        17.43343
294.86        17.91337
295.31        18.34013
295.77        18.69989
296.22        19.01663
296.68         19.3315
297.13        19.70167
297.58        20.15512
298.04         20.6782
298.49         21.2744
298.95          21.964
299.40        22.72743
299.85        23.56094
300.31        24.40664
300.76        25.16969
301.21        25.83825
301.67        26.45875
302.12        27.08873
302.58        27.87659
303.03        28.83988
303.48        29.97541
303.94        31.22456
304.39         32.4679
304.84        33.68273
305.30        34.91497
305.75          36.206
306.20        37.67958
306.66        39.33647
307.11        41.09816
307.57        42.88186
308.02        44.54596
308.47        46.06809
308.93        47.54247
309.38        48.99596
309.83        50.43537
310.29         52.0491
310.74        53.66895
311.19        55.34539
311.65        57.07488
312.10         58.8351
312.55        60.62483
313.00        62.40482
313.46        64.11182
313.91        65.71179
314.36        67.21494
314.82        68.65107
315.27        70.08469
315.72        71.53342
316.18         72.9714
316.63        74.37178
317.08        75.69375
317.53         76.9145
317.99        78.04401
318.44         79.0675
318.89        79.95097
319.35        80.69979
319.80        81.33222
320.25        81.90807
320.70        82.52957
321.16        83.21174
321.61        83.94128
322.06        84.66024
322.51        85.27718
322.97        85.75772
323.42        86.16367
323.87        86.51288
324.32         86.8495
324.78         87.1788
325.23        87.51926
325.68         87.8721
326.13        88.26692
326.59        88.68484
327.04        89.16524
327.49        89.65351
327.94        90.08309
328.39        90.43473
328.85        90.69704
329.30        90.95272
329.75         91.2323
330.20        91.55369
330.66        91.87213
331.11        92.22807
331.56        92.57085
332.01         92.8939
332.46        93.21194
332.92        93.49311
333.37        93.80335
333.82        94.11362
334.27        94.42909
334.72        94.76896
335.17        95.16573
335.63        95.60009
336.08        96.11242
336.53        96.66446
336.98        97.23386
337.43         97.8018
337.88        98.36088
338.34         98.8714
338.79        99.32144
339.24        99.68684
339.69        99.98201
340.14        100.2313
340.59        100.4809
341.05        100.7551
341.50        101.0538
341.95        101.3955
342.40        101.8069
342.85         102.286
343.30        102.8256
343.75        103.3657
344.20        103.8142
344.66        104.1547
345.11         104.384
345.56        104.5688
346.01        104.8174
346.46        105.1509
346.91         105.533
347.36        105.8753
347.81        106.0624
348.26        106.0819
348.72        105.9242
349.17        105.8001
349.62        105.7884
350.07        105.9627
350.52        106.2598
350.97        106.5759
351.42        106.7402
351.87        106.6981
352.32        106.4997
352.77        106.2128
353.22         105.938
353.67        105.7115
354.13        105.5271
354.58        105.3241
355.03        105.0617
355.48         104.733
355.93        104.3523
356.38        103.9892
356.83        103.7435
357.28         103.612
357.73        103.5459
358.18        103.4135
358.63        103.0092
359.08        102.3053
359.53        101.3934
359.98        100.4156
360.43        99.58521
360.88        98.96113
361.33        98.47352
361.78        98.07809
362.23        97.70298
362.68        97.30486
363.13        96.90233
363.58        96.43973
364.03        95.82262
364.48        95.04475
364.93        94.13838
365.38        93.18922
365.83         92.3491
366.28         91.6609
366.73        91.07565
367.18        90.56875
367.63        90.09224
368.08        89.61723
368.53        89.16796
368.98        88.66973
369.43        87.99564
369.88        87.12827
370.33        86.08957
370.78        85.02998
371.23        84.23135
371.68        83.77277
372.13        83.58345
372.58         83.4905
373.03        83.20124
373.48        82.63893
373.93        81.89455
374.38         81.0966
374.83        80.46511
375.28        80.06665
375.72        79.80234
376.17        79.61782
376.62        79.38103
377.07        79.03938
377.52        78.61716
377.97        78.12878
378.42         77.6077
378.87         77.0844
379.32        76.56702
379.77        76.04276
380.22         75.4796
380.67        74.87247
381.11        74.23956
381.56        73.64188
382.01        73.19844
382.46        72.93752
382.91        72.81989
383.36        72.74248
383.81        72.54501
384.26        72.18639
384.71        71.71063
385.15        71.18107
385.60        70.76128
386.05        70.46623
386.50        70.25412
386.95         70.0703
387.40        69.83637
387.85        69.54181
388.29         69.1823
388.74        68.88607
389.19        68.64977
389.64        68.47206
390.09        68.32444
390.54          68.187
390.98        68.02006
391.43        67.85204
391.88        67.68471
392.33        67.51308
392.78        67.33699
393.23        67.16146
393.67        66.92737
394.12        66.73219
394.57        66.62308
395.02        66.56543
395.47         66.3996
395.91        66.15014
396.36        65.95873
396.81        65.86067
397.26        65.81229
397.71        65.73923
398.15         65.5724
398.60        65.37809
399.05        64.97816
399.50        64.56993
399.95        64.70156
400.39        65.24327
400.84        65.51325
401.29        65.37446
401.74         64.8603
402.18        64.16981
402.63        63.91871
403.08        64.08708
403.53        63.97043
403.97        63.55631
404.42        63.36371
404.87        63.39592
405.32        63.40999
405.76        63.37547
406.21        63.37738
406.66        63.39102
407.11        63.32785
407.55        63.20112
408.00         63.1321
408.45        63.11328
408.90        62.82434
409.34        62.38211
409.79        62.37474
410.24        62.72251
410.68        62.85236
411.13        62.73297
411.58        62.67934
412.03        62.71671
412.47        62.75135
412.92        62.76511
413.37        62.79572
413.81        62.83024
414.26        62.90445
414.71        63.00386
415.15        63.12774
415.60        63.24345
416.05        63.35091
416.49        63.44118
416.94        63.50262
417.39        63.52351
417.83         63.4817
418.28        63.38366
418.73        63.23805
419.17         63.0806
419.62        62.98036
420.07        62.95868
420.51        62.99673
420.96        63.08772
421.41        63.18104
421.85        63.23708
422.30        63.27157
422.74        63.28697
423.19         63.4646
423.64        63.76595
424.08        64.01749
424.53        64.11842
424.98        64.22784
425.42        64.36093
425.87        64.27237
426.31        64.07029
426.76        64.28838
427.21        64.84083
427.65        64.95648
428.10        64.59937
428.54        64.70595
428.99        64.76571
429.44        64.89319
429.88        64.87373
430.33        64.86334
430.77        64.83489
431.22        64.86378
431.66        64.96044
432.11        65.27679
432.56        65.78156
433.00        65.87511
433.45        65.38818
433.89        65.50136
434.34        66.29238
434.78        65.19795
435.23        64.73028
435.67        65.69673
436.12        66.77798
436.57        66.99376
437.01        65.93412
437.46        65.62708
437.90        66.90797
438.35        66.19913
438.79         66.9383
439.24        66.83804
439.68        66.87843
440.13        66.86206
440.57         66.8418
441.02        66.96032
441.46        67.13776
441.91        67.21606
442.35          67.158
442.80        67.36765
443.24         67.7477
443.69        67.92981
444.13        67.85247
444.58        67.74507
445.02        67.51842
445.47        67.57294
445.91        67.79725
446.36        67.85905
446.80        67.73669
447.24        67.58727
447.69        67.48994
448.13        67.66986
448.58        67.88892
449.02        67.95481
449.47        67.83207
449.91        67.83862
450.36        67.99519
450.80        68.02783
451.25        67.95316
451.69         67.9708
452.13        68.03157
452.58        67.80878
453.02        67.37138
453.47         67.1269
453.91        67.09954
454.36        67.10094
454.80        67.08019
455.24        67.06014
455.69        67.04333
456.13        66.94477
456.58        66.81144
457.02        66.86298
457.46        66.78174
457.91        66.72296
458.35         66.6794
458.79        66.59011
459.24         66.5137
459.68        66.36034
460.13        66.18653
460.57        66.27327
461.01        65.94226
461.46        66.08733
461.90         66.1813
462.34        65.79333
462.79        66.04813
463.23        65.90353
463.68        66.27583
464.12        65.99079
464.56        65.38664
465.01        65.50926
465.45        66.11471
465.89        65.99076
466.34        65.26868
466.78         65.1095
467.22        65.56238
467.67        65.29194
468.11        65.35361
468.55        64.97648
468.99        64.59059
469.44        64.35706
469.88        64.31282
470.32        64.29613
470.77        64.26941
471.21        64.27969
471.65        64.30507
472.10        64.33478
472.54        64.32764
472.98        64.24937
473.42        64.10601
473.87        63.91299
474.31        63.69915
474.75         63.6498
475.20        63.73377
475.64         63.7793
476.08        63.78852
476.52        63.82624
476.97        63.83861
477.41        64.16476
477.85        64.20118
478.29        64.11819
478.74        63.54506
479.18        63.82638
479.62        63.84831
480.06        63.95887
480.50        63.89768
480.95        63.78217
481.39        63.52011
481.83        63.94458
482.27        63.98492
482.72         63.3752
483.16        63.63802
483.60         63.8491
484.04        63.88662
484.48        63.63017
484.93        63.65323
485.37        63.55708
485.81        64.00642
486.25        63.54288
486.69        65.60264
487.14         65.1455
487.58        64.08919
488.02        63.63177
488.46        63.70678
488.90        63.34611
489.34        63.47318
489.79        63.36844
490.23        63.71364
490.67        63.78275
491.11        63.69194
491.55        63.48109
491.99        63.22638
492.43        63.06533
492.88        63.02672
493.32        63.09255
493.76         63.1816
494.20        63.25495
494.64        63.30486
495.08        63.05521
495.52        63.04799
495.96        63.00921
496.41        63.03584
496.85        63.00329
497.29        62.87046
497.73        62.79243
498.17        62.48616
498.61        62.61397
499.05        62.97891
499.49        62.86526
499.93        62.39919
500.37        62.49034
500.82        63.06609
501.26         63.3483
501.70        63.18574
502.14        63.05599
502.58        62.44604
503.02        62.28514
503.46        62.37578
503.90        62.55956
504.34        62.71402
504.78        62.80181
505.22        62.81778
505.66        62.68211
506.10        62.42417
506.54        62.39515
506.98        62.67954
507.42        62.04629
507.86        62.51501
508.30        62.49909
508.74         62.4567
509.18        62.44254
509.62        62.42636
510.06         62.4179
510.50        62.38016
510.94        62.26447
511.38        62.09605
511.82        61.98414
512.26        61.94274
512.70        61.91652
513.14        61.90583
513.58        61.92981
514.02        61.98173
514.46        62.05578
514.90         62.1122
515.34        62.12284
515.78        62.08401
516.22        61.97981
516.66         61.6983
517.10        61.89251
517.54        61.71341
517.98        61.81728
518.42        61.91382
518.86        61.96843
519.30        61.96371
519.74        61.88111
520.18        61.78278
520.62        61.84072
521.06        62.02192
521.50        62.07592
521.93         61.9878
522.37        61.93421
522.81        61.91887
523.25         61.8347
523.69        61.69936
524.13        61.59616
524.57        61.53809
525.01        61.50363
525.45        61.49599
525.89        61.51881
526.32        61.56611
526.76        61.64242
527.20        61.72515
527.64        61.78508
528.08        61.81313
528.52        61.79887
528.96        61.76299
529.40        61.77073
529.83        61.80894
530.27        61.81624
530.71        61.77781
531.15        61.74281
531.59        61.71179
532.03        61.65012
532.46        61.57814
532.90        61.56369
533.34        61.60639
533.78         61.6846
534.22        61.75388
534.66        61.74582
535.09        61.64203
535.53         61.4919
535.97        61.32874
536.41        61.22074
536.85        61.18864
537.28        61.21159
537.72        61.27408
538.16        61.35167
538.60        61.42598
539.04        61.49874
539.47        61.54202
539.91        61.56542
540.35        61.55165
540.79         61.5062
541.22         61.4321
541.66        61.35244
542.10        61.27362
542.54        61.19318
542.97         61.1231
543.41        61.11211
543.85        61.15934
544.29        61.26231
544.72        61.37075
545.16         61.4598
545.60        61.51151
546.04        61.46272
546.47        61.36917
546.91        61.51677
547.35        61.84222
547.79        61.89365
548.22        61.65028
548.66         61.7033
549.10        61.64175
549.53        61.60058
549.97        61.48552
550.41        61.38937
550.84        61.30799
551.28        61.37351
551.72        61.38322
552.15         61.3595
552.59         61.4081
553.03        61.59029
553.46         61.5934
553.90        61.60871
554.34        61.51952
554.77        61.51657
555.21        61.35239
555.65         61.3513
556.08        61.43233
556.52        61.56151
556.96         61.6913
557.39        61.82208
557.83        61.92846
558.27        61.88353
558.70        61.71667
559.14        61.62307
559.57         61.6144
560.01        61.58309
560.45        61.51802
560.88         61.5545
561.32        61.68396
561.75        61.58119
562.19        61.34018
562.63        61.37341
563.06        61.61345
563.50         61.5566
563.93        61.24644
564.37        61.16746
564.80        61.32234
565.24         61.5412
565.68        61.74636
566.11        61.86946
566.55        61.90583
566.98        61.87207
567.42        61.82709
567.85        61.80006
568.29        61.82991
568.72        61.84992
569.16        61.94228
569.60        61.95198
570.03        62.14809
570.47         62.3824
570.90        62.69774
571.34        62.53099
571.77         62.9465
572.21        62.86672
572.64        62.70275
573.08        62.48361
573.51        62.53965
573.95        62.81435
574.38         62.9265
574.82        63.23277
575.25        63.12347
575.69        63.21255
576.12        62.94916
576.56        62.46796
576.99        63.04173
577.42        63.29785
577.86        63.26196
578.29        63.86013
578.73        63.94669
579.16        63.49095
579.60        62.85722
580.03        63.16826
580.47         62.9619
580.90        63.03304
581.33        63.18589
581.77        63.17685
582.20        63.92137
582.64        64.22291
583.07        63.52734
583.51        63.29237
583.94        63.10006
584.37        62.81017
584.81        62.29988
585.24        62.32057
585.68        63.06334
586.11        63.44221
586.54        63.22025
586.98         63.1835
587.41          62.924
587.85        63.14568
588.28        63.32342
588.71        63.12374
589.15        62.91465
589.58        62.63977
590.01         62.3463
590.45        62.24831
590.88        62.55414
591.31        62.25799
591.75        62.18739
592.18        62.03614
592.61        62.07014
593.05         62.6899
593.48        63.15693
593.91        63.20672
594.35        63.30855
594.78        62.99561
595.21        62.57304
595.65        62.57977
596.08        62.93139
596.51        63.12267
596.94        62.57758
597.38        62.45799
597.81        62.67912
598.24        62.51495
598.68        62.65798
599.11        62.34813
599.54        62.90325
599.97        62.63894
600.41        62.85104
600.84        63.15181
601.27        62.97075
601.70        62.82566
602.14        62.34168
602.57        62.27505
603.00        62.56143
603.43        62.60332
603.87        62.95131
604.30        62.92097
604.73        62.55911
605.16           62.73
605.60        62.79434
606.03        62.86476
606.46        62.72028
606.89        62.70832
607.32        62.22063
607.76        62.72643
608.19         62.7579
608.62        62.49699
609.05        63.34614
609.48        62.92884
609.92        62.98982
610.35        62.84005
610.78        62.78546
611.21        62.59251
611.64        62.59603
612.07        62.58326
612.50        62.64488
612.94        62.66986
613.37        62.41548
613.80        62.81665
614.23         62.6043
614.66        62.45975
615.09        62.12352
615.52        62.07888
615.96        62.28474
616.39        62.33457
616.82        62.22385
617.25        62.16259
617.68        62.15818
618.11        62.24087
618.54        61.97899
618.97        62.02166
619.40        62.21808
619.84        62.06855
620.27         62.0505
620.70        62.05061
621.13        62.17816
621.56        62.20271
621.99        62.15329
622.42        62.14873
622.85        62.14601
623.28        62.34786
623.71        62.32259
624.14        62.35422
624.57        62.23207
625.00        62.67208
625.43        62.06224
625.86        62.07227
626.29        62.28403
626.72        61.75898
627.15        61.92397
627.58        61.80368
628.01        61.88909
628.44        61.72715
628.87        61.56974
629.30         62.0996
629.73        61.93747
630.16         61.8093
630.59        61.72238
631.02        61.88494
631.45        61.56527
631.88         61.5676
632.31        61.67323
632.74        61.53945
633.17        61.74656
633.60         61.7023
634.03        61.58622
634.46        61.46189
634.89        61.28699
635.32        61.22468
635.75        61.25817
636.18         61.3675
636.61        61.50334
637.04        61.59064
637.47        61.60658
637.89         61.5758
638.32        61.51275
638.75         61.4674
639.18         61.4536
639.61        61.45705
640.04        61.45983
640.47        61.43531
640.90        61.37919
641.33        61.30589
641.76        61.23883
642.18        61.21841
642.61        61.24051
643.04        61.30109
643.47        61.37855
643.90        61.44267
644.33        61.48133
644.76        61.48567
645.18        61.47348
645.61        61.49662
646.04         61.5488
646.47        61.56198
646.90        61.52684
647.33        61.48972
647.75        61.44616
648.18        61.37205
648.61        61.30718
649.04        61.30304
649.47        61.31706
649.89        61.55783
650.32        61.36397
650.75        61.42494
651.18         61.5413
651.61        61.60009
652.03        61.59882
652.46        61.62143
652.89        61.67183
653.32        61.62299
653.74        61.51768
654.17        61.42039
654.60        61.31566
655.03        61.22469
655.46        61.17759
655.88        62.08683
656.31        63.52089
656.74        68.62159
657.16        67.18237
657.59        64.73615
658.02        62.54287
658.45        62.07531
658.87        61.85073
659.30        61.75146
659.73        62.07912
660.15        61.41259
660.58        61.96969
661.01        62.12371
661.44        62.33224
661.86        62.21751
662.29        61.82273
662.72        61.49932
663.14        61.34259
663.57        61.37581
664.00        61.54599
664.42        61.64529
664.85        61.65425
665.27        61.59233
665.70        61.67189
666.13        61.69787
666.55        61.73452
666.98        61.76797
667.41        61.78975
667.83        61.80127
668.26         61.8116
668.69        61.76807
669.11        61.66651
669.54        61.71975
669.96        61.98234
670.39        61.57028
670.82        61.95927
671.24        61.94765
671.67        61.95233
672.09        61.92744
672.52        61.90989
672.94        61.86993
673.37        61.82135
673.80        61.82175
674.22        61.86123
674.65         61.8408
675.07         61.7743
675.50        61.69111
675.92        61.63934
676.35         61.6627
676.77         61.7671
677.20        61.95014
677.62        62.16443
678.05         62.2547
678.47        62.18504
678.90        62.26025
679.32        62.05036
679.75        62.03242
680.17        62.08294
680.60        62.18518
681.02        62.29704
681.45        62.35453
681.87        62.34869
682.30        62.28411
682.72        62.20678
683.15        62.16816
683.57        62.15568
684.00        62.22733
684.42        62.05121
684.85        62.04855
685.27         62.1105
685.70        62.18702
686.12        62.23447
686.54        62.24961
686.97        62.22003
687.39        62.16753
687.82         62.1198
688.24        62.11551
688.66        62.15014
689.09        62.37957
689.51        62.44779
689.94        62.58311
690.36        62.65463
690.78        62.64376
691.21        62.59967
691.63        62.55197
692.06        62.52754
692.48         62.8269
692.90        62.88097
693.33        62.96146
693.75        62.90428
694.17        62.74608
694.60        62.53541
695.02        62.53387
695.44        62.49799
695.87        62.55852
696.29        62.63337
696.71        62.62465
697.14        62.55592
697.56         62.7531
697.98         63.1493
698.41         63.0511
698.83         63.0717
699.25        62.87522
699.68        62.70235
700.10        62.56981
700.52        62.50938
700.94        62.50996
701.37        62.54307
701.79        62.61922
702.21        62.70568
702.64        62.80842
703.06        62.90412
703.48        62.96351
703.90        62.98383
704.33        62.96528
704.75        62.92855
705.17        62.89206
705.59        62.86536
706.01        62.84295
706.44        62.83905
706.86        62.88316
707.28        62.96193
707.70        63.09722
708.12        63.25393
708.55        63.29906
708.97        63.24417
709.39        63.26687
709.81        63.36023
710.23        63.37621
710.66        63.31346
711.08        63.27477
711.50        63.25679
711.92        63.22738
712.34        63.19021
712.76         63.1558
713.19        63.12584
713.61        63.14743
714.03        63.20081
714.45        63.28928
714.87        63.39271
715.29        63.43729
715.71        63.40648
716.13        63.48171
716.56        63.37099
716.98        63.39127
717.40        63.44877
717.82         63.5335
718.24        63.62456
718.66        63.69374
719.08        63.73329
719.50        63.75002
719.92         63.7489
720.34        63.73547
720.76        63.71498
721.19        63.67904
721.61        63.65344
722.03        63.65024
722.45        63.67596
722.87        63.73193
723.29        63.80786
723.71        63.88494
724.13        63.95514
724.55         64.0133
724.97        64.07384
725.39         64.1631
725.81        64.27921
726.23        64.40973
726.65        64.51064
727.07        64.51835
727.49        64.42966
727.91        64.26323
728.33        64.08232
728.75        64.02425
729.17        64.10365
729.59        64.21129
730.01        64.33457
730.43         64.5127
730.85        64.71912
731.27        64.90481
731.69        65.03829
732.10        65.02638
732.52         65.0658
732.94        64.79186
733.36        64.36877
733.78        64.13103
734.20        64.14062
734.62        64.23754
735.04        64.37344
735.46        64.53661
735.88        64.70152
736.30        64.84843
736.72        64.94434
737.13        65.05065
737.55        65.09354
737.97        64.84109
738.39        64.42722
738.81        64.40342
739.23        64.74214
739.65        64.88294
740.06        64.74506
740.48        64.72615
740.90        64.78313
741.32        64.70009
741.74        64.52656
742.16        64.47242
742.57        64.57635
742.99        64.75611
743.41         64.9375
743.83        64.98573
744.25        64.87142
744.67        64.63709
745.08        64.39686
745.50         64.2927
745.92        64.38123
746.34        64.62112
746.75        64.89806
747.17        65.02446
747.59        64.95876
748.01        64.72259
748.42        64.45691
748.84        64.42336
749.26        64.63567
749.68        64.93799
750.09        65.19732
750.51        65.19648
750.93        64.97184
751.35        64.85396
751.76        64.89044
752.18          64.879
752.60        64.83385
753.01        64.93057
753.43        65.07973
753.85         65.0671
754.27        64.86497
754.68        64.58542
755.10         64.3605
755.52        64.14349
755.93        64.33528
756.35        64.58829
756.77        64.91788
757.18        65.12661
757.60          65.175
758.02        65.13767
758.43        65.09991
758.85        64.81208
759.26        65.38228
759.68        64.99845
760.10        64.71327
760.51        64.42706
760.93        65.13361
761.34        64.93037
761.76        65.09714
762.18         65.0975
762.59        65.18211
763.01        65.31238
763.42        64.67139
763.84        64.73692
764.26        64.90597
764.67        65.25435
765.09        65.56232
765.50        65.69094
765.92        65.65311
766.33        65.52965
766.75        65.34889
767.16         65.2365
767.58        65.17226
768.00        65.15945
768.41        65.22835
768.83        65.28282
769.24        65.26768
769.66        65.60607
770.07        65.40501
770.49        65.40435
770.90        65.36079
771.32        65.26924
771.73         65.1693
772.15        65.12753
772.56         65.1764
772.97        65.29832
773.39        65.43591
773.80        65.55323
774.22        65.59673
774.63        65.60798
775.05        65.57999
775.46        65.54935
775.88        65.50696
776.29        65.46709
776.70        65.41856
777.12        65.35905
777.53        65.31264
777.95        65.28423
778.36        65.27819
778.77        65.28949
779.19        65.31912
779.60        65.37045
780.02        65.45699
780.43        65.62826
780.84        65.87999
781.26        66.14594
781.67        66.40296
782.09        66.59721
782.50        66.67351
782.91        66.57767
783.33        66.34164
783.74        66.19852
784.15        66.15782
784.57        66.14053
784.98        66.15089
785.39        66.20075
785.81        66.27998
786.22        66.38509
786.63        66.49159
787.04        66.55746
787.46        66.58755
787.87        66.57159
788.28        66.54136
788.70        66.54037
789.11         66.5596
789.52        66.59283
789.93        66.64516
790.35        66.71284
790.76        66.80222
791.17        66.92206
791.58        67.03062
792.00         67.0263
792.41        66.92519
792.82        66.78673
793.23        66.71682
793.65        66.70189
794.06        66.81857
794.47        67.38049
794.88        68.20136
795.29        68.20305
795.71        68.36736
796.12        68.04328
796.53        67.64008
796.94        67.40054
797.35        67.34845
797.76        67.14546
798.18        66.81886
798.59        66.70222
799.00        66.80316
799.41        66.96125
799.82        67.09423
800.23        67.13934
800.64        67.06713
801.06        66.86645
801.47        66.66038
801.88        66.58826
802.29        66.68661
802.70        66.90543
803.11        67.17133
803.52        67.35576
803.93        67.42415
804.34        67.42434
804.75        67.38688
805.17        67.38833
805.58        67.48496
805.99        67.51441
806.40        67.51549
806.81        67.83601
807.22        68.33442
807.63        68.37352
808.04        68.01448
808.45        67.92023
808.86        68.13562
809.27        68.26044
809.68        68.27477
810.09        68.33382
810.50        68.43183
810.91        68.53427
811.32        68.58771
811.73        68.50331
812.14        68.26921
812.55        67.91486
812.96        67.55402
813.37        67.37631
813.78         67.4297
814.19        67.66644
814.60        67.94826
815.01        68.05447
815.42        67.93401
815.83        67.64633
816.24        67.31771
816.65        67.18545
817.05        67.32891
817.46        67.64158
817.87        68.02237
818.28        68.28132
818.69        68.37053
819.10        68.34894
819.51        68.29084
819.92        68.32388
820.33        68.48035
820.74          68.695
821.14        68.91014
821.55        69.06828
821.96          69.135
822.37        69.14034
822.78        69.07326
823.19        68.91239
823.60        68.66972
824.00        68.36911
824.41        68.05386
824.82         67.8674
825.23        67.84455
825.64        67.96609
826.04        68.16595
826.45        68.28802
826.86        68.30856
827.27        68.26873
827.68        68.23159
828.08        68.33432
828.49        68.53321
828.90        68.81351
829.31        69.13577
829.72        69.35793
830.12        69.45261
830.53        69.78252
830.94        69.66744
831.35        69.53371
831.75        69.21558
832.16        68.73526
832.57        68.28079
832.97        68.16039
833.38        68.42508
833.79        68.95989
834.20        69.57281
834.60        69.97047
835.01        70.07076
835.42        69.96368
835.82        69.71571
836.23        69.39942
836.64        69.09388
837.04        68.79121
837.45         68.5456
837.86        68.50494
838.26        68.70065
838.67        69.09138
839.08        69.56821
839.48        69.92634
839.89          70.094
840.29        70.10764
840.70        70.05081
841.11        70.07691
841.51        70.23766
841.92        70.44444
842.33        70.61959
842.73        70.63655
843.14        70.42835
843.54        70.09473
843.95         69.7273
844.35        69.48979
844.76        69.42252
845.17         69.4777
845.57        69.63261
845.98        69.81171
846.38        70.00357
846.79        70.20067
847.19        70.38155
847.60        70.42722
848.00        70.36395
848.41         70.1916
848.81        70.03452
849.22        70.04076
849.62        70.28199
850.03        70.64851
850.43        71.10059
850.84        71.47279
851.24        71.75974
851.65         71.9389
852.05        72.00758
852.46        71.85889
852.86        71.51627
853.27        71.08091
853.67        70.61558
854.07        70.34578
854.48        70.27517
854.88        70.37212
855.29        70.55949
855.69        70.85472
856.10        71.11908
856.50        71.43521
856.90        71.64371
857.31        71.53412
857.71        71.13979
858.12        70.46791
858.52        69.72128
858.92        69.18904
859.33         68.9523
859.73        68.98124
860.13        69.18369
860.54        69.38694
860.94        69.57623
861.34        69.76044
861.75        69.85744
862.15        69.80888
862.55        69.58098
862.96        69.17995
863.36        68.74996
863.76        68.48738
864.17        68.44536
864.57        68.60488
864.97        68.86104
865.38         69.0121
865.78        69.03375
866.18        68.96114
866.58        68.87447
866.99        68.89529
867.39        69.09497
867.79        69.40847
868.19        69.72897
868.60        69.82108
869.00        69.71209
869.40         69.6173
869.80        69.56884
870.21        69.44313
870.61        69.31719
871.01        69.27061
871.41        69.23136
871.81        69.01741
872.22        68.62354
872.62         68.1064
873.02        67.62234
873.42        67.60994
873.82         67.9641
874.22        68.12154
874.63        68.14178
875.03        68.20219
875.43        68.27738
875.83        69.09756
876.23        68.34696
876.63        67.53059
877.03        66.46202
877.44         64.5659
877.84         163.029
878.24        65.62173
878.64        66.37025
879.04        67.76342
879.44        68.23628
879.84        65.25323
880.24        69.79845
880.64        70.00405
881.04        67.85852
881.44        66.14733
881.84        65.38177
882.24        65.68626
882.65        66.59324
883.05        66.96365
883.45        66.55016
883.85          66.095
884.25        65.84583
884.65        65.82185
885.05        66.06535
885.45        66.48563
885.85        66.88212
886.25        66.99786
886.65         66.7859
887.05        66.34923
887.45        65.81758
887.85        65.40806
888.25        65.21198
888.65        65.16969
889.04        65.29372
889.44        65.59988
889.84        66.03729
890.24        66.56977
890.64        67.06428
891.04        67.33237
891.44        67.33798
891.84        67.12923
892.24        66.78803
892.64        66.47124
893.04        66.25711
893.44        66.13511
893.83        66.11974
894.23        66.19264
894.63        66.35263
895.03        66.60258
895.43        66.93556
895.83        67.32227
896.23         67.7233
896.63        68.10617
897.02        68.39006
897.42        68.53871
897.82        68.52035
898.22        68.34987
898.62        68.08515
899.01        67.83687
899.41        67.62257
899.81        67.44682
900.21         67.2715
900.61        67.02087
901.00        66.67827
901.40        66.35188
901.80        66.12452
902.20        65.98578
902.59        65.93256
902.99        66.19887
903.39        66.83521
903.79         66.3737
904.18        67.22819
904.58        67.41908
904.98        67.58134
905.38        67.52105
905.77        67.22543
906.17        66.76878
906.57        66.26111
906.96        65.98553
907.36        66.01343
907.76        66.29814
908.15        66.75494
908.55        67.08242
908.95         67.2438
909.34        67.25723
909.74        67.26275
910.14        67.44579
910.53        67.83119
910.93        68.32901
911.33        68.72351
911.72        68.68718
912.12        68.17724
912.52         67.3159
912.91        66.36282
913.31        65.80173
913.70        65.72747
914.10        66.02106
914.49        66.46937
914.89        66.61731
915.29        66.37533
915.68         65.8692
916.08        65.35541
916.47        65.18116
916.87         65.4591
917.26        66.06064
917.66        66.75954
918.05        67.22482
918.45        67.33916
918.84        67.19898
919.24        66.98544
919.64        67.05566
920.03           67.48
920.42        68.11038
920.82        68.67483
921.21         68.7674
921.61        68.33298
922.00        67.59124
922.40        66.87096
922.79        66.55751
923.19        66.42057
923.58        67.15767
923.98        68.93394
924.37        69.24631
924.77        66.78347
925.16           74.09
925.55        68.56127
925.95        69.06543
926.34        69.18738
926.74        68.74249
927.13        67.64037
927.52        66.80702
927.92        66.67989
928.31        66.74866
928.70          67.009
929.10        67.35348
929.49        67.75721
929.89        68.28022
930.28        68.76382
930.67        68.82481
931.07        68.41409
931.46        67.51798
931.85        66.57433
932.24        66.74227
932.64        68.16891
933.03        69.95163
933.42        71.13734
933.82        73.25434
934.21         71.5114
934.60        69.71603
934.99        67.80663
935.39        67.15296
935.78        67.91389
936.17        70.26627
936.56        76.55735
936.96        70.61668
937.35        73.93627
937.74        70.71556
938.13         68.1702
938.53        66.22514
938.92        65.69324
939.31        66.93745
939.70        68.66685
940.09        69.57272
940.49        69.36356
940.88        68.52807
941.27        67.47583
941.66        66.95833
942.05        67.24854
942.44        67.99156
942.84         68.8531
943.23        69.49175
943.62        69.77291
944.01        69.82063
944.40        69.74057
944.79        69.68373
945.18        69.70336
945.57        69.74092
945.97          69.687
946.36        69.49636
946.75        69.12211
947.14        68.61411
947.53         68.1232
947.92        67.89439
948.31        67.98315
948.70        68.30843
949.09        68.68425
949.48        68.81498
949.87        68.64629
950.26        68.29659
950.65        67.89662
951.04        67.66481
951.43         67.6696
951.82        67.80252
952.21        68.07479
952.60        68.51061
952.99        69.03663
953.38        69.61551
953.77        70.01989
954.16        69.90768
954.55         69.2497
954.94        68.17203
955.33        66.95094
955.72        66.12202
956.11         65.8964
956.50        66.13469
956.89        66.72713
957.28        67.46005
957.66        68.22906
958.05        68.99389
958.44        69.60541
958.83        69.83414
959.22        69.63598
959.61        69.01277
960.00        68.14695
960.39        67.45248
960.78        67.10712
961.16        67.09965
961.55        67.17381
961.94        67.01308
962.33        66.55786
962.72        65.91166
963.11        65.33234
963.49        65.33067
963.88        66.01037
964.27         67.1153
964.66        68.26517
965.04        68.99144
965.43        69.13479
965.82        68.88036
966.21         68.3472
966.60        67.76474
966.98        67.26364
967.37        66.78224
967.76        66.42657
968.15        66.35778
968.53        66.61643
968.92        67.17449
969.31        67.83884
969.69        68.25301
970.08        68.28542
970.47        67.98835
970.86        67.59229
971.24        67.52451
971.63        67.85905
972.02        68.46205
972.40        69.03165
972.79        69.03801
973.17        68.44955
973.56        67.44175
973.95         66.3903
974.33        65.95347
974.72        66.31025
975.11        67.22298
975.49         68.4356
975.88        69.44767
976.26        70.13718
976.65        70.56449
977.04        70.72714
977.42        70.58102
977.81        70.12412
978.19        69.32045
978.58        68.58108
978.96        68.60029
979.35         69.4689
979.74        70.87763
980.12        72.34229
980.51        73.08631
980.89        73.11774
981.28        72.58244
981.66        71.65683
982.05         70.8599
982.43        70.43696
982.82        70.29963
983.20        70.42423
983.59        70.70712
983.97        71.12544
984.35        71.67391
984.74         72.2224
985.12        72.60286
985.51        72.70429
985.89        72.62263
986.28        72.35709
986.66        71.96632
987.04          71.545
987.43        71.01617
987.81        70.31348
988.20        70.71786
988.58        72.45206
988.96        72.88889
989.35        71.30402
989.73        77.08099
990.12        74.25055
990.50        74.93579
990.88        74.89626
991.27        74.65327
991.65        74.15993
992.03        73.60564
992.42        73.10609
992.80        72.37796
993.18         71.4628
993.56        70.50667
993.95        69.85425
994.33        69.99261
994.71        70.97746
995.10        72.57185
995.48        74.29807
995.86         75.3567
996.24        75.50538
996.63        74.90573
997.01        73.92274
997.39        72.95882
997.77         72.1977
998.15         71.5559
998.54        71.10426
998.92        70.84138
999.30        70.80981
999.68        71.08833
1000.06        71.62855
1000.45        72.20086
1000.83        72.77988
1001.21         73.3166
1001.59          73.812
1001.97        74.32632
1002.35        74.83727
1002.73        75.25014
1003.12          75.564
1003.50        75.85525
1003.88        76.12077
1004.26         76.3857
1004.64        76.51719
1005.02        76.24661
1005.40        75.50829
1005.78        74.37672
1006.16         73.2009
1006.54        72.52314
1006.92        72.52145
1007.30        73.15952
1007.69        73.98793
1008.07        74.43064
1008.45        74.32947
1008.83        73.75627
1009.21        73.31847
1009.59        74.17795
1009.97        76.36438
1010.35        79.14466
1010.73         81.4873
1011.11        82.51131
1011.49        82.27305
1011.86        80.81801
1012.24        78.38421
1012.62        78.87123
1013.00        79.96437
1013.38        80.97739
1013.76        80.39471
1014.14         84.4949
1014.52        89.39771
1014.90        83.40158
1015.28        83.93788
1015.66        84.55903
1016.04        81.05549
1016.41        80.70525
1016.79        79.52021
1017.17        79.22952
1017.55        79.35265
1017.93        80.10315
1018.31        81.36217
1018.69        82.32223
1019.06         82.8014
1019.44        82.90261
1019.82        82.72681
1020.20        82.36642
1020.58        81.86331
1020.95        81.08107
1021.33        80.17802
1021.71          79.534
1022.09        79.45583
1022.46        79.84743
1022.84        80.46621
1023.22        81.18236
1023.60         81.9891
1023.97        82.97525
1024.35        83.96641
1024.73        84.53085
