SpectraSmart Spectrum 2.9.0.0
--------- Device Information -----------
Spectrum Name :  反射率_0
Saving Time :  2024/04/21 00:45:46
Spectro-Module Model Name : SE2030-DUVN
Spectro-Module Serial Number : OS361AC55029948
Wavelength Start : 200
Wavelength End : 1025
Wavelength Unit : Wavelength(nm)
Spectrum Unit : Reflectance(%)
-----------Spectrum Setting ------------
Integration Time : 20ms
Average : 10
Boxcar : 0
Background removal :  enabled
linearity correction :  enabled
SC :  disabled
Intensity correction :  disabled
DWT denoise :  enabled
savitzky-golay :  disabled
FFT :  disabled
Running average :  disabled
Kalman :  disabled
High pass :  disabled
---------------BEGIN--------------------
Wavelength(nm)             Reflectance(%)
200.29               0
200.75        57.85699
201.21        48.21685
201.67        39.84473
202.13        37.55878
202.58        39.46511
203.04        44.31881
203.50        50.10847
203.96         51.1309
204.42        44.70761
204.88        32.92131
205.34        19.41666
205.80         7.55642
206.26       -2.432561
206.72        -9.43969
207.18       -16.61349
207.64       -31.50426
208.10       -53.47095
208.55       -78.93845
209.01       -85.43705
209.47       -52.58613
209.93       -11.59301
210.39        19.70633
210.85         38.7345
211.31        46.00752
211.77        44.52351
212.23        34.78483
212.69        12.46935
213.14       -26.43189
213.60        -88.7044
214.06       -249.0229
214.52       -564.5209
214.98       -221.4515
215.44       -45.48027
215.90        10.09893
216.36        27.19105
216.81        26.79445
217.27        10.34719
217.73       -71.28662
218.19        907.1938
218.65        383.8555
219.11       -809.0991
219.57       -26.76563
220.02        22.98978
220.48         32.0255
220.94        28.01538
221.40        10.73503
221.86       -31.16879
222.32       -57.85835
222.77        -19.1542
223.23        14.11083
223.69          31.241
224.15        38.14544
224.61        40.13416
225.06        40.14817
225.52        38.80402
225.98        36.22179
226.44        32.79918
226.90        27.89608
227.36         24.0617
227.81        26.03297
228.27        31.97285
228.73        38.51887
229.19        42.92419
229.65        43.65419
230.10         41.3139
230.56        37.26682
231.02        32.22826
231.48        28.71618
231.93        28.76204
232.39        31.56017
232.85        34.91656
233.31        36.89013
233.77        37.59428
234.22        38.03377
234.68        38.13169
235.14        37.69927
235.60        36.99902
236.05        35.40139
236.51        33.43758
236.97        37.21214
237.43        47.08918
237.88        54.31656
238.34        55.61067
238.80         72.4623
239.26        65.06274
239.71        62.05478
240.17        53.02506
240.63        43.33333
241.08        37.30859
241.54        38.07369
242.00        45.85758
242.46        50.56751
242.91        49.38127
243.37        43.30606
243.83        34.75879
244.28        32.46952
244.74        40.42031
245.20         52.6513
245.66         62.5928
246.11        64.38201
246.57         57.7345
247.03         44.7692
247.48        27.74692
247.94        10.38611
248.40       -9.155615
248.85       -47.89518
249.31       -154.3008
249.77       -224.7249
250.22       -59.16832
250.68        7.040561
251.14        27.25214
251.59         31.3576
252.05        28.40698
252.51        20.39214
252.96        8.261953
253.42        1.282473
253.88        6.812884
254.33        20.66033
254.79        37.72342
255.25        52.08617
255.70        61.75432
256.16        68.18484
256.62        72.31313
257.07        74.92147
257.53        76.90447
257.99        77.97518
258.44        77.90018
258.90        77.29412
259.35        75.76817
259.81         74.1371
260.27        72.25057
260.72        70.07525
261.18        68.21968
261.63        66.41286
262.09        65.03012
262.55        63.89637
263.00        62.83401
263.46        62.01701
263.91         61.2078
264.37        60.60395
264.83        60.08233
265.28        59.55289
265.74         59.0672
266.19        58.42138
266.65        57.67565
267.11        56.79643
267.56        55.80181
268.02        54.83933
268.47        53.88063
268.93        52.94076
269.38        51.94001
269.84        50.83191
270.30        49.60403
270.75        48.29558
271.21        47.02061
271.66         45.8674
272.12        44.90003
272.57        44.06454
273.03        43.33112
273.48         42.5832
273.94        41.82514
274.39        41.04469
274.85        40.31168
275.31        39.64472
275.76        39.03603
276.22        38.51038
276.67        38.01233
277.13        37.57394
277.58        37.13586
278.04        36.72984
278.49        36.29909
278.95        35.87608
279.40         35.4013
279.86        34.91382
280.31        34.35787
280.77        33.76501
281.22        33.10891
281.68         32.4731
282.13        31.83608
282.59        31.26043
283.04         30.7299
283.50        30.26188
283.95        29.89097
284.41        29.71157
284.86        29.70168
285.32        29.84344
285.77        29.99123
286.22        29.96282
286.68        29.75221
287.13         29.3793
287.59        29.03092
288.04        28.87845
288.50        28.94297
288.95        29.26164
289.41        29.74046
289.86        29.77847
290.32        29.27582
290.77        30.06298
291.22        29.23442
291.68        29.34763
292.13         29.5571
292.59        29.91661
293.04        30.38774
293.50        30.98455
293.95        31.71445
294.40        32.55696
294.86         33.5015
295.31         34.5174
295.77        35.58303
296.22        36.66848
296.68         37.7688
297.13        38.87041
297.58        39.98439
298.04        41.12213
298.49        42.27154
298.95        43.43732
299.40        44.61182
299.85        45.81132
300.31        47.06467
300.76        48.38726
301.21        49.78528
301.67        51.26338
302.12        52.77656
302.58        54.36103
303.03        55.98046
303.48         57.6704
303.94        59.39791
304.39        61.06405
304.84        62.65725
305.30        64.20495
305.75        65.73422
306.20        67.39292
306.66        69.19686
307.11        71.05607
307.57        72.87453
308.02         74.4376
308.47        75.73323
308.93        76.85901
309.38        77.90617
309.83        79.06515
310.29        80.45248
310.74        81.92007
311.19        83.37212
311.65        84.60998
312.10        85.57619
312.55         86.3514
313.00        87.04086
313.46        87.81346
313.91        88.69816
314.36        89.63933
314.82        90.58816
315.27        91.46635
315.72        92.25237
316.18        92.97768
316.63        93.63172
317.08        94.19641
317.53        94.67392
317.99        95.06136
318.44        95.40439
318.89        95.76804
319.35        96.16789
319.80        96.59839
320.25        97.01947
320.70        97.36728
321.16        97.61463
321.61         97.7914
322.06        97.93243
322.51        98.10158
322.97        98.30347
323.42        98.56051
323.87        98.80987
324.32        98.96638
324.78        98.99931
325.23        98.97256
325.68         98.9661
326.13         99.1354
326.59        99.49007
327.04        100.0374
327.49        100.6321
327.94         101.062
328.39        101.2705
328.85        101.2851
329.30        101.2921
329.75        101.4827
330.20        101.9157
330.66        102.4873
331.11        103.1457
331.56         103.674
332.01        104.0129
332.46        104.2227
332.92        104.3272
333.37        104.5054
333.82        104.7617
334.27        105.0642
334.72        105.4104
335.17        105.8004
335.63        106.1961
336.08        106.6616
336.53        107.1489
336.98         107.616
337.43        108.0473
337.88        108.4454
338.34        108.7926
338.79        109.1243
339.24        109.4277
339.69         109.702
340.14        109.9672
340.59        110.2604
341.05          110.59
341.50        110.9521
341.95        111.3271
342.40        111.6846
342.85        112.0109
343.30        112.3128
343.75        112.5786
344.20        112.7952
344.66        112.9728
345.11        113.0983
345.56        113.2076
346.01        113.3537
346.46        113.5548
346.91        113.7942
347.36        114.0217
347.81        114.2037
348.26        114.3348
348.72         114.261
349.17        114.3335
349.62        114.4339
350.07        114.6632
350.52         114.966
350.97        115.2172
351.42        115.2116
351.87        114.9055
352.32        114.3756
352.77        113.7579
353.22         113.257
353.67        112.9272
354.13        112.7246
354.58        112.5477
355.03        112.2834
355.48        111.9008
355.93        111.4498
356.38        110.9743
356.83        110.5338
357.28         110.134
357.73        109.7309
358.18        109.3018
358.63        108.8237
359.08        108.2907
359.53        107.7278
359.98        107.1114
360.43        106.3963
360.88        105.5857
361.33        104.6936
361.78        103.8104
362.23        103.0829
362.68        102.5362
363.13        102.1251
363.58        101.7265
364.03        101.1402
364.48        100.3212
364.93        99.33434
365.38        98.29282
365.83        97.38445
366.28        96.66106
366.73        96.05688
367.18        95.50893
367.63          94.918
368.08        94.25156
368.53        93.55547
368.98        92.82236
369.43        92.02472
369.88        91.16366
370.33        90.23399
370.78        89.30742
371.23        88.53004
371.68        87.94495
372.13        87.52007
372.58         87.1648
373.03        86.71684
373.48        86.12768
373.93        85.44243
374.38        84.72079
374.83        84.07225
375.28        83.53865
375.72        83.06982
376.17        82.66194
376.62         82.2457
377.07        81.78867
377.52        81.28983
377.97        80.76124
378.42        80.25156
378.87        79.80756
379.32        79.35099
379.77        78.81355
380.22          78.338
380.67        77.95866
381.11        76.65091
381.56        76.32247
382.01        75.69861
382.46        75.37074
382.91        75.25024
383.36        75.20295
383.81        74.98289
384.26        74.52165
384.71        73.89977
385.15        73.25163
385.60         72.8554
386.05        72.73238
386.50        72.78712
386.95        72.84396
387.40        72.63583
387.85         72.1244
388.29        71.38993
388.74        70.67608
389.19        70.12289
389.64        69.76385
390.09        69.52567
390.54        69.36541
390.98        69.20442
391.43        69.04768
391.88        68.91248
392.33        68.77739
392.78        68.57883
393.23        68.31352
393.67        68.01783
394.12        67.81104
394.57        67.51056
395.02        67.36222
395.47        67.34193
395.91        67.44707
396.36        67.38412
396.81        67.14093
397.26        66.88692
397.71        66.63189
398.15        66.32378
398.60        66.05219
399.05         65.7177
399.50        65.43306
399.95        65.44505
400.39        65.70197
400.84        65.95843
401.29        66.06763
401.74        65.73082
402.18        65.06396
402.63        64.68294
403.08        64.61594
403.53        64.35262
403.97        63.91026
404.42        63.67664
404.87        63.62954
405.32        63.56789
405.76        63.46328
406.21        63.35652
406.66        63.25319
407.11        63.21257
407.55        63.21865
408.00        63.13127
408.45        62.95495
408.90        62.69083
409.34        62.40793
409.79        62.32961
410.24        62.41127
410.68        62.39086
411.13        62.25397
411.58        62.15831
412.03        62.11434
412.47        62.07585
412.92        62.02404
413.37        61.98515
413.81        61.95497
414.26        61.97749
414.71        62.03386
415.15         62.1185
415.60        62.17838
416.05         62.1785
416.49        62.11004
416.94        61.98368
417.39        61.81429
417.83        61.61651
418.28        61.40608
418.73        61.17733
419.17        60.97035
419.62        60.86041
420.07        60.85899
420.51         60.9415
420.96         61.0585
421.41        61.09557
421.85        61.01117
422.30        60.84773
422.74        60.65783
423.19        60.69073
423.64        60.91707
424.08        61.13383
424.53        61.23624
424.98         61.3494
425.42        61.46707
425.87        61.41821
426.31          61.265
426.76        61.31853
427.21        61.56073
427.65        61.60526
428.10        61.38039
428.54        61.54733
428.99        61.38419
429.44        61.33276
429.88        61.18704
430.33        61.17649
430.77        61.21168
431.22        61.24994
431.66        61.26136
432.11        61.24108
432.56        61.32096
433.00        61.41628
433.45        61.26399
433.89        61.58385
434.34        62.51635
434.78        60.54146
435.23        60.57929
435.67        61.68896
436.12        61.40632
436.57        61.68266
437.01        61.49866
437.46         61.2828
437.90        61.59946
438.35        62.04644
438.79        61.84314
439.24        61.86224
439.68        61.83333
440.13        61.77557
440.57        61.69474
441.02        61.65426
441.46        61.68165
441.91        61.75858
442.35        61.82784
442.80        62.18888
443.24        62.67232
443.69         62.7099
444.13        62.32904
444.58        62.04317
445.02        61.93708
445.47        62.05023
445.91        62.30268
446.36        62.40215
446.80        62.30216
447.24        62.22682
447.69         62.2561
448.13        62.14424
448.58          62.385
449.02        62.32948
449.47        62.14656
449.91        62.03825
450.36        62.03588
450.80        61.92817
451.25        61.77055
451.69        61.80167
452.13        61.97901
452.58        61.98183
453.02        61.79717
453.47        61.68045
453.91        61.63008
454.36         61.5089
454.80        61.33073
455.24        61.22626
455.69        61.22924
456.13        61.21134
456.58        61.18338
457.02        61.35809
457.46        61.35963
457.91        61.34291
458.35        61.30257
458.79        61.20436
459.24        61.09763
459.68        60.96491
460.13        60.86184
460.57        60.68672
461.01         60.4634
461.46        60.55491
461.90        60.29921
462.34        60.23853
462.79        60.53035
463.23        60.17943
463.68        60.72013
464.12         60.4345
464.56        59.91199
465.01        59.93104
465.45        60.31087
465.89        60.29038
466.34        59.92256
466.78        59.71569
467.22        59.55918
467.67        59.88167
468.11        59.91486
468.55        59.84429
468.99        59.51103
469.44        59.33642
469.88        59.34175
470.32        59.27095
470.77        59.14186
471.21        59.09658
471.65        59.13559
472.10        59.21603
472.54        59.29255
472.98        59.30117
473.42        59.23077
473.87        59.15524
474.31        59.06182
474.75        58.94763
475.20        58.83596
475.64        58.82978
476.08        58.93369
476.52        58.95463
476.97        58.84498
477.41        58.97689
477.85        59.32321
478.29        58.68438
478.74        58.51542
479.18        58.48891
479.62        58.71702
480.06        58.88319
480.50        58.95424
480.95         58.9455
481.39        58.71529
481.83        59.40984
482.27        59.47826
482.72        58.74623
483.16        59.04515
483.60        59.19851
484.04        59.13235
484.48        58.75768
484.93        58.58257
485.37        58.50724
485.81        59.13374
486.25        58.24765
486.69        59.07373
487.14        58.98042
487.58        59.24243
488.02        58.77901
488.46        58.33538
488.90        58.80043
489.34        58.56554
489.79        58.22245
490.23        58.58646
490.67        58.62695
491.11        58.69707
491.55        58.55796
491.99        58.30503
492.43        58.20873
492.88        58.27784
493.32        58.36708
493.76        58.41439
494.20        58.48186
494.64        58.57371
495.08        58.39948
495.52        58.50699
495.96         58.4003
496.41        58.25843
496.85          58.164
497.29        58.10093
497.73        58.27507
498.17         58.3218
498.61         58.2928
499.05        58.10041
499.49        58.02204
499.93        58.10472
500.37        58.09835
500.82        58.01721
501.26        58.29725
501.70        58.79786
502.14        58.51406
502.58        58.02441
503.02        57.75876
503.46        57.85752
503.90         57.9227
504.34        57.89206
504.78          57.894
505.22        57.93588
505.66        57.91334
506.10        57.82066
506.54        57.90463
506.98        58.21663
507.42        57.67506
507.86        58.17226
508.30        58.04053
508.74        58.05265
509.18        57.98674
509.62        57.92032
510.06        57.86422
510.50        57.79331
510.94        57.66084
511.38         57.4991
511.82        57.42897
512.26        57.46084
512.70        57.53406
513.14        57.62155
513.58        57.69721
514.02        57.74341
514.46        57.76503
514.90        57.74348
515.34        57.69533
515.78        57.63174
516.22        57.50928
516.66        57.21369
517.10        57.43161
517.54          57.214
517.98        57.30148
518.42        57.37865
518.86        57.41556
519.30        57.39713
519.74         57.3112
520.18        57.21608
520.62        57.26913
521.06        57.44054
521.50        57.49509
521.93        57.43189
522.37        57.43453
522.81        57.50585
523.25        57.53888
523.69        57.51432
524.13        57.45596
524.57        57.36694
525.01        57.24157
525.45        57.12803
525.89        57.10319
526.32         57.1761
526.76        57.32877
527.20         57.4931
527.64        57.56041
528.08        57.50658
528.52        57.36901
528.96        57.20807
529.40        57.11126
529.83        57.09979
530.27        57.17051
530.71        57.27108
531.15        57.31751
531.59        57.28997
532.03         57.2211
532.46        57.13663
532.90        57.08739
533.34        57.08254
533.78        57.10577
534.22        57.13458
534.66         57.1371
535.09        57.09814
535.53        57.04819
535.97        56.99626
536.41        56.97074
536.85         56.9779
537.28        57.00785
537.72        57.04453
538.16        57.06362
538.60        57.05848
539.04         57.0402
539.47        57.00742
539.91        57.00515
540.35        57.02436
540.79        57.05658
541.22        57.09223
541.66        57.13109
542.10        57.16197
542.54        57.18035
542.97        57.17805
543.41        57.17091
543.85        57.16033
544.29        57.16345
544.72        57.15366
545.16        57.14109
545.60        57.11618
546.04        57.00562
546.47        56.89285
546.91        57.04076
547.35        57.37358
547.79        57.59032
548.22        57.59627
548.66        57.39647
549.10        57.08955
549.53        56.96023
549.97        57.02691
550.41        57.01183
550.84         56.9258
551.28        56.94371
551.72        57.03988
552.15         57.1595
552.59        57.31027
553.03        57.10249
553.46        57.31911
553.90        57.21083
554.34        56.97903
554.77        57.01836
555.21        56.97961
555.65        56.61982
556.08         57.0679
556.52        57.18301
556.96        57.28923
557.39        57.41601
557.83        57.54111
558.27        57.48339
558.70        57.27635
559.14         57.1497
559.57        57.11934
560.01        57.13688
560.45        57.15276
560.88        57.10967
561.32        57.06124
561.75        56.97847
562.19        56.93848
562.63        57.12494
563.06        57.43096
563.50        57.40818
563.93        57.08876
564.37        56.94408
564.80         56.9883
565.24         57.0554
565.68        57.11217
566.11        57.13146
566.55        57.11724
566.98        57.13249
567.42        57.23635
567.85        57.11206
568.29        57.36451
568.72        57.37616
569.16        57.39614
569.60        57.33842
570.03        57.47389
570.47        57.58004
570.90        57.68742
571.34        57.50311
571.77        57.82853
572.21        57.52411
572.64        57.56809
573.08        57.42662
573.51        57.32893
573.95        57.68004
574.38        57.51775
574.82        58.07937
575.25        58.07146
575.69        57.92929
576.12        57.49588
576.56        57.80687
576.99        57.90249
577.42        57.86869
577.86        57.67376
578.29        58.19579
578.73        58.37063
579.16        57.94982
579.60        57.71137
580.03        57.98505
580.47        57.78913
580.90        57.72242
581.33        57.94106
581.77        58.29551
582.20         58.2163
582.64        58.25666
583.07        58.04443
583.51        57.87218
583.94        57.54884
584.37        57.50065
584.81        57.54768
585.24        57.55397
585.68        57.89862
586.11        57.55635
586.54        57.86941
586.98        57.90155
587.41        57.90413
587.85        58.24176
588.28        57.79201
588.71        58.05273
589.15        57.92366
589.58        57.67406
590.01        57.41725
590.45         57.6947
590.88        57.61124
591.31        57.45593
591.75        57.57729
592.18        57.46486
592.61        57.31939
593.05        57.65051
593.48        57.86427
593.91        57.94472
594.35         57.8097
594.78        57.89172
595.21        57.78768
595.65        57.79027
596.08        57.76246
596.51        57.90118
596.94        57.65499
597.38        57.66633
597.81        57.86559
598.24        57.57867
598.68        57.68901
599.11         57.7458
599.54        57.91769
599.97        57.55749
600.41        57.61227
600.84        57.91737
601.27        57.89417
601.70        57.75863
602.14         57.7351
602.57        57.64619
603.00        57.65162
603.43        57.76488
603.87        58.14572
604.30        58.03674
604.73          57.945
605.16        57.67479
605.60        57.74459
606.03        57.76461
606.46         57.8449
606.89        57.79718
607.32        57.50636
607.76        58.14571
608.19        58.05802
608.62        57.74678
609.05        58.47273
609.48        57.92853
609.92        58.00706
610.35        57.80703
610.78        57.93427
611.21        57.58787
611.64        57.76055
612.07        57.76833
612.50        57.84509
612.94        57.87695
613.37         57.8704
613.80        57.82043
614.23        57.74361
614.66        57.69741
615.09        57.69188
615.52        57.72187
615.96        57.74905
616.39        57.70636
616.82        57.58179
617.25         57.4542
617.68        57.20753
618.11        57.21392
618.54        57.54554
618.97        57.65837
619.40        57.52909
619.84         57.6432
620.27        57.48297
620.70        57.43614
621.13        57.37164
621.56        57.42422
621.99        57.57113
622.42        57.67148
622.85        57.68831
623.28        57.78521
623.71           57.52
624.14        57.85647
624.57        57.57241
625.00         57.5897
625.43        57.41381
625.86        57.40992
626.29        57.51339
626.72        57.49104
627.15        57.42458
627.58        57.45736
628.01        57.65677
628.44        57.38616
628.87        57.33822
629.30        57.67505
629.73        57.50365
630.16        57.52103
630.59        57.55946
631.02        57.67849
631.45         57.1725
631.88        57.11174
632.31        57.30764
632.74        57.25947
633.17        57.49285
633.60        57.51574
634.03        57.48736
634.46        57.44818
634.89        57.34273
635.32        57.29893
635.75        57.29888
636.18        57.33628
636.61        57.39174
637.04        57.43327
637.47        57.45083
637.89        57.46322
638.32        57.45926
638.75        57.43655
639.18        57.39662
639.61        57.35571
640.04        57.32396
640.47        57.27963
640.90        57.24577
641.33        57.30872
641.76        57.43444
642.18        57.49177
642.61        57.45204
643.04        57.38565
643.47        57.32537
643.90        57.30569
644.33        57.33715
644.76        57.39166
645.18        57.44171
645.61        57.46735
646.04        57.44702
646.47        57.33849
646.90        57.17623
647.33        57.07899
647.75        57.05864
648.18        57.06738
648.61        57.12122
649.04        57.20178
649.47        57.26336
649.89        57.60369
650.32        57.55577
650.75        57.55814
651.18        57.43264
651.61        57.29738
652.03         57.2182
652.46        57.10041
652.89        57.01386
653.32        57.23491
653.74        57.68228
654.17        57.47035
654.60        57.54139
655.03        56.97708
655.46        56.94788
655.88        57.18654
656.31        58.19588
656.74        61.13202
657.16         59.8503
657.59         58.5008
658.02        57.37934
658.45        57.63774
658.87         57.6135
659.30        57.60605
659.73        57.70559
660.15        56.88565
660.58        57.45402
661.01        57.67506
661.44        58.02312
661.86        57.95144
662.29        57.52126
662.72        57.24804
663.14        57.21627
663.57        57.29886
664.00        57.43375
664.42         57.4958
664.85        57.47171
665.27        57.36493
665.70        57.38259
666.13         57.3513
666.55        57.34039
666.98        57.35357
667.41        57.37342
667.83        57.37701
668.26        57.36398
668.69        57.28277
669.11        57.16682
669.54        57.24721
669.96        57.57229
670.39        57.38569
670.82        57.96503
671.24        57.84991
671.67        57.50356
672.09        57.34932
672.52        57.44005
672.94        57.43741
673.37        57.33973
673.80        57.34111
674.22        57.43041
674.65        57.46242
675.07        57.43975
675.50        57.38508
675.92        57.33056
676.35        57.31422
676.77        57.34005
677.20        57.41835
677.62        57.54887
678.05        57.60438
678.47        57.54881
678.90        57.87437
679.32        57.73252
679.75        57.81051
680.17         57.8566
680.60        57.89117
681.02        57.90004
681.45        57.88011
681.87        57.84508
682.30        57.76032
682.72        57.67432
683.15        57.68157
683.57        57.74032
684.00        57.83608
684.42        57.59684
684.85         57.5521
685.27        57.58195
685.70        57.61973
686.12        57.63963
686.54        57.59716
686.97        57.53367
687.39        57.67722
687.82        57.96875
688.24        58.10361
688.66        58.03478
689.09        58.09034
689.51        57.89902
689.94         58.0161
690.36        58.25592
690.78        58.28014
691.21         58.0988
691.63        57.97236
692.06        57.95988
692.48        58.01098
692.90        58.09559
693.33        58.13081
693.75        58.11634
694.17        58.06863
694.60        58.00321
695.02        58.12737
695.44        58.17825
695.87        58.19176
696.29        58.12823
696.71        58.11837
697.14        58.17546
697.56        58.31487
697.98        58.48402
698.41        58.41852
698.83        58.53967
699.25        58.23746
699.68        58.22745
700.10        58.11462
700.52        58.08611
700.94        58.10888
701.37        58.14144
701.79        58.16655
702.21        58.15235
702.64         58.0759
703.06        58.04879
703.48         58.0414
703.90        58.09217
704.33        58.17852
704.75        58.27843
705.17        58.33766
705.59         58.3394
706.01        58.29451
706.44        58.23696
706.86        58.22615
707.28         58.2621
707.70        58.36939
708.12        58.49973
708.55        58.47512
708.97        58.31948
709.39        58.28072
709.81        58.36335
710.23        58.37902
710.66        58.32652
711.08          58.335
711.50         58.3857
711.92        58.40441
712.34        58.38721
712.76        58.35637
713.19        58.32095
713.61        58.33879
714.03         58.3972
714.45        58.49229
714.87        58.60807
715.29         58.6826
715.71        58.69823
716.13        58.81921
716.56        58.76223
716.98        58.79847
717.40        58.83519
717.82        58.87075
718.24        58.89508
718.66        58.89817
719.08         58.8821
719.50        58.85268
719.92        58.82159
720.34        58.80286
720.76        58.80202
721.19         58.8091
721.61        58.83658
722.03        58.87671
722.45        58.92585
722.87         58.9822
723.29        59.04323
723.71        59.10461
724.13         59.1643
724.55        59.22279
724.97        59.27432
725.39        59.31152
725.81        59.33473
726.23        59.34425
726.65        59.35517
727.07        59.39822
727.49        59.47686
727.91        59.56467
728.33        59.63969
728.75        59.70234
729.17        59.72852
729.59        59.65097
730.01        59.50747
730.43        59.43589
730.85        59.45667
731.27        59.48859
731.69        59.53214
732.10        59.57102
732.52        59.76941
732.94        59.73595
733.36         59.5614
733.78        59.47664
734.20        59.50486
734.62        59.50484
735.04        59.48078
735.46        59.50756
735.88        59.58468
736.30        59.69677
736.72        59.80698
737.13        59.86571
737.55        59.82439
737.97         59.7162
738.39        59.59865
738.81         59.5653
739.23        59.63613
739.65        59.78898
740.06        59.92624
740.48        60.01116
740.90        59.99999
741.32        59.91056
741.74        59.80666
742.16         59.8055
742.57        59.94218
742.99        60.15561
743.41        60.37596
743.83        60.47737
744.25        60.43187
744.67        60.27899
745.08        60.10438
745.50        60.01191
745.92        60.04889
746.34        60.17735
746.75        60.34012
747.17        60.44319
747.59        60.46453
748.01        60.40449
748.42        60.31147
748.84        60.31867
749.26        60.41873
749.68         60.4318
750.09        60.34875
750.51        60.32717
750.93        60.35317
751.35        60.28884
751.76        60.17332
752.18        60.15052
752.60        60.23318
753.01        60.37588
753.43        60.49352
753.85        60.51234
754.27         60.4136
754.68         60.2184
755.10        60.02735
755.52        59.97651
755.93        60.09429
756.35        60.34859
756.77        60.65279
757.18        60.80999
757.60        60.76952
758.02        60.67078
758.43        60.63988
758.85        60.29545
759.26        60.67652
759.68        60.79433
760.10        60.80297
760.51        60.53611
760.93        60.72554
761.34        60.62164
761.76        60.61137
762.18        60.68085
762.59        60.81136
763.01         60.9771
763.42        60.46857
763.84        60.60727
764.26        60.78498
764.67        61.04689
765.09        61.21872
765.50        61.38377
765.92        61.51279
766.33        61.40505
766.75        61.11748
767.16        61.01683
767.58        61.08611
768.00        61.26673
768.41        61.52277
768.83        61.46998
769.24        61.13235
769.66         61.5444
770.07        61.64518
770.49        61.60824
770.90        61.20914
771.32        61.06565
771.73        61.20861
772.15        61.25488
772.56        61.22105
772.97        61.31879
773.39        61.49374
773.80         61.6102
774.22         61.6149
774.63        61.56897
775.05        61.49027
775.46        61.45752
775.88        61.47015
776.29        61.52254
776.70        61.56922
777.12        61.55635
777.53        61.48729
777.95        61.37295
778.36        61.25097
778.77        61.17407
779.19        61.16415
779.60        61.21825
780.02        61.30376
780.43        61.42395
780.84        61.57596
781.26        61.62311
781.67        61.62942
782.09         61.9371
782.50        62.38593
782.91        62.32913
783.33        61.83578
783.74        61.63618
784.15        61.75493
784.57         61.9103
784.98        62.03141
785.39        61.89095
785.81        61.59794
786.22        61.73655
786.63        62.23137
787.04        62.44089
787.46        62.34062
787.87        62.26769
788.28        62.26973
788.70        62.25537
789.11        62.21598
789.52        62.18705
789.93        62.17516
790.35        62.15883
790.76         62.1706
791.17          62.276
791.58        62.41528
792.00        62.47315
792.41        62.46975
792.82        62.30549
793.23        62.14912
793.65        62.49836
794.06        63.23625
794.47        63.69837
794.88        63.83326
795.29        63.58574
795.71           63.91
796.12        63.67663
796.53        63.24194
796.94        63.04814
797.35         63.1151
797.76        63.06611
798.18        62.89069
798.59        62.84474
799.00        62.92217
799.41        62.99052
799.82        63.01535
800.23        63.00847
800.64          62.961
801.06        62.84134
801.47        62.73259
801.88        62.70497
802.29        62.77765
802.70        62.93254
803.11         63.1087
803.52        63.19817
803.93        63.17402
804.34        63.06482
804.75        62.94011
805.17        62.91671
805.58        63.04722
805.99        63.24161
806.40        63.43213
806.81        63.59451
807.22        63.65416
807.63        63.45388
808.04        63.10553
808.45         62.9844
808.86        63.14772
809.27        63.40656
809.68        63.68865
810.09        63.93084
810.50        64.08475
810.91        64.17459
811.32        64.18415
811.73        64.08485
812.14        63.88754
812.55        63.60546
812.96         63.3317
813.37        63.20705
813.78        63.27897
814.19        63.55672
814.60        63.90944
815.01        64.08337
815.42        64.02619
815.83        63.81808
816.24          63.559
816.65        63.42587
817.05        63.48674
817.46        63.65808
817.87        63.87826
818.28        64.01649
818.69        64.04034
819.10        63.99524
819.51        63.93451
819.92        63.94691
820.33        64.05383
820.74        64.20627
821.14         64.3616
821.55        64.48265
821.96        64.54179
822.37        64.56152
822.78        64.52497
823.19        64.40266
823.60        64.20084
824.00        63.94035
824.41        63.66933
824.82         63.5321
825.23        63.56076
825.64        63.73148
826.04        63.96236
826.45        64.07723
826.86          64.048
827.27        63.91912
827.68        63.77816
828.08        63.80381
828.49        63.96887
828.90        64.25703
829.31        64.59959
829.72        64.78893
830.12        64.78513
830.53        65.03228
830.94        64.79519
831.35        64.66071
831.75        64.44867
832.16        64.15533
832.57        63.92068
832.97        63.97541
833.38        64.34284
833.79        64.92966
834.20        65.55004
834.60        65.92465
835.01        65.98137
835.42        65.79891
835.82        65.48048
836.23        65.16741
836.64        64.94913
837.04        64.80674
837.45        64.71998
837.86        64.70898
838.26        64.78034
838.67        64.92947
839.08        65.14727
839.48        65.39178
839.89        65.63048
840.29        65.85105
840.70        66.03799
841.11        66.17552
841.51        66.26995
841.92        66.28698
842.33        66.23608
842.73        66.13673
843.14        65.96349
843.54        65.75995
843.95        65.55531
844.35        65.41249
844.76        65.34128
845.17        65.33392
845.57        65.38687
845.98        65.45261
846.38        65.54018
846.79        65.63519
847.19        65.74066
847.60        65.78725
848.00        65.79646
848.41        65.74057
848.81        65.70419
849.22        65.76917
849.62        65.98171
850.03        66.26851
850.43        66.56329
850.84        66.65829
851.24        66.56174
851.65        66.27034
852.05        65.93114
852.46        65.71715
852.86        65.69362
853.27        65.84451
853.67        66.01072
854.07        66.10532
854.48        66.07027
854.88          65.957
855.29         65.7972
855.69        65.80544
856.10        65.93605
856.50        66.21357
856.90        66.45142
857.31        66.39192
857.71        66.03757
858.12        65.42271
858.52        64.75341
858.92        64.31322
859.33        64.18305
859.73        64.33739
860.13        64.63593
860.54        64.83652
860.94        64.91831
861.34        64.89915
861.75        64.83276
862.15        64.88631
862.55        65.05109
862.96        65.24593
863.36        65.39243
863.76        65.32481
864.17        65.01511
864.57        64.56782
864.97         64.0667
865.38        63.63262
865.78        63.36113
866.18        63.20686
866.58         63.2417
866.99        63.54611
867.39        64.11803
867.79        64.88812
868.19        65.61941
868.60        65.89454
869.00        65.72886
869.40        65.39626
869.80        65.01205
870.21        64.61847
870.61        64.36832
871.01        64.31567
871.41        64.37601
871.81        64.33083
872.22        64.15485
872.62        63.91925
873.02        63.69676
873.42         63.7828
873.82        64.02432
874.22        63.85415
874.63        63.47522
875.03        63.33586
875.43        63.48469
875.83        64.67722
876.23        64.18521
876.63        63.63367
877.03         62.7681
877.44        60.98729
877.84        168.9199
878.24        62.55073
878.64        63.38504
879.04        64.83434
879.44        65.22578
879.84        61.81519
880.24        66.70303
880.64        66.82543
881.04        64.42368
881.44        62.71896
881.84        62.29058
882.24        63.20407
882.65        64.71494
883.05        65.26846
883.45        64.56213
883.85         63.4961
884.25        62.55041
884.65        62.10586
885.05        62.31844
885.45        62.96731
885.85        63.76334
886.25        64.32788
886.65        64.54044
887.05        64.52999
887.45        64.32774
887.85        63.97414
888.25        63.53789
888.65        63.01935
889.04        62.56875
889.44        62.45339
889.84        62.71462
890.24        63.25707
890.64         63.9303
891.04         64.5069
891.44        64.91055
891.84        65.19799
892.24        65.33654
892.64        65.27891
893.04        65.05071
893.44         64.6797
893.83        64.32436
894.23        64.20325
894.63        64.37452
895.03         64.7834
895.43        65.31363
895.83        65.74871
896.23        66.00999
896.63        66.14257
897.02         66.1738
897.42        66.21525
897.82        66.26421
898.22        66.27484
898.62        66.22482
899.01        66.10119
899.41        65.88195
899.81        65.61029
900.21        65.29333
900.61        64.92568
901.00        64.52408
901.40        64.18907
901.80        63.98508
902.20        63.86698
902.59        63.81869
902.99        64.08759
903.39        64.77714
903.79        64.40723
904.18        65.53298
904.58        66.02766
904.98        66.42992
905.38        66.33949
905.77        65.72619
906.17        64.73899
906.57        63.67486
906.96        63.12363
907.36        63.23513
907.76        63.87516
908.15        64.79623
908.55        65.41778
908.95        65.60742
909.34         65.4556
909.74        65.20511
910.14        65.20776
910.53         65.5423
910.93        66.07111
911.33        66.51066
911.72        66.43243
912.12        65.78299
912.52        64.73978
912.91        63.65692
913.31        63.15493
913.70        63.35101
914.10        64.06628
914.49        64.98814
914.89        65.49814
915.29        65.44038
915.68        64.97337
916.08        64.38564
916.47        64.08538
916.87        64.21651
917.26        64.63818
917.66        65.14261
918.05        65.43008
918.45        65.39771
918.84        65.15239
919.24        64.87628
919.64        64.91297
920.03         65.3284
920.42        65.97831
920.82        66.58151
921.21        66.71932
921.61         66.3298
922.00        65.62331
922.40        64.93935
922.79         64.6786
923.19           64.59
923.58        65.41142
923.98        67.28854
924.37        67.54353
924.77        64.78062
925.16        72.35429
925.55        66.25891
925.95        66.72565
926.34         66.9255
926.74        66.63488
927.13        65.71329
927.52        65.04889
927.92        65.05582
928.31        65.21615
928.70        65.54522
929.10        65.97453
929.49        66.47903
929.89        67.08035
930.28        67.60846
930.67        67.66559
931.07        67.19818
931.46         66.2242
931.85        65.12752
932.24        64.99562
932.64        66.00999
933.03        67.27998
933.42        67.99218
933.82        70.20584
934.21        68.64329
934.60        67.46374
934.99        66.29182
935.39        66.04971
935.78        66.75663
936.17        68.76322
936.56        74.93071
936.96        68.33347
937.35        72.07847
937.74        69.08643
938.13        66.95292
938.53        65.20589
938.92        64.53288
939.31        65.47302
939.70        66.83602
940.09        67.41943
940.49         66.9529
940.88        65.84377
941.27        64.63209
941.66        64.31593
942.05         65.1747
942.44        66.77229
942.84        68.38514
943.23        69.10555
943.62         68.7336
944.01         67.5618
944.40        66.17491
944.79        65.57007
945.18        66.02068
945.57        67.19559
945.97        68.51128
946.36        69.17477
946.75        68.92284
947.14        68.02168
947.53         66.8736
947.92        66.16156
948.31        66.10738
948.70        66.48561
949.09        66.99788
949.48        67.20039
949.87        66.98031
950.26        66.50918
950.65        65.98923
951.04        65.72192
951.43        65.80054
951.82        66.11386
952.21        66.52265
952.60        66.81056
952.99         66.8874
953.38        66.80157
953.77         66.6479
954.16        66.55499
954.55        66.56098
954.94        66.65531
955.33        66.71687
955.72        66.54198
956.11        66.10992
956.50        65.49394
956.89        64.98781
957.28        65.04208
957.66        65.75067
958.05         66.8779
958.44        68.03304
958.83        68.62931
959.22        68.52279
959.61        67.83929
960.00        66.88892
960.39        66.28744
960.78        66.26095
961.16        66.68335
961.55        67.15384
961.94        67.21056
962.33        66.75665
962.72        65.90879
963.11        65.02923
963.49        64.83284
963.88        65.50043
964.27          66.762
964.66        68.02295
965.04        68.48695
965.43        67.97171
965.82        66.77242
966.21        65.38564
966.60         64.6969
966.98        64.97516
967.37        65.92008
967.76        67.15051
968.15         68.0368
968.53        68.38388
968.92        68.37739
969.31        68.12479
969.69        67.78464
970.08        67.42222
970.47        66.95305
970.86        66.54741
971.24        66.53407
971.63        66.93394
972.02        67.66989
972.40        68.43007
972.79        68.63673
973.17        68.24683
973.56        67.43441
973.95        66.52517
974.33        66.11436
974.72        66.37312
975.11        67.07011
975.49        68.08109
975.88        69.12258
976.26        70.10491
976.65        71.01833
977.04          71.661
977.42        71.69383
977.81        71.04323
978.19        69.73008
978.58        68.33804
978.96        67.94292
979.35         68.7723
979.74        70.40317
980.12        72.12449
980.51        72.86221
980.89         72.5723
981.28         71.4779
981.66        69.91853
982.05        68.80439
982.43        68.53821
982.82        68.89996
983.20        69.64124
983.59         70.3349
983.97        70.86983
984.35        71.34726
984.74        71.70306
985.12        71.88379
985.51        71.84991
985.89        71.66101
986.28         71.3632
986.66        71.10429
987.04        70.96725
987.43         70.8249
987.81        70.51701
988.20        71.11712
988.58        72.76775
988.96        72.96321
989.35        70.94225
989.73        76.27152
990.12        72.61608
990.50        72.55077
990.88        71.79843
991.27        71.23524
991.65        70.89749
992.03         70.8671
992.42        71.18301
992.80        71.33084
993.18        71.20126
993.56        70.97359
993.95        70.65676
994.33        70.22652
994.71        69.74536
995.10        69.19813
995.48        68.81091
995.86        68.95635
996.24        69.66824
996.63        70.72297
997.01        71.90582
997.39        72.66852
997.77        72.84775
998.15        72.58358
998.54        72.05774
998.92        71.46143
999.30        70.94122
999.68        70.48368
1000.06        70.12415
1000.45            69.9
1000.83        69.94817
1001.21        70.26366
1001.59        70.90353
1001.97        71.91003
1002.35        73.14893
1002.73        74.43927
1003.12        75.56278
1003.50        76.32913
1003.88        76.71812
1004.26        76.84494
1004.64        76.69286
1005.02        76.25723
1005.40        75.58967
1005.78        74.65812
1006.16        73.82723
1006.54        73.67478
1006.92        74.27602
1007.30        75.49785
1007.69        76.64944
1008.07        76.77798
1008.45        75.68244
1008.83        73.62167
1009.21        71.33942
1009.59        70.46716
1009.97        71.44933
1010.35        73.49429
1010.73        75.74405
1011.11        77.57854
1011.49        79.01863
1011.86        80.05313
1012.24        80.44981
1012.62        82.23443
1013.00        82.83401
1013.38        82.17191
1013.76        79.28989
1014.14        82.09486
1014.52        87.23888
1014.90        79.81011
1015.28        80.76568
1015.66         82.0507
1016.04        78.70539
1016.41        79.22646
1016.79        78.78567
1017.17        78.78386
1017.55        78.65479
1017.93        78.64344
1018.31        79.04956
1018.69        79.84283
1019.06        81.01686
1019.44        82.39791
1019.82        83.58815
1020.20        84.09483
1020.58        83.84056
1020.95        82.75764
1021.33        81.20697
1021.71        80.27685
1022.09        80.58536
1022.46        81.73809
1022.84        82.88702
1023.22        83.34511
1023.60        83.12944
1023.97        82.47443
1024.35        81.76709
1024.73        81.76174
