SpectraSmart Spectrum 2.9.0.0
--------- Device Information -----------
Spectrum Name :  反射率_0
Saving Time :  2024/04/21 00:25:15
Spectro-Module Model Name : SE2030-DUVN
Spectro-Module Serial Number : OS361AC55029948
Wavelength Start : 200
Wavelength End : 1025
Wavelength Unit : Wavelength(nm)
Spectrum Unit : Reflectance(%)
-----------Spectrum Setting ------------
Integration Time : 20ms
Average : 10
Boxcar : 0
Background removal :  enabled
linearity correction :  enabled
SC :  disabled
Intensity correction :  disabled
DWT denoise :  enabled
savitzky-golay :  disabled
FFT :  disabled
Running average :  disabled
Kalman :  disabled
High pass :  disabled
---------------BEGIN--------------------
Wavelength(nm)             Reflectance(%)
200.29               0
200.75       -62.95039
201.21       -30.99094
201.67       -11.23841
202.13     -0.07367659
202.58        7.019539
203.04        13.97546
203.50        20.13553
203.96        21.41546
204.42        15.78578
204.88        3.480048
205.34       -10.21084
205.80       -18.93429
206.26       -20.73036
206.72       -11.63821
207.18        1.452452
207.64       -1.115614
208.10       -25.08083
208.55       -64.79084
209.01       -84.90173
209.47       -47.53147
209.93        6.967708
210.39         50.5961
210.85        77.75539
211.31        88.29417
211.77        86.21432
212.23        71.89972
212.69         40.4549
213.14       -8.389889
213.60       -73.10477
214.06       -206.4521
214.52       -411.8705
214.98       -131.4869
215.44       -12.89933
215.90        22.57858
216.36        32.28314
216.81        28.86487
217.27        10.68838
217.73       -74.48425
218.19        948.8435
218.65        411.7431
219.11       -933.5258
219.57       -46.42366
220.02        10.99179
220.48        22.16221
220.94        19.07179
221.40        2.345648
221.86       -38.53898
222.32       -62.18806
222.77       -21.84661
223.23        11.09417
223.69        27.11875
224.15         32.1478
224.61        31.51365
225.06         28.4031
225.52        23.66818
225.98        18.17105
226.44        12.79406
226.90        6.339392
227.36         2.72505
227.81        8.429749
228.27        19.38176
228.73        30.32968
229.19        37.26163
229.65         38.1669
230.10        33.99106
230.56         26.1965
231.02        16.01294
231.48        8.844547
231.93        8.811129
232.39        13.98793
232.85        20.27337
233.31        24.11955
233.77        25.62014
234.22         26.3513
234.68        26.40385
235.14        25.79094
235.60        24.90716
236.05        22.86495
236.51        20.07036
236.97        23.51926
237.43        33.89272
237.88        40.61869
238.34        39.50103
238.80        61.22649
239.26        50.95938
239.71        48.86321
240.17        40.58323
240.63        32.18633
241.08        27.90903
241.54        31.08608
242.00         41.6303
242.46         49.0956
242.91        51.15865
243.37        48.91355
243.83        44.88477
244.28        47.09984
244.74        57.94881
245.20        71.46334
245.66        81.40809
246.11         82.2324
246.57        73.74512
247.03        57.74886
247.48        36.45398
247.94        12.67989
248.40       -17.73367
248.85       -80.46481
249.31       -266.8625
249.77       -442.3455
250.22       -170.2043
250.68       -47.94274
251.14         -4.3428
251.59        14.38815
252.05        26.08849
252.51        37.88495
252.96        48.12321
253.42        48.26997
253.88        35.24716
254.33        16.40403
254.79        6.915144
255.25        14.53746
255.70        30.04468
256.16         45.0381
256.62          55.413
257.07          59.138
257.53         58.7207
257.99        56.52481
258.44        53.88081
258.90        52.50605
259.35        51.90357
259.81        51.73245
260.27          51.554
260.72        51.06257
261.18        50.52881
261.63        49.86234
262.09        49.14959
262.55        48.06527
263.00        46.59375
263.46        45.02672
263.91        43.48491
264.37        42.52238
264.83        42.07381
265.28        41.90311
265.74        41.81479
266.19         41.3784
266.65        40.58302
267.11        39.51193
267.56        38.29594
268.02        37.21652
268.47        36.30352
268.93        35.52322
269.38        34.74584
269.84        33.83049
270.30        32.75872
270.75        31.61501
271.21         30.5789
271.66        29.85259
272.12        29.48106
272.57         29.3298
273.03        29.26313
273.48         29.0583
273.94        28.66541
274.39        28.12048
274.85        27.47042
275.31        26.72097
275.76        25.91623
276.22         25.1207
276.67        24.39987
277.13        23.91423
277.58        23.64364
278.04        23.53931
278.49         23.5154
278.95        23.51466
279.40        23.45307
279.86        23.36554
280.31        23.14678
280.77        22.72299
281.22        22.08586
281.68        21.34561
282.13        20.60092
282.59        20.06566
283.04        19.75957
283.50        19.62872
283.95        19.63606
284.41        19.74042
284.86        19.89384
285.32        20.11506
285.77        20.29106
286.22        20.26733
286.68        20.05424
287.13        19.66671
287.59         19.3125
288.04        19.21074
288.50        19.37162
288.95        19.84495
289.41        20.49046
289.86        20.59619
290.32        20.03271
290.77        20.88785
291.22        19.88782
291.68        19.95193
292.13        20.13446
292.59        20.47625
293.04        20.92308
293.50        21.46981
293.95        22.11592
294.40        22.83545
294.86        23.62191
295.31        24.44997
295.77        25.30518
296.22         26.1798
296.68        27.04985
297.13          27.877
297.58         28.6792
298.04        29.47914
298.49        30.35255
298.95        31.43624
299.40        32.73324
299.85        34.19947
300.31         35.7237
300.76        37.11844
301.21        38.34866
301.67        39.49327
302.12        40.62391
302.58        41.93324
303.03        43.44404
303.48        45.14313
303.94        46.97202
304.39        48.79808
304.84        50.59217
305.30         52.4031
305.75        54.24463
306.20        56.22375
306.66        58.34012
307.11         60.4973
307.57        62.63648
308.02        64.62547
308.47        66.45403
308.93        68.20562
309.38        69.87598
309.83        71.48199
310.29        73.14321
310.74        74.74606
311.19        76.35291
311.65        78.00525
312.10        79.68938
312.55         81.4006
313.00        83.06852
313.46        84.58112
313.91        85.89471
314.36        87.03714
314.82        88.09566
315.27        89.21163
315.72        90.42147
316.18        91.68158
316.63        92.89494
317.08        93.90573
317.53        94.67523
317.99        95.25637
318.44        95.73805
318.89         96.2481
319.35        96.82563
319.80        97.43661
320.25        98.04235
320.70         98.5854
321.16         99.0347
321.61        99.42935
322.06        99.77081
322.51        100.0646
322.97        100.3072
323.42        100.5336
323.87        100.7439
324.32        100.9596
324.78        101.1728
325.23        101.4191
325.68        101.6943
326.13        102.0161
326.59        102.3578
327.04        102.7622
327.49        103.1712
327.94        103.5218
328.39        103.7992
328.85        103.9916
329.30        104.1954
329.75         104.447
330.20        104.7658
330.66        105.0956
331.11        105.4902
331.56         105.901
332.01        106.3196
332.46        106.7644
332.92        107.1611
333.37        107.5235
333.82        107.8063
334.27        108.0246
334.72        108.2733
335.17         108.715
335.63        109.3501
336.08        110.1847
336.53        111.0682
336.98        111.7949
337.43        112.3002
337.88        112.6376
338.34        112.8641
338.79        113.1406
339.24        113.4989
339.69        113.9083
340.14        114.3509
340.59        114.8063
341.05        115.2644
341.50        115.7371
341.95        116.2384
342.40        116.7856
342.85        117.3674
343.30        117.9684
343.75        118.5047
344.20        118.8555
344.66        119.0147
345.11        119.0025
345.56        118.9516
346.01        119.0711
346.46        119.4096
346.91        119.8889
347.36        120.3652
347.81        120.6783
348.26        120.7971
348.72        120.5512
349.17        120.4856
349.62        120.4576
350.07        120.6465
350.52        120.9712
350.97        121.3235
351.42        121.5233
351.87        121.5109
352.32        121.3424
352.77        121.0953
353.22        120.8854
353.67        120.7436
354.13        120.6487
354.58        120.5123
355.03        120.2537
355.48        119.8591
355.93        119.3654
356.38        118.8562
356.83        118.4511
357.28        118.1618
357.73        117.9362
358.18        117.6771
358.63         117.233
359.08        116.5789
359.53        115.7865
359.98        114.9328
360.43        114.1294
360.88        113.4118
361.33        112.7385
361.78        112.1205
362.23        111.5771
362.68        111.0936
363.13        110.6652
363.58        110.1982
364.03        109.5405
364.48        108.6648
364.93        107.6112
365.38        106.5026
365.83        105.5477
366.28        104.7998
366.73        104.1994
367.18        103.6475
367.63        102.9809
368.08        102.1627
368.53        101.2638
368.98        100.3419
369.43        99.46868
369.88        98.66797
370.33        97.90862
370.78        97.19901
371.23        96.57505
371.68        96.04034
372.13         95.5805
372.58        95.16089
373.03         94.7123
373.48        94.20347
373.93        93.64806
374.38        93.02943
374.83        92.33708
375.28        91.59855
375.72        90.81862
376.17        90.10105
376.62        89.51583
377.07        89.06121
377.52        88.69468
377.97        88.36227
378.42        87.98367
378.87        87.53736
379.32        87.05541
379.77        86.53291
380.22        85.94936
380.67        85.30219
381.11        84.59761
381.56        83.88411
382.01        83.27483
382.46         82.8136
382.91        82.48652
383.36        82.22429
383.81        81.91167
384.26        81.51179
384.71        81.04079
385.15        80.55117
385.60        80.19229
386.05        79.95892
386.50        79.81451
386.95        79.63955
387.40        79.25813
387.85        78.66754
388.29        77.90614
388.74        77.23647
389.19          76.817
389.64        76.65896
390.09        76.66466
390.54        76.71394
390.98        76.59698
391.43        76.30792
391.88        75.92623
392.33        75.49147
392.78        75.05019
393.23        74.63653
393.67        74.18091
394.12        73.86357
394.57        73.67588
395.02        73.92838
395.47        73.96544
395.91        73.83093
396.36        73.65237
396.81        73.43795
397.26         73.0953
397.71        72.65669
398.15        72.25875
398.60        72.01172
399.05        71.67896
399.50         71.3782
399.95        71.53983
400.39        72.01736
400.84        72.16376
401.29        71.89846
401.74        71.38085
402.18        70.79903
402.63        70.60201
403.08         70.7384
403.53        70.58358
403.97        70.11392
404.42        69.78435
404.87        69.63614
405.32        69.51941
405.76        69.42434
406.21        69.43498
406.66         69.4782
407.11        69.38244
407.55        69.17525
408.00        68.98114
408.45        68.85403
408.90        68.73866
409.34        68.63335
409.79        68.58253
410.24        68.56659
410.68        68.55923
411.13        68.55412
411.58        68.54802
412.03         68.5415
412.47        68.56138
412.92        68.57861
413.37        68.58629
413.81        68.57777
414.26        68.60358
414.71        68.64497
415.15        68.70982
415.60        68.72516
416.05        68.62713
416.49        68.41494
416.94        68.11859
417.39        67.82054
417.83        67.63094
418.28        67.58182
418.73         67.6404
419.17        67.75771
419.62        67.85912
420.07        67.91032
420.51        67.91983
420.96        67.92497
421.41        67.91994
421.85        67.88316
422.30         67.8899
422.74        67.89735
423.19        67.87698
423.64        67.84298
424.08        67.99194
424.53        68.23217
424.98        68.35507
425.42        68.34162
425.87        68.28954
426.31        68.26048
426.76         68.2533
427.21        68.30775
427.65         68.5553
428.10        68.84341
428.54        68.91219
428.99        68.78709
429.44        68.50796
429.88        68.19377
430.33        68.25844
430.77        68.57024
431.22        68.75597
431.66        68.78243
432.11        68.96658
432.56        69.29353
433.00        69.30887
433.45        68.83571
433.89        68.66187
434.34         69.0041
434.78        68.28328
435.23        68.12971
435.67        69.69533
436.12        69.54477
436.57        69.82413
437.01        69.49379
437.46        69.30369
437.90        70.05025
438.35        69.64176
438.79        70.01788
439.24        69.90966
439.68         69.8607
440.13        69.63433
440.57        69.35779
441.02        69.64239
441.46        70.28235
441.91        70.33189
442.35        69.83643
442.80        69.91592
443.24        70.47426
443.69        70.63927
444.13        70.32009
444.58        70.42785
445.02        70.05466
445.47        70.19669
445.91        70.50835
446.36         70.6687
446.80        70.63403
447.24         70.6423
447.69        70.71539
448.13        70.80116
448.58        70.72296
449.02        70.70634
449.47        70.70394
449.91        70.69385
450.36         70.6979
450.80        70.64618
451.25        70.58728
451.69        70.67223
452.13         70.8488
452.58        70.78976
453.02        70.51031
453.47        70.34788
453.91         70.3043
454.36         70.2058
454.80        70.08039
455.24        69.97503
455.69        69.89185
456.13        69.95676
456.58        70.18743
457.02        69.75298
457.46        69.74368
457.91        69.67015
458.35        69.69507
458.79        69.61666
459.24        69.41059
459.68        69.26682
460.13         69.2505
460.57        69.10347
461.01        68.81277
461.46        69.33446
461.90        68.82603
462.34        69.02222
462.79        69.01466
463.23        68.77816
463.68        69.06861
464.12        68.67262
464.56        68.06757
465.01        68.13276
465.45        68.66732
465.89         68.8234
466.34         68.4733
466.78        68.31032
467.22        68.36372
467.67        68.17429
468.11        67.98319
468.55        67.94332
468.99        68.06778
469.44        68.05237
469.88        67.88184
470.32        67.70052
470.77        67.53984
471.21        67.39357
471.65        67.27407
472.10        67.18752
472.54        67.12634
472.98        67.09252
473.42        67.08183
473.87        67.12401
474.31        67.15472
474.75        67.14114
475.20        67.06998
475.64         66.9883
476.08        66.94736
476.52        66.86291
476.97        66.67427
477.41        66.80585
477.85         67.2734
478.29        66.47776
478.74        66.18511
479.18        66.78297
479.62        66.56476
480.06        66.77418
480.50        66.77827
480.95        66.84893
481.39        66.89433
481.83        66.99342
482.27        67.53997
482.72        66.90269
483.16        67.19584
483.60        67.49358
484.04        67.54319
484.48        67.23126
484.93        67.02539
485.37         67.0611
485.81        67.23406
486.25         66.2515
486.69        67.68861
487.14        67.64292
487.58        67.27047
488.02        66.97662
488.46        66.78397
488.90         66.4915
489.34         66.4074
489.79        65.94763
490.23        66.63788
490.67        66.78807
491.11        66.77446
491.55         66.5657
491.99        66.27669
492.43        66.15142
492.88          66.216
493.32        66.36703
493.76        66.46561
494.20        66.50757
494.64        66.49548
495.08        65.99796
495.52        65.65514
495.96        65.84173
496.41        66.51527
496.85        66.56462
497.29        65.97601
497.73        65.86364
498.17         65.9229
498.61        65.99447
499.05        65.92553
499.49        65.91532
499.93        65.95534
500.37        65.83126
500.82        65.59808
501.26        65.70576
501.70        66.07109
502.14        65.82058
502.58        65.56347
503.02         65.2801
503.46         65.4707
503.90        65.55106
504.34        65.56724
504.78        65.58817
505.22        65.62263
505.66        65.57171
506.10        65.44975
506.54        65.49387
506.98        65.75205
507.42        65.17367
507.86        65.94308
508.30        65.37851
508.74        65.73444
509.18        65.64614
509.62        65.60754
510.06        65.58986
510.50        65.56444
510.94        65.45676
511.38        65.28038
511.82        65.17633
512.26        65.15557
512.70        65.16116
513.14        65.16654
513.58        65.14725
514.02        65.09378
514.46        65.01552
514.90         64.9318
515.34        64.90567
515.78        64.94868
516.22        65.02268
516.66        64.94143
517.10        65.20945
517.54        65.01886
517.98        65.00338
518.42        64.94392
518.86        64.88727
519.30        64.84525
519.74        64.77326
520.18        64.71255
520.62        64.80974
521.06        65.01831
521.50        65.08827
521.93         65.0147
522.37          64.996
522.81        65.03682
523.25        65.01537
523.69        64.93166
524.13         64.8482
524.57        64.77554
525.01        64.70058
525.45          64.648
525.89        64.65612
526.32        64.72377
526.76        64.84052
527.20         64.9657
527.64        65.03591
528.08        65.03206
528.52        64.97386
528.96        64.88067
529.40        64.77598
529.83         64.6731
530.27        64.60206
530.71        64.55214
531.15        64.50417
531.59        64.45792
532.03        64.42397
532.46        64.41302
532.90        64.45277
533.34        64.53532
533.78        64.64805
534.22        64.74601
534.66        64.76323
535.09        64.68067
535.53        64.54086
535.97        64.38363
536.41        64.29089
536.85        64.28333
537.28        64.33797
537.72        64.41779
538.16        64.46251
538.60        64.45338
539.04        64.41179
539.47        64.34577
539.91        64.31981
540.35         64.3274
540.79        64.35571
541.22        64.38511
541.66        64.40096
542.10        64.39333
542.54        64.36844
542.97        64.33452
543.41        64.33608
543.85        64.37304
544.29        64.44361
544.72        64.50922
545.16        64.55667
545.60        64.56647
546.04        64.50345
546.47        64.42278
546.91        64.48982
547.35        64.66371
547.79        64.77347
548.22        64.75694
548.66        64.61371
549.10        64.41322
549.53        64.35627
549.97        64.44454
550.41        64.44649
550.84        64.35345
551.28        64.32754
551.72        64.37639
552.15         64.4086
552.59        64.42628
553.03        64.52173
553.46        64.56414
553.90        64.56779
554.34        64.47366
554.77        64.48956
555.21        64.35432
555.65        64.33494
556.08        64.45418
556.52        64.65285
556.96        64.86897
557.39        64.85878
557.83        64.62814
558.27        64.53951
558.70        64.27476
559.14        64.17529
559.57        64.13453
560.01        64.28068
560.45            64.5
560.88        64.45396
561.32        64.24838
561.75        64.18461
562.19        64.30349
562.63        64.46887
563.06        64.59109
563.50        64.43444
563.93        64.07512
564.37        63.99351
564.80        64.16435
565.24        64.28513
565.68        64.32384
566.11        64.37971
566.55        64.45154
566.98        64.54987
567.42         64.6674
567.85         64.5132
568.29        64.29626
568.72         64.3454
569.16        64.70578
569.60         64.7606
570.03        64.80628
570.47        64.87353
570.90        65.01933
571.34        64.89687
571.77        65.52003
572.21        65.06169
572.64        65.07642
573.08        65.15807
573.51        64.97678
573.95        65.45547
574.38        65.31359
574.82        65.68191
575.25        65.70468
575.69        65.48959
576.12        65.06818
576.56        65.26649
576.99        65.24758
577.42        65.70994
577.86        65.42812
578.29        65.74883
578.73        66.37983
579.16        65.96246
579.60        65.50413
580.03        65.24303
580.47        65.49615
580.90        65.47356
581.33        65.50142
581.77        65.64063
582.20        66.24229
582.64        66.34077
583.07        65.88083
583.51        65.57663
583.94        65.32862
584.37        65.16195
584.81        64.82793
585.24        64.74294
585.68        65.18044
586.11        65.34881
586.54         65.4771
586.98        65.29408
587.41        65.07355
587.85        65.37749
588.28        65.62662
588.71        65.68721
589.15        65.62431
589.58        65.15725
590.01        64.88596
590.45        64.93018
590.88        65.15034
591.31        64.80391
591.75        64.58782
592.18        64.64918
592.61        65.15514
593.05        65.40089
593.48        65.23863
593.91        65.49836
594.35         65.4269
594.78        65.21525
595.21        64.99208
595.65        64.88319
596.08        64.95949
596.51        65.23895
596.94        65.12366
597.38        65.13724
597.81        65.12038
598.24          65.175
598.68        64.93402
599.11         64.9575
599.54        65.34622
599.97        65.24988
600.41        65.31238
600.84        65.44597
601.27        65.31595
601.70        65.30624
602.14        64.66325
602.57        64.63014
603.00        64.99464
603.43        65.12389
603.87         65.5603
604.30        65.32978
604.73        65.15981
605.16        64.92625
605.60        65.02827
606.03        65.13373
606.46        65.20158
606.89        65.37935
607.32        64.69524
607.76        65.34286
608.19        65.25613
608.62        65.05483
609.05        65.65157
609.48        65.27689
609.92        65.48364
610.35        65.41922
610.78        65.43484
611.21        65.19281
611.64         65.3484
612.07        65.13438
612.50        65.20429
612.94        65.07758
613.37        64.90558
613.80        64.99543
614.23        64.84665
614.66         64.7533
615.09        64.61835
615.52        64.67654
615.96        64.86534
616.39        64.95872
616.82        64.94778
617.25        64.73684
617.68        64.74547
618.11        64.72398
618.54        64.69686
618.97        64.78271
619.40        64.91574
619.84        64.67364
620.27         64.6239
620.70        64.44927
621.13        64.35376
621.56        64.36042
621.99         64.4949
622.42        64.61147
622.85         64.6069
623.28        64.86941
623.71        64.95064
624.14        64.78076
624.57        64.56527
625.00        64.98811
625.43        64.47231
625.86        64.48769
626.29        64.48299
626.72         64.6731
627.15        64.44388
627.58        64.42899
628.01        64.49136
628.44        64.47297
628.87        64.07285
629.30        64.59837
629.73        64.58939
630.16        64.45612
630.59        64.35161
631.02        64.54085
631.45        64.28181
631.88        64.29914
632.31        64.35932
632.74        64.14659
633.17        64.29594
633.60        64.23473
634.03        64.16046
634.46        64.11941
634.89        64.03899
635.32        64.04504
635.75        64.10477
636.18        64.21143
636.61        64.31926
637.04        64.35919
637.47         64.3184
637.89        64.22482
638.32        64.11224
638.75        64.06155
639.18         64.0888
639.61         64.1775
640.04        64.29745
640.47        64.36558
640.90         64.3555
641.33        64.42476
641.76        64.33788
642.18        64.30878
642.61         64.2597
643.04        64.19946
643.47        64.13612
643.90         64.0955
644.33        64.08287
644.76        64.07603
645.18        64.07265
645.61        64.08514
646.04        64.10275
646.47        64.08103
646.90        64.01817
647.33        63.98468
647.75        63.98425
648.18        63.93037
648.61         63.8829
649.04         64.0424
649.47        64.30375
649.89        64.61314
650.32        64.28455
650.75        64.28866
651.18        64.42703
651.61        64.43129
652.03        64.30862
652.46        64.24633
652.89        64.25513
653.32        64.22394
653.74         64.1803
654.17          64.211
654.60        63.94371
655.03        64.34299
655.46        63.80719
655.88        64.68549
656.31        65.68488
656.74        69.47079
657.16        68.25272
657.59        66.56316
658.02        64.62743
658.45        64.09453
658.87        64.82375
659.30        64.49477
659.73        64.37551
660.15        64.23653
660.58         64.4238
661.01        64.74745
661.44        65.01603
661.86        64.80391
662.29        64.20049
662.72        63.93437
663.14        64.06596
663.57        64.11676
664.00        64.05744
664.42        64.09145
664.85         64.2137
665.27        64.21982
665.70        64.30257
666.13        64.31029
666.55         64.3069
666.98        64.27219
667.41        64.22377
667.83        64.20236
668.26        64.22432
668.69        64.22443
669.11        64.17961
669.54        64.26191
669.96        64.51337
670.39        64.07462
670.82        64.48036
671.24        64.36491
671.67        64.22198
672.09        64.26066
672.52        64.47283
672.94        64.52064
673.37         64.4108
673.80        64.40899
674.22        64.52829
674.65        64.57977
675.07        64.57497
675.50        64.58636
675.92         64.6116
676.35        64.59444
676.77        64.53487
677.20        64.46764
677.62        64.42765
678.05        64.39488
678.47        64.36274
678.90        64.57443
679.32        64.56509
679.75        64.67879
680.17        64.76408
680.60        64.85847
681.02        64.93114
681.45        64.87376
681.87        64.71783
682.30        64.60686
682.72        64.58102
683.15        64.52524
683.57        64.44689
684.00        64.58304
684.42          64.589
684.85        64.67191
685.27        64.71179
685.70        64.74573
686.12        64.75625
686.54        64.75163
686.97        64.72867
687.39        64.71269
687.82        64.71637
688.24         64.7328
688.66        64.74131
689.09        64.99947
689.51        64.99822
689.94        65.12784
690.36        65.21782
690.78        65.24994
691.21        65.22449
691.63        65.12262
692.06        65.00186
692.48        64.98845
692.90        65.06878
693.33        65.08346
693.75        65.03602
694.17        65.00124
694.60        64.96661
695.02        65.05068
695.44        64.98834
695.87        64.96152
696.29        64.94646
696.71        65.03922
697.14        65.20735
697.56        65.41219
697.98        65.63669
698.41        65.48691
698.83        65.61511
699.25        65.46758
699.68        65.27901
700.10        65.13928
700.52         65.0784
700.94        65.06657
701.37        65.06934
701.79        65.09198
702.21        65.10424
702.64        65.12017
703.06        65.14138
703.48        65.17361
703.90         65.2204
704.33        65.27336
704.75        65.32181
705.17         65.3313
705.59        65.29864
706.01        65.23109
706.44        65.17268
706.86        65.20959
707.28        65.34029
707.70        65.55221
708.12        65.78217
708.55        65.88861
708.97        65.85803
709.39        65.81027
709.81        65.77422
710.23        65.73172
710.66        65.70369
711.08        65.73176
711.50        65.78516
711.92        65.81174
712.34        65.80233
712.76        65.77146
713.19        65.73263
713.61         65.7535
714.03        65.81866
714.45        65.92651
714.87        66.04129
715.29         66.0641
715.71        65.97629
716.13        65.97599
716.56        65.78673
716.98        65.78224
717.40        65.87482
717.82        66.03961
718.24        66.22333
718.66          66.344
719.08        66.37959
719.50        66.35474
719.92        66.29605
720.34         66.2433
720.76        66.21468
721.19        66.19098
721.61        66.19546
722.03        66.23662
722.45        66.31364
722.87        66.42335
723.29        66.54832
723.71        66.65661
724.13        66.73557
724.55        66.78624
724.97        66.81151
725.39        66.82144
725.81        66.82023
726.23        66.80458
726.65        66.77584
727.07        66.74068
727.49        66.70505
727.91        66.66363
728.33        66.62351
728.75          66.624
729.17        66.65559
729.59        66.64733
730.01        66.62183
730.43        66.67222
730.85        66.79893
731.27        66.94339
731.69        67.08125
732.10        67.12018
732.52         67.2596
732.94        67.13301
733.36         66.8734
733.78        66.74028
734.20         66.7709
734.62        66.82509
735.04         66.8731
735.46        66.92255
735.88        66.96272
736.30        67.00713
736.72        67.03137
737.13        67.02994
737.55        66.97031
737.97        66.80841
738.39        66.63551
738.81        66.76043
739.23        67.13853
739.65        67.34307
740.06        67.29199
740.48        67.33931
740.90        67.44872
741.32        67.36237
741.74        67.22559
742.16        67.15488
742.57         67.2224
742.99        67.35288
743.41        67.48731
743.83        67.50731
744.25        67.39102
744.67        67.18118
745.08         66.9881
745.50        66.94835
745.92        67.10582
746.34         67.3993
746.75        67.71943
747.17        67.88901
747.59        67.86975
748.01        67.69352
748.42        67.43875
748.84        67.29758
749.26        67.28706
749.68         67.1907
750.09         67.0448
750.51        67.10198
750.93         67.3377
751.35        67.55759
751.76        67.70512
752.18        67.78296
752.60        67.76859
753.01        67.65374
753.43        67.44762
753.85        67.24662
754.27        67.08638
754.68        66.94669
755.10        66.86546
755.52        66.87762
755.93         66.9775
756.35        67.15929
756.77        67.38903
757.18        67.53484
757.60         67.5556
758.02        67.61717
758.43        67.76942
758.85        67.39498
759.26        67.60303
759.68        67.70418
760.10        67.36001
760.51        67.27491
760.93        68.01641
761.34        67.58875
761.76        67.49621
762.18         67.4837
762.59        67.84013
763.01        68.15169
763.42        67.49002
763.84        67.58705
764.26         67.8603
764.67        68.04315
765.09        68.05425
765.50        68.42496
765.92        68.98856
766.33        68.83097
766.75        68.05656
767.16        67.74025
767.58        67.92602
768.00        68.17515
768.41        68.36676
768.83        68.19318
769.24        67.72243
769.66        67.84734
770.07        67.76922
770.49        67.98014
770.90        68.14359
771.32        67.99889
771.73        67.66442
772.15        67.65414
772.56        68.02103
772.97        68.45107
773.39        68.78284
773.80        68.97755
774.22        68.95274
774.63        68.74897
775.05        68.45142
775.46        68.25626
775.88        68.19878
776.29        68.25826
776.70        68.36719
777.12        68.42093
777.53        68.41012
777.95         68.3709
778.36        68.33617
778.77         68.3427
779.19        68.40369
779.60        68.50084
780.02        68.62391
780.43        68.80206
780.84        69.02916
781.26        69.21343
781.67        69.35162
782.09        69.52035
782.50        69.65691
782.91        69.40252
783.33        69.09154
783.74        68.85126
784.15        68.79312
784.57        68.76137
784.98        68.75784
785.39         68.8203
785.81         68.9346
786.22        69.08363
786.63        69.24888
787.04        69.41991
787.46        69.59805
787.87        69.72053
788.28        69.77003
788.70        69.90205
789.11        69.80006
789.52        69.72723
789.93        69.64087
790.35        69.61136
790.76        69.66387
791.17        69.78748
791.58        69.94307
792.00        70.01138
792.41        69.99737
792.82         69.9938
793.23        70.05291
793.65        70.01153
794.06        69.96059
794.47        70.37666
794.88        71.13646
795.29        71.09693
795.71        71.29487
796.12        71.14679
796.53        71.01137
796.94        70.83763
797.35        70.66764
797.76         70.5192
798.18          70.405
798.59        70.34905
799.00        70.34869
799.41        70.41959
799.82        70.51065
800.23        70.52425
800.64        70.43995
801.06         70.2616
801.47        70.08787
801.88        70.00899
802.29        70.05224
802.70        70.18164
803.11         70.3519
803.52        70.48533
803.93        70.55975
804.34        70.60209
804.75        70.62439
805.17        70.66908
805.58        70.77886
805.99        70.81582
806.40        70.80901
806.81        71.05404
807.22        71.43059
807.63        71.38613
808.04         70.9921
808.45        70.86108
808.86        71.04114
809.27        71.17341
809.68        71.22639
810.09        71.30861
810.50        71.40624
810.91        71.50023
811.32        71.54393
811.73        71.46024
812.14        71.24255
812.55        70.91232
812.96        70.58952
813.37        70.47618
813.78         70.6158
814.19        70.95113
814.60        71.32044
815.01        71.46915
815.42        71.33797
815.83        70.99389
816.24        70.57887
816.65        70.36283
817.05         70.4437
817.46        70.71393
817.87        71.06776
818.28        71.30285
818.69        71.36554
819.10        71.31361
819.51        71.23782
819.92        71.29103
820.33        71.50772
820.74        71.81804
821.14        72.11423
821.55        72.26237
821.96        72.21835
822.37        72.03183
822.78        71.77728
823.19        71.58436
823.60        71.50117
824.00        71.50648
824.41        71.53252
824.82        71.53724
825.23        71.50104
825.64        71.45965
826.04        71.43142
826.45        71.39512
826.86        71.37219
827.27        71.36671
827.68         71.4103
828.08        71.58551
828.49         71.8268
828.90        72.14311
829.31        72.50445
829.72        72.79009
830.12        72.97471
830.53        73.35023
830.94        73.30669
831.35        73.20743
831.75        72.90294
832.16        72.41681
832.57        71.90445
832.97        71.61739
833.38        71.61454
833.79        71.81964
834.20        72.12884
834.60         72.3742
835.01        72.49806
835.42         72.5537
835.82        72.54046
836.23        72.40586
836.64        72.18573
837.04          71.904
837.45        71.63869
837.86         71.5864
838.26        71.79205
838.67        72.18037
839.08        72.65102
839.48        73.02006
839.89        73.21444
840.29        73.28193
840.70        73.25406
841.11        73.19193
841.51         73.1443
841.92        73.06009
842.33        72.97048
842.73        72.92895
843.14        72.90408
843.54        72.92726
843.95        72.98544
844.35        73.07331
844.76        73.17001
845.17        73.27604
845.57        73.38094
845.98         73.4325
846.38        73.45192
846.79        73.42789
847.19        73.40984
847.60        73.39671
848.00        73.43673
848.41        73.49609
848.81        73.62686
849.22        73.83308
849.62         74.1381
850.03        74.47137
850.43        74.81154
850.84        75.02565
851.24          75.133
851.65        75.09174
852.05         74.9599
852.46        74.74104
852.86        74.47399
853.27        74.21922
853.67        73.94059
854.07        73.72267
854.48        73.54234
854.88        73.42168
855.29         73.3265
855.69        73.36799
856.10        73.45883
856.50        73.66425
856.90        73.86118
857.31        73.90166
857.71         73.8081
858.12        73.54572
858.52        73.22474
858.92        72.96252
859.33        72.78848
859.73        72.73912
860.13        72.72672
860.54        72.60242
860.94         72.4013
861.34        72.12112
861.75        71.86839
862.15         71.8968
862.55        72.20053
862.96        72.67832
863.36        73.14124
863.76        73.23289
864.17        72.86767
864.57        72.18552
864.97        71.36885
865.38        70.71613
865.78        70.38923
866.18        70.30762
866.58        70.44878
866.99        70.72888
867.39         71.1172
867.79        71.60129
868.19        72.08814
868.60        72.36285
869.00        72.45573
869.40        72.54295
869.80        72.59106
870.21        72.40498
870.61        72.05737
871.01        71.65528
871.41        71.27612
871.81         70.9455
872.22        70.69595
872.62         70.5492
873.02        70.51495
873.42        70.73643
873.82        71.04444
874.22        70.99968
874.63        70.80166
875.03        70.86247
875.43        71.21124
875.83         72.3958
876.23         72.1932
876.63        71.75746
877.03        70.86047
877.44        69.04317
877.84         155.532
878.24        69.54513
878.64        70.20244
879.04        71.54111
879.44         72.0919
879.84        69.53093
880.24        73.46985
880.64        73.52862
881.04         71.5175
881.44        70.04097
881.84        69.58998
882.24        70.21689
882.65        71.30479
883.05        71.59835
883.45        70.83931
883.85        69.76898
884.25        68.85353
884.65        68.50479
885.05         68.8579
885.45        69.69554
885.85        70.64658
886.25        71.20707
886.65        71.24253
887.05        70.90279
887.45           70.36
887.85        69.90024
888.25        69.64253
888.65        69.51738
889.04        69.47694
889.44        69.45197
889.84        69.41927
890.24        69.41428
890.64        69.49828
891.04        69.74651
891.44        70.15714
891.84        70.69251
892.24         71.2037
892.64        71.44769
893.04         71.3659
893.44        71.02428
893.83        70.63324
894.23         70.4939
894.63        70.68348
895.03        71.12392
895.43        71.62251
895.83        71.85201
896.23        71.74265
896.63        71.40854
897.02         71.0387
897.42        70.97574
897.82        71.24725
898.22        71.73013
898.62         72.2377
899.01        72.48632
899.41        72.37187
899.81        72.00662
900.21        71.50468
900.61         71.0489
901.00        70.70753
901.40        70.50301
901.80        70.42564
902.20        70.35203
902.59        70.24579
902.99        70.34686
903.39        70.77403
903.79        70.33309
904.18        71.17062
904.58        71.50999
904.98        71.80235
905.38        71.71586
905.77        71.22295
906.17        70.46191
906.57        69.67513
906.96        69.35483
907.36        69.61166
907.76         70.3109
908.15        71.24924
908.55        71.92113
908.95        72.21444
909.34        72.21011
909.74        72.05708
910.14        71.96272
910.53        71.99768
910.93        72.08134
911.33        72.11707
911.72        71.96521
912.12        71.61498
912.52        71.13615
912.91        70.65474
913.31        70.43435
913.70        70.50475
914.10        70.79369
914.49        71.15776
914.89        71.26663
915.29        71.06789
915.68        70.63442
916.08        70.17773
916.47        69.98454
916.87        70.15257
917.26        70.58894
917.66        71.09641
918.05        71.37962
918.45        71.34267
918.84        71.08479
919.24        70.79139
919.64         70.8231
920.03        71.25624
920.42        71.94965
920.82        72.63475
921.21        72.90948
921.61        72.70369
922.00        72.20425
922.40        71.70987
922.79        71.58897
923.19        71.63834
923.58        72.41226
923.98        73.98865
924.37        74.20052
924.77        71.92081
925.16        77.85246
925.55        72.77321
925.95        72.85974
926.34        72.66126
926.74        72.00427
927.13        70.87728
927.52        70.23912
927.92        70.48196
928.31        71.06394
928.70          71.826
929.10         72.4668
929.49        72.92017
929.89        73.28305
930.28        73.47294
930.67        73.24886
931.07         72.6219
931.46        71.56749
931.85        70.50397
932.24        70.51042
932.64        71.73066
933.03        73.37002
933.42        74.54577
933.82        76.52926
934.21        75.09103
934.60        73.57806
934.99        71.94868
935.39        71.43038
935.78        72.16319
936.17        74.27781
936.56        79.76194
936.96        74.61601
937.35        77.40785
937.74         74.4887
938.13        72.13986
938.53        70.38377
938.92        69.96455
939.31         71.1635
939.70        72.81141
940.09         73.7205
940.49        73.62156
940.88        72.96573
941.27        72.06955
941.66        71.51656
942.05        71.55385
942.44        71.91502
942.84         72.4148
943.23        72.90982
943.62        73.30217
944.01        73.64069
944.40        73.93952
944.79        74.18621
945.18        74.36346
945.57        74.45822
945.97        74.35753
946.36        74.01211
946.75        73.39799
947.14        72.56631
947.53        71.75173
947.92         71.3543
948.31        71.46658
948.70        71.96192
949.09        72.56999
949.48        72.85678
949.87        72.71864
950.26        72.30507
950.65        71.76061
951.04         71.3267
951.43        71.10184
951.82        70.99459
952.21        71.04584
952.60        71.33501
952.99        71.81694
953.38        72.43999
953.77        73.01465
954.16        73.25374
954.55        73.11606
954.94        72.69936
955.33        72.12357
955.72        71.64304
956.11         71.3685
956.50         71.2054
956.89         71.2234
957.28        71.51573
957.66        72.07496
958.05        72.81993
958.44        73.44822
958.83        73.47513
959.22        72.82127
959.61        71.58375
960.00         70.1954
960.39        69.52222
960.78        69.83058
961.16        70.88526
961.55        72.09551
961.94        72.74727
962.33        72.69891
962.72         72.1437
963.11        71.42907
963.49         71.2605
963.88        71.81563
964.27         72.7873
964.66        73.74976
965.04        74.16158
965.43        73.86086
965.82         73.0966
966.21         72.0767
966.60        71.16332
966.98        70.54042
967.37        70.10941
967.76        69.90868
968.15        69.98915
968.53        70.33721
968.92        70.92101
969.31        71.57439
969.69        71.98957
970.08        72.04718
970.47        71.80402
970.86        71.40178
971.24         71.1328
971.63        71.07329
972.02        71.14381
972.40        71.27293
972.79        71.26481
973.17        71.13148
973.56         70.9592
973.95        70.81859
974.33        70.80826
974.72        70.95403
975.11        71.19764
975.49        71.62014
975.88        72.28809
976.26        73.22708
976.65         74.2805
977.04        75.22883
977.42        75.73338
977.81        75.67776
978.19        75.11884
978.58        74.39554
978.96        74.08926
979.35        74.35138
979.74        74.99125
980.12        75.69716
980.51        75.87445
980.89        75.53884
981.28        74.77824
981.66        73.82877
982.05        73.29228
982.43        73.39413
982.82        73.98212
983.20        74.76488
983.59        75.26347
983.97        75.38816
984.35        75.21436
984.74        74.86564
985.12        74.65904
985.51        74.65506
985.89        74.83974
986.28        75.00824
986.66        74.91537
987.04        74.56873
987.43        73.95659
987.81        73.19299
988.20        73.72501
988.58        75.75228
988.96        76.80099
989.35        76.04759
989.73        80.90134
990.12        77.99448
990.50        77.61584
990.88        76.51454
991.27        75.75322
991.65        75.51013
992.03        75.78555
992.42        76.42754
992.80        76.70928
993.18        76.43925
993.56        75.85242
993.95        75.19955
994.33        74.83924
994.71        74.89784
995.10        75.23598
995.48        75.70653
995.86        76.07322
996.24        76.24996
996.63        76.22367
997.01        76.21381
997.39        76.36058
997.77        76.66514
998.15        77.05209
998.54          77.364
998.92        77.25145
999.30        76.70023
999.68        75.85831
1000.06        74.95039
1000.45        74.39521
1000.83        74.50081
1001.21        75.10587
1001.59        76.15868
1001.97        77.56142
1002.35        79.10219
1002.73        80.63181
1003.12        81.91006
1003.50        82.69086
1003.88         82.9541
1004.26        82.80254
1004.64        82.23106
1005.02        81.30107
1005.40        80.12648
1005.78        78.71623
1006.16        77.46166
1006.54        76.94231
1006.92        77.26435
1007.30        78.34444
1007.69        79.53357
1008.07         79.9249
1008.45        79.31221
1008.83        77.90599
1009.21          76.382
1009.59        76.17629
1009.97        77.57602
1010.35        79.80177
1010.73        82.02291
1011.11        83.60715
1011.49        84.57428
1011.86        85.00696
1012.24        84.76002
1012.62        85.66426
1013.00        85.86739
1013.38        85.22282
1013.76        82.93086
1014.14        85.47715
1014.52        89.89873
1014.90         84.5526
1015.28        85.81445
1015.66        87.01556
1016.04        84.49117
1016.41        84.47213
1016.79        83.55707
1017.17        83.00842
1017.55         82.4514
1017.93         81.9983
1018.31        81.98563
1018.69        82.52158
1019.06        83.60925
1019.44        85.09014
1019.82        86.36853
1020.20        86.64165
1020.58        85.74884
1020.95        83.58687
1021.33        80.77882
1021.71        79.43591
1022.09        80.55747
1022.46         83.1356
1022.84        85.60352
1023.22        86.74524
1023.60        86.61086
1023.97        85.66653
1024.35        84.34331
1024.73        83.52063
