SpectraSmart Spectrum 2.9.0.0
--------- Device Information -----------
Spectrum Name :  反射率_0
Saving Time :  2024/04/21 00:33:21
Spectro-Module Model Name : SE2030-DUVN
Spectro-Module Serial Number : OS361AC55029948
Wavelength Start : 200
Wavelength End : 1025
Wavelength Unit : Wavelength(nm)
Spectrum Unit : Reflectance(%)
-----------Spectrum Setting ------------
Integration Time : 20ms
Average : 10
Boxcar : 0
Background removal :  enabled
linearity correction :  enabled
SC :  disabled
Intensity correction :  disabled
DWT denoise :  enabled
savitzky-golay :  disabled
FFT :  disabled
Running average :  disabled
Kalman :  disabled
High pass :  disabled
---------------BEGIN--------------------
Wavelength(nm)             Reflectance(%)
200.29               0
200.75       -17.91249
201.21       -5.269234
201.67       0.3144282
202.13        2.907424
202.58         3.99307
203.04        4.760285
203.50         6.06202
203.96        8.511745
204.42        11.41175
204.88        13.73906
205.34        14.31168
205.80        11.08727
206.26        3.516906
206.72       -6.745026
207.18       -19.90462
207.64       -35.06698
208.10        -47.5846
208.55       -56.89838
209.01       -48.87823
209.47       -15.09392
209.93        19.07867
210.39        43.43192
210.85         57.9275
211.31        64.03153
211.77        64.36257
212.23        59.57888
212.69        47.17433
213.14        24.77938
213.60       -13.98851
214.06       -120.8201
214.52        -352.726
214.98       -134.1311
215.44       -9.812662
215.90        31.31755
216.36        43.57771
216.81        40.74467
217.27        21.63186
217.73       -67.44378
218.19        998.7881
218.65        437.8289
219.11       -950.5878
219.57       -35.95186
220.02        23.07578
220.48        34.97409
220.94        32.49482
221.40        16.54757
221.86       -23.42754
222.32       -48.48385
222.77       -11.13526
223.23        20.53998
223.69        35.88768
224.15        40.03963
224.61        38.15295
225.06        33.35805
225.52        27.07582
225.98        21.24215
226.44        17.04745
226.90        13.08059
227.36        11.97954
227.81        17.62098
228.27        26.38515
228.73        34.74155
229.19         39.8564
229.65        40.19218
230.10        36.46567
230.56        29.93108
231.02        21.46613
231.48        15.15767
231.93        14.40175
232.39        17.94974
232.85        22.63094
233.31        25.55022
233.77        26.71703
234.22        27.43999
234.68        27.52008
235.14        26.49264
235.60          24.591
236.05        21.04042
236.51        16.50043
236.97        18.82598
237.43        29.12251
237.88        35.98277
238.34        34.54396
238.80        57.63974
239.26        45.35426
239.71        41.35477
240.17        29.82871
240.63        18.37129
241.08        12.54774
241.54        16.69877
242.00        29.55824
242.46        36.00183
242.91        31.46718
243.37         16.2622
243.83       -6.019823
244.28          -18.21
244.74         -9.9048
245.20        9.573526
245.66        28.26209
246.11        34.85057
246.57        28.31102
247.03        12.42058
247.48        -8.78646
247.94       -28.26037
248.40       -45.56439
248.85       -73.89009
249.31       -138.2525
249.77       -155.7398
250.22       -48.60181
250.68       -12.70785
251.14       -2.896233
251.59       -1.136908
252.05       -2.776444
252.51       -6.471975
252.96       -12.77701
253.42        -18.0749
253.88       -18.13336
254.33       -13.47652
254.79       -2.833659
255.25        12.17568
255.70        26.28713
256.16        37.02254
256.62        43.62066
257.07        45.91659
257.53        45.70506
257.99        44.29937
258.44        42.42425
258.90        41.19275
259.35        40.28296
259.81        39.65937
260.27        39.14536
260.72        38.66607
261.18        38.36539
261.63         38.0503
262.09        37.66129
262.55        36.85917
263.00        35.65092
263.46        34.33694
263.91        33.03644
264.37        32.21515
264.83        31.83505
265.28        31.68871
265.74        31.66629
266.19          31.512
266.65        31.19614
267.11        30.74825
267.56         30.1458
268.02        29.42236
268.47         28.5696
268.93        27.62831
269.38        26.62575
269.84        25.66156
270.30        24.77141
270.75        23.95468
271.21        23.26895
271.66        22.73559
272.12        22.35838
272.57        22.09738
273.03        21.88714
273.48        21.60982
273.94        21.25214
274.39        20.82991
274.85        20.38699
275.31        19.94307
275.76        19.51597
276.22        19.12243
276.67        18.79691
277.13        18.64014
277.58        18.61701
278.04        18.68887
278.49        18.73709
278.95        18.64487
279.40        18.36117
279.86        17.95906
280.31        17.46459
280.77         16.9765
281.22        16.51501
281.68        16.11719
282.13        15.77005
282.59        15.50848
283.04        15.31647
283.50        15.18849
283.95        15.15285
284.41        15.25792
284.86        15.48374
285.32        15.80966
285.77        16.09692
286.22        16.15022
286.68        15.97228
287.13        15.60263
287.59        15.26847
288.04        15.21777
288.50        15.46029
288.95        16.04266
289.41        16.80692
289.86        17.00198
290.32         16.4875
290.77        17.44976
291.22        16.46952
291.68        16.59221
292.13        16.83411
292.59        17.23429
293.04        17.74557
293.50        18.37443
293.95        19.12371
294.40        19.96726
294.86        20.88544
295.31        21.82826
295.77        22.78296
296.22        23.76017
296.68        24.76078
297.13        25.78675
297.58         26.8647
298.04        27.99784
298.49        29.25236
298.95        30.74897
299.40        32.46896
299.85        34.35843
300.31        36.27124
300.76         37.9691
301.21        39.41578
301.67         40.7175
302.12        41.98384
302.58        43.46767
303.03        45.21336
303.48        47.19266
303.94        49.34958
304.39        51.55147
304.84        53.74536
305.30        55.95474
305.75        58.14519
306.20        60.35955
306.66        62.58281
307.11        64.73774
307.57        66.77676
308.02        68.58064
308.47        70.16381
308.93        71.61695
309.38        72.98758
309.83        74.38021
310.29        75.91685
310.74        77.46311
311.19        79.01724
311.65        80.51946
312.10        81.92445
312.55        83.25363
313.00        84.46938
313.46        85.51518
313.91        86.37653
314.36        87.08172
314.82        87.71488
315.27        88.40785
315.72         89.2012
316.18        90.06255
316.63        90.93169
317.08        91.70694
317.53         92.3513
317.99        92.89015
318.44        93.34693
318.89        93.74618
319.35        94.10197
319.80        94.41288
320.25        94.68776
320.70        94.95033
321.16        95.20119
321.61        95.45834
322.06        95.72061
322.51        95.98694
322.97        96.24377
323.42         96.5276
323.87        96.81435
324.32        97.07983
324.78        97.30391
325.23        97.52735
325.68        97.76151
326.13        98.05775
326.59        98.39797
327.04        98.80511
327.49        99.22235
327.94        99.58846
328.39        99.88338
328.85        100.1022
329.30        100.3052
329.75        100.4696
330.20         100.611
330.66        100.6981
331.11        100.8502
331.56        101.1366
332.01        101.5758
332.46        102.1449
332.92        102.7138
333.37        103.1903
333.82        103.4897
334.27        103.6586
334.72        103.7838
335.17        104.0185
335.63        104.3816
336.08        104.8801
336.53         105.445
336.98        106.0071
337.43        106.5308
337.88        107.0348
338.34        107.4811
338.79        107.8594
339.24        108.1498
339.69        108.3652
340.14        108.5519
340.59        108.7913
341.05        109.1154
341.50        109.5209
341.95         109.994
342.40        110.5092
342.85        111.0453
343.30        111.5933
343.75        112.1338
344.20        112.6429
344.66        113.1114
345.11        113.5131
345.56        113.8274
346.01        114.0307
346.46        114.1316
346.91        114.1364
347.36        114.0855
347.81        114.0811
348.26        114.1584
348.72        114.1558
349.17        114.3368
349.62        114.4417
350.07        114.5509
350.52        114.6532
350.97        114.7635
351.42        114.9011
351.87        115.0462
352.32        115.1717
352.77        115.2134
353.22        115.0787
353.67        114.7592
354.13        114.3143
354.58        113.7797
355.03        113.2711
355.48        112.8282
355.93        112.4175
356.38        112.0552
356.83        111.7575
357.28        111.5028
357.73        111.2854
358.18         111.001
358.63        110.4819
359.08        109.7141
359.53        108.7628
359.98        107.7803
360.43        107.0012
360.88        106.4742
361.33        106.1217
361.78        105.8366
362.23        105.4447
362.68        104.8937
363.13        104.2445
363.58        103.5264
364.03        102.7825
364.48        102.0369
364.93        101.2673
365.38        100.5117
365.83        99.84261
366.28        99.26548
366.73        98.75714
367.18         98.2545
367.63        97.64996
368.08        96.92223
368.53        96.11684
368.98        95.26364
369.43        94.40005
369.88        93.54327
370.33        92.67564
370.78        91.84326
371.23        91.14215
371.68        90.59261
372.13        90.16893
372.58        89.78915
373.03        89.30445
373.48        88.67496
373.93        87.95071
374.38        87.17645
374.83        86.44208
375.28        85.79367
375.72         85.1862
376.17        84.67829
376.62        84.28632
377.07        83.98399
377.52        83.74753
377.97        83.48357
378.42        83.04772
378.87        82.42397
379.32        81.67358
379.77        80.89174
380.22        80.20197
380.67        79.62721
381.11        79.13564
381.56        78.68835
382.01        78.24266
382.46         77.7945
382.91        77.37051
383.36        76.97593
383.81        76.61016
384.26        76.26598
384.71        75.92742
385.15        75.57877
385.60        75.26576
386.05        74.96484
386.50        74.67112
386.95        74.35668
387.40        73.98712
387.85        73.57294
388.29        73.09212
388.74        72.68106
389.19        72.34042
389.64        72.06338
390.09        71.81867
390.54        71.58504
390.98        71.31864
391.43        71.05888
391.88        70.81724
392.33        70.57543
392.78        70.34464
393.23        70.13369
393.67        69.78742
394.12        69.45686
394.57        69.45824
395.02        69.66598
395.47        69.44285
395.91        68.84059
396.36        68.47147
396.81        68.39156
397.26         68.2766
397.71         68.0692
398.15        67.83506
398.60        67.65064
399.05        67.32874
399.50        66.99171
399.95        67.08911
400.39        67.50702
400.84        67.51694
401.29        67.10331
401.74        66.79484
402.18        66.64597
402.63        66.41788
403.08        66.10702
403.53        65.78832
403.97        65.47906
404.42        65.21721
404.87        65.03554
405.32        64.94984
405.76        64.93777
406.21         65.0534
406.66          65.202
407.11        65.08801
407.55           64.75
408.00        64.57037
408.45        64.56846
408.90        64.27795
409.34        63.79993
409.79        63.75015
410.24         64.0617
410.68        64.20011
411.13        64.13119
411.58        64.13044
412.03        64.19269
412.47        64.19908
412.92        64.12132
413.37        64.00061
413.81        63.86566
414.26        63.81521
414.71        63.84668
415.15        63.94914
415.60         64.0507
416.05          64.083
416.49        64.02878
416.94        63.90609
417.39        63.76188
417.83        63.66174
418.28        63.62314
418.73        63.61396
419.17        63.61697
419.62        63.61634
420.07        63.61003
420.51        63.61082
420.96        63.61572
421.41        63.60759
421.85        63.56451
422.30        63.41969
422.74        63.24112
423.19        63.45878
423.64        63.97509
424.08        64.24516
424.53        64.13702
424.98        64.11635
425.42         64.2128
425.87        63.92425
426.31        63.44826
426.76        63.66811
427.21        64.44204
427.65        64.64048
428.10        64.23512
428.54        64.14452
428.99         64.4028
429.44        64.53657
429.88        64.49724
430.33        64.36141
430.77        64.17525
431.22        64.33659
431.66        64.75214
432.11        64.98148
432.56        64.99843
433.00        64.89905
433.45        64.57888
433.89        64.52152
434.34        64.88717
434.78        64.10475
435.23        64.28723
435.67        65.15451
436.12        65.14394
436.57        65.27821
437.01        65.06358
437.46        64.84503
437.90        65.31656
438.35        65.48434
438.79        65.61598
439.24        65.69705
439.68        65.76193
440.13        65.78544
440.57        65.78523
441.02        65.89329
441.46        66.08171
441.91        66.16965
442.35        66.12225
442.80        66.44412
443.24        67.00697
443.69         67.1231
444.13        66.72791
444.58        66.80369
445.02        66.37767
445.47        66.43211
445.91        66.61305
446.36        66.71207
446.80        66.70166
447.24        66.70961
447.69        66.77657
448.13        67.04308
448.58        67.25947
449.02        67.26643
449.47        67.05622
449.91        66.98683
450.36        67.10013
450.80        67.11467
451.25         67.0648
451.69        67.17427
452.13         67.3894
452.58        67.37254
453.02         67.1404
453.47        67.01875
453.91        67.00984
454.36        66.94469
454.80        66.80775
455.24        66.66994
455.69        66.55141
456.13        66.41587
456.58        66.29623
457.02        66.26849
457.46        65.99237
457.91        66.12737
458.35        66.25496
458.79        66.29697
459.24        66.16749
459.68        66.04848
460.13        66.02844
460.57        65.85633
461.01        65.51728
461.46        65.90483
461.90        65.64297
462.34        65.45053
462.79        65.26411
463.23        65.41774
463.68         65.8418
464.12        65.60493
464.56         64.8769
465.01        64.89244
465.45        65.43374
465.89         65.4539
466.34        65.02209
466.78        64.76072
467.22        64.71787
467.67        64.94003
468.11        64.70774
468.55        64.70547
468.99        64.69592
469.44        64.64595
469.88        64.54404
470.32        64.37632
470.77        64.19307
471.21        64.07631
471.65        64.04577
472.10        64.08379
472.54        64.12261
472.98        64.10143
473.42        64.02338
473.87        63.83879
474.31        63.58208
474.75        63.63703
475.20        63.99736
475.64        63.76633
476.08        63.97838
476.52        63.91499
476.97        63.83496
477.41        63.77141
477.85        63.81855
478.29        63.45174
478.74        63.37185
479.18        63.97059
479.62        63.55204
480.06        63.58289
480.50        63.74358
480.95        63.73487
481.39        63.53496
481.83        63.74731
482.27        64.12376
482.72        63.44656
483.16        63.88671
483.60        64.05739
484.04        64.25739
484.48         63.8417
484.93        63.48382
485.37        63.97253
485.81         63.9596
486.25        63.67965
486.69        64.67621
487.14        64.13259
487.58        63.88003
488.02        63.23841
488.46         63.5883
488.90        63.62711
489.34        63.66562
489.79        63.02644
490.23        63.51036
490.67        63.58212
491.11        63.71392
491.55        63.67636
491.99        63.51149
492.43        63.45005
492.88        63.48818
493.32        63.51224
493.76        63.47206
494.20        63.47038
494.64        63.53468
495.08        63.30982
495.52        63.32104
495.96        63.42517
496.41        63.67022
496.85        63.56062
497.29        63.15216
497.73         63.2174
498.17         63.3645
498.61        63.48202
499.05        63.39256
499.49        63.00945
499.93        62.55487
500.37        62.71443
500.82         63.3651
501.26        63.71688
501.70        63.65915
502.14        63.17819
502.58        62.92852
503.02        62.73258
503.46        62.73809
503.90        62.83277
504.34        62.93966
504.78        63.04356
505.22        63.13526
505.66        63.13441
506.10        63.02745
506.54        63.07011
506.98        63.32376
507.42        62.63131
507.86        63.07769
508.30        62.82961
508.74        62.85614
509.18        62.80601
509.62        62.79657
510.06        62.83162
510.50         62.8687
510.94        62.84726
511.38        62.76179
511.82        62.68538
512.26        62.62253
512.70        62.53182
513.14        62.42694
513.58         62.3513
514.02        62.31372
514.46        62.30614
514.90        62.31152
515.34        62.33586
515.78        62.37634
516.22        62.40454
516.66        62.26823
517.10        62.54869
517.54        62.39091
517.98        62.45298
518.42        62.47318
518.86        62.46003
519.30        62.41317
519.74        62.30666
520.18         62.1912
520.62        62.22076
521.06        62.35994
521.50        62.36629
521.93        62.24869
522.37        62.21914
522.81        62.28337
523.25        62.31654
523.69         62.2979
524.13        62.25354
524.57        62.18488
525.01        62.09002
525.45        62.00249
525.89        61.97538
526.32         62.0176
526.76        62.11867
527.20        62.24685
527.64        62.35186
528.08        62.41547
528.52        62.45045
528.96        62.46655
529.40        62.47363
529.83        62.47345
530.27        62.48787
530.71        62.49736
531.15        62.47136
531.59        62.40865
532.03        62.32855
532.46        62.24193
532.90        62.17768
533.34         62.1388
533.78        62.11938
534.22        62.11096
534.66         62.0987
535.09        62.07054
535.53        62.05436
535.97        62.03823
536.41        62.02097
536.85        62.00289
537.28        61.97873
537.72        61.96421
538.16        61.98723
538.60        62.04687
539.04        62.13445
539.47        62.19669
539.91        62.20527
540.35         62.1381
540.79        62.01526
541.22        61.88052
541.66        61.81875
542.10         61.8439
542.54        61.92909
542.97        62.02819
543.41        62.09957
543.85        62.12493
544.29         62.1335
544.72        62.12313
545.16        62.14565
545.60        62.19505
546.04         62.1759
546.47        62.13031
546.91        62.26834
547.35        62.49886
547.79        62.53634
548.22        62.35093
548.66        62.03171
549.10        61.71556
549.53        61.72661
549.97        62.01792
550.41        62.11439
550.84        61.96925
551.28        61.91494
551.72        61.98751
552.15        61.97343
552.59        61.86067
553.03        62.16699
553.46        62.04275
553.90        62.05696
554.34        61.94134
554.77        61.94024
555.21        61.72796
555.65        61.75624
556.08        61.89738
556.52        62.12285
556.96        62.33661
557.39        62.32277
557.83        62.14202
558.27         62.1204
558.70        62.25788
559.14        62.22684
559.57        62.03516
560.01        62.07645
560.45        62.26191
560.88        62.11573
561.32         61.7661
561.75        61.63445
562.19        61.77803
562.63        61.98423
563.06        62.16055
563.50        62.19587
563.93         62.0812
564.37        61.97754
564.80        61.91819
565.24        61.99052
565.68        62.15778
566.11        62.22741
566.55        62.20372
566.98        62.25021
567.42        62.34805
567.85        62.24967
568.29        62.06847
568.72        62.03214
569.16        62.14774
569.60        62.42298
570.03        62.32572
570.47        62.43149
570.90        62.52962
571.34        62.66391
571.77        62.68563
572.21        62.72543
572.64        62.44303
573.08        62.38176
573.51        62.47789
573.95        62.85601
574.38        62.52358
574.82        62.96951
575.25        62.79567
575.69        62.68673
576.12         62.6072
576.56        62.50033
576.99        62.50403
577.42        62.68452
577.86        62.48191
578.29        63.06501
578.73        63.34741
579.16        63.20317
579.60         62.7667
580.03        62.93501
580.47        62.89841
580.90        62.69934
581.33        62.86701
581.77        62.94338
582.20        63.47916
582.64        63.28476
583.07         63.1649
583.51        62.82381
583.94        62.42344
584.37        62.28412
584.81        62.42382
585.24        62.53638
585.68        62.99902
586.11         62.7446
586.54         62.8369
586.98        62.90157
587.41        62.63727
587.85        62.92244
588.28        62.58052
588.71         63.1364
589.15        62.73276
589.58        62.42595
590.01        62.48576
590.45        62.40071
590.88        62.82663
591.31        62.57432
591.75        62.56128
592.18        62.38554
592.61        62.24434
593.05        62.82663
593.48        62.95093
593.91        62.79801
594.35        62.68457
594.78        62.73987
595.21        62.75278
595.65        62.76894
596.08        62.65373
596.51        62.79162
596.94        62.61115
597.38        62.57408
597.81        62.54032
598.24        62.56789
598.68        62.67714
599.11        62.44133
599.54        62.72144
599.97        62.74576
600.41        62.57508
600.84        63.05714
601.27        62.72896
601.70        62.90709
602.14        62.66243
602.57        62.28664
603.00        62.56775
603.43        62.57602
603.87        62.71835
604.30        62.71543
604.73         62.6223
605.16         62.2426
605.60        62.86624
606.03        62.88594
606.46        62.73831
606.89         62.4056
607.32          62.452
607.76        62.76157
608.19        62.81125
608.62        62.38562
609.05        63.14762
609.48        62.76701
609.92        62.94857
610.35        62.90513
610.78        63.01009
611.21        62.48354
611.64        62.83281
612.07        62.81738
612.50        62.85633
612.94         62.8154
613.37        62.69961
613.80        62.83818
614.23        62.67147
614.66        62.60821
615.09        62.51257
615.52        62.56594
615.96        62.73155
616.39        62.75446
616.82        62.60807
617.25        62.67725
617.68        62.50935
618.11        62.42235
618.54        62.47355
618.97        62.41689
619.40        62.28252
619.84        62.47063
620.27        62.39151
620.70        62.48084
621.13        62.54721
621.56        62.60321
621.99        62.71822
622.42        62.76908
622.85        62.48026
623.28        62.52819
623.71        62.45033
624.14        62.57438
624.57        62.57692
625.00        63.14644
625.43        62.49014
625.86        62.45169
626.29        62.58318
626.72        62.22925
627.15        62.30481
627.58        62.28609
628.01        62.49161
628.44        62.26348
628.87        62.34408
629.30        62.59549
629.73        62.54171
630.16          62.436
630.59        62.31585
631.02        62.55935
631.45          62.325
631.88        62.33928
632.31        62.36057
632.74        62.09515
633.17        62.17684
633.60        62.07176
634.03        61.98086
634.46        61.94402
634.89        61.88663
635.32        61.92159
635.75        62.01129
636.18        62.14904
636.61        62.28496
637.04        62.34344
637.47         62.3088
637.89        62.20856
638.32        62.07568
638.75        61.99232
639.18        61.98233
639.61        62.02487
640.04        62.09464
640.47         62.1502
640.90         62.1757
641.33        62.18197
641.76         62.1797
642.18        62.19081
642.61         62.2061
643.04        62.22722
643.47        62.23772
643.90        62.21801
644.33         62.1677
644.76        62.08382
645.18        62.00269
645.61        62.00233
646.04        62.07864
646.47        62.15398
646.90        62.20372
647.33        62.23693
647.75        62.23684
648.18        62.21416
648.61        62.19595
649.04        62.17073
649.47        62.13497
649.89        62.38229
650.32        62.23533
650.75        62.42112
651.18        62.64472
651.61        62.48196
652.03        62.02867
652.46        61.85263
652.89        61.99963
653.32         62.1079
653.74        62.14298
654.17        62.12924
654.60        62.01183
655.03        62.09187
655.46        61.95172
655.88        62.46492
656.31         63.4274
656.74        66.35877
657.16        64.73485
657.59        63.64794
658.02        62.43005
658.45        62.57273
658.87        62.30651
659.30        62.12931
659.73        62.51728
660.15        61.95382
660.58        62.27594
661.01        62.40415
661.44        62.69655
661.86        62.61698
662.29        62.22603
662.72        62.02369
663.14        62.07427
663.57        62.20041
664.00        62.34174
664.42         62.4317
664.85        62.45548
665.27        62.35527
665.70        62.35331
666.13        62.29654
666.55         62.2606
666.98        62.23361
667.41        62.20623
667.83         62.1708
668.26        62.13749
668.69         62.0594
669.11        61.94543
669.54        62.02659
669.96        62.35492
670.39         62.0293
670.82        62.50769
671.24         62.5283
671.67        62.50177
672.09        62.42242
672.52        62.34613
672.94        62.22292
673.37        62.10133
673.80        62.13943
674.22         62.3073
674.65        62.36494
675.07        62.30889
675.50        62.25315
675.92        62.22338
676.35        62.19273
676.77        62.16834
677.20        62.16607
677.62        62.21247
678.05        62.27167
678.47        62.32677
678.90        62.64133
679.32        62.69072
679.75        62.79197
680.17        62.78651
680.60        62.70384
681.02        62.58652
681.45        62.50864
681.87        62.50101
682.30        62.53112
682.72        62.58529
683.15        62.60962
683.57        62.57046
684.00         62.5815
684.42        62.35065
684.85        62.32827
685.27        62.41824
685.70        62.56049
686.12        62.68675
686.54        62.74708
686.97        62.72042
687.39        62.66515
687.82        62.61441
688.24        62.58369
688.66        62.56613
689.09        62.80215
689.51        62.80432
689.94        62.95712
690.36        63.09259
690.78        63.18925
691.21        63.22717
691.63        63.15651
692.06        63.02731
692.48        62.96685
692.90        62.99115
693.33        63.00035
693.75        63.00784
694.17        63.05701
694.60        63.10321
695.02        63.23208
695.44        63.15623
695.87        63.02232
696.29        62.85355
696.71        62.82649
697.14        62.95079
697.56        63.24898
697.98        63.61855
698.41        63.53306
698.83        63.59812
699.25        63.35765
699.68        63.08112
700.10        62.89571
700.52        62.84719
700.94         62.8878
701.37        62.96017
701.79        63.03057
702.21        63.05562
702.64         63.0648
703.06        63.05818
703.48        63.03806
703.90        63.01387
704.33        62.97691
704.75        62.94622
705.17        62.93785
705.59        62.95763
706.01        62.99926
706.44        63.06379
706.86        63.16772
707.28        63.29184
707.70        63.42892
708.12        63.55606
708.55        63.62975
708.97         63.6348
709.39        63.59112
709.81        63.52008
710.23        63.46634
710.66        63.44884
711.08        63.46948
711.50        63.49997
711.92        63.51094
712.34        63.49578
712.76        63.46304
713.19        63.42531
713.61        63.44899
714.03        63.51846
714.45        63.63012
714.87        63.75354
715.29        63.79937
715.71        63.74857
716.13        63.79081
716.56        63.64354
716.98        63.64183
717.40        63.69799
717.82        63.79946
718.24        63.91809
718.66         64.0131
719.08        64.07239
719.50        64.10433
719.92        64.12082
720.34        64.13907
720.76        64.16419
721.19        64.18058
721.61        64.19916
722.03        64.20908
722.45        64.21159
722.87        64.21582
723.29        64.22711
723.71        64.25125
724.13        64.29111
724.55        64.34087
724.97        64.40784
725.39        64.50479
725.81        64.62579
726.23        64.75894
726.65        64.87335
727.07        64.92649
727.49         64.9128
727.91        64.83756
728.33        64.72956
728.75        64.67167
729.17        64.66753
729.59        64.62815
730.01        64.57703
730.43        64.61239
730.85        64.73213
731.27        64.87969
731.69        65.00849
732.10        64.99778
732.52        65.03488
732.94        64.76147
733.36        64.35479
733.78        64.16808
734.20         64.2595
734.62        64.45578
735.04        64.67415
735.46         64.8427
735.88        64.92231
736.30        64.94122
736.72        64.90678
737.13        64.85475
737.55        64.76632
737.97        64.62862
738.39        64.49345
738.81        64.49906
739.23        64.63651
739.65        64.77138
740.06        64.82569
740.48         64.8972
740.90         64.9453
741.32        64.91507
741.74        64.84942
742.16        64.86829
742.57        65.00178
742.99        65.18825
743.41        65.37718
743.83        65.47193
744.25        65.45035
744.67        65.34141
745.08        65.22176
745.50        65.17348
745.92        65.23891
746.34        65.39292
746.75        65.56966
747.17        65.65874
747.59        65.63756
748.01        65.50774
748.42         65.3576
748.84        65.36443
749.26        65.52029
749.68         65.6909
750.09        65.80463
750.51        65.74161
750.93         65.5593
751.35        65.56162
751.76        65.72561
752.18         65.7327
752.60        65.57626
753.01        65.47161
753.43        65.40862
753.85        65.32657
754.27        65.23436
754.68         65.1495
755.10        65.11007
755.52        65.15329
755.93        65.27917
756.35        65.47054
756.77        65.68156
757.18        65.82063
757.60         65.8648
758.02        65.86143
758.43         65.8641
758.85        65.73173
759.26        66.08974
759.68        66.10406
760.10        65.23344
760.51        65.39414
760.93        65.94866
761.34        66.07409
761.76        66.05019
762.18        65.93444
762.59        65.86938
763.01        66.07469
763.42        65.67205
763.84        65.77535
764.26        65.77801
764.67         65.9126
765.09        66.06489
765.50        66.27518
765.92        66.50651
766.33        66.52853
766.75         66.3498
767.16        66.29993
767.58        66.34723
768.00        66.40638
768.41         66.4679
768.83        66.34293
769.24        66.06705
769.66         66.2928
770.07        66.16237
770.49        66.33451
770.90        66.48512
771.32        66.37273
771.73        66.08337
772.15         66.0155
772.56        66.21928
772.97        66.47135
773.39        66.65239
773.80        66.74408
774.22        66.68383
774.63        66.50511
775.05        66.29475
775.46        66.24432
775.88        66.37141
776.29        66.64513
776.70         66.9326
777.12        67.02543
777.53        66.89255
777.95        66.59811
778.36        66.25869
778.77        66.05058
779.19        66.03277
779.60        66.16322
780.02        66.37549
780.43        66.60767
780.84        66.82845
781.26        66.95682
781.67        67.04989
782.09        67.32351
782.50         67.6682
782.91        67.66978
783.33        67.34821
783.74        67.16232
784.15        67.11825
784.57        67.06725
784.98        67.00355
785.39        66.82549
785.81        66.62673
786.22        66.78764
786.63        67.23852
787.04        67.51817
787.46        67.58895
787.87        67.65916
788.28        67.77135
788.70        67.84612
789.11        67.86514
789.52        67.96038
789.93        68.07753
790.35        67.88422
790.76        67.49524
791.17        67.47858
791.58        67.81155
792.00        67.91245
792.41        67.77444
792.82         67.8197
793.23        68.04928
793.65        68.03185
794.06        67.89902
794.47        68.27644
794.88        68.98331
795.29        69.29409
795.71        69.13988
796.12        68.90722
796.53        68.66667
796.94        68.48746
797.35         68.3858
797.76        68.21075
798.18        67.98562
798.59        67.88278
799.00        67.90906
799.41        67.98029
799.82        68.05754
800.23        68.11935
800.64        68.14795
801.06        68.11653
801.47        68.10034
801.88        68.15334
802.29        68.28947
802.70        68.48814
803.11        68.69398
803.52        68.81178
803.93        68.81488
804.34        68.73156
804.75        68.62866
805.17        68.58498
805.58        68.64897
805.99        68.83565
806.40        69.08185
806.81        69.13545
807.22         69.0303
807.63        69.11769
808.04         69.3842
808.45         69.5057
808.86        69.45723
809.27        69.41917
809.68        69.41585
810.09        69.39735
810.50        69.37103
810.91        69.36345
811.32        69.34117
811.73        69.24371
812.14        69.06802
812.55        68.83416
812.96         68.6229
813.37        68.57165
813.78        68.70668
814.19        68.97729
814.60        69.28158
815.01        69.46593
815.42        69.48881
815.83        69.38805
816.24        69.22172
816.65        69.10392
817.05        69.08656
817.46        69.11264
817.87        69.17673
818.28        69.22607
818.69        69.24957
819.10        69.27176
819.51        69.32319
819.92        69.44703
820.33        69.64252
820.74        69.87245
821.14        70.09068
821.55         70.2561
821.96         70.3428
822.37        70.36684
822.78        70.32425
823.19        70.21465
823.60        70.04785
824.00        69.83585
824.41        69.60163
824.82        69.45491
825.23        69.41994
825.64        69.49264
826.04        69.60393
826.45        69.59177
826.86        69.44252
827.27        69.20361
827.68        68.99028
828.08        69.02892
828.49        69.29789
828.90        69.76056
829.31        70.30529
829.72         70.6767
830.12         70.8119
830.53        71.07205
830.94         70.8596
831.35        70.67825
831.75        70.39728
832.16        70.01172
832.57        69.63512
832.97        69.45425
833.38         69.5024
833.79        69.71735
834.20        70.02306
834.60        70.29019
835.01        70.47307
835.42        70.62118
835.82        70.68959
836.23        70.55874
836.64        70.24816
837.04        69.78828
837.45        69.35363
837.86        69.29298
838.26         69.6759
838.67         70.3923
839.08        71.17399
839.48        71.56435
839.89        71.44412
840.29        70.94647
840.70        70.33411
841.11         70.0509
841.51        70.23627
841.92        70.71938
842.33        71.30019
842.73        71.64451
843.14        71.60601
843.54        71.33482
843.95        70.97146
844.35        70.75959
844.76        70.76539
845.17        70.91093
845.57        71.13219
845.98          71.297
846.38        71.39207
846.79        71.44086
847.19        71.49703
847.60        71.55795
848.00        71.66209
848.41        71.74939
848.81        71.85972
849.22        71.99173
849.62        72.17383
850.03        72.36462
850.43        72.53157
850.84        72.51614
851.24        72.34615
851.65        71.98978
852.05        71.61861
852.46        71.43458
852.86        71.49937
853.27         71.7917
853.67        72.06857
854.07        72.13391
854.48        71.91288
854.88        71.48344
855.29        70.97929
855.69        70.82233
856.10        71.02504
856.50         71.5746
856.90        72.14654
857.31        72.24538
857.71        71.81143
858.12        70.92982
858.52        69.95315
858.92        69.41116
859.33        69.43981
859.73        69.92269
860.13        70.56113
860.54         70.8558
860.94        70.72796
861.34        70.30592
861.75        69.75276
862.15        69.41444
862.55        69.36452
862.96        69.47197
863.36        69.69788
863.76        69.93987
864.17        70.14153
864.57        70.36996
864.97         70.5546
865.38        70.55085
865.78        70.38107
866.18        70.05628
866.58        69.71577
866.99        69.61177
867.39        69.84105
867.79        70.29127
868.19         70.8036
868.60        71.06207
869.00        71.06935
869.40        71.07647
869.80        71.03905
870.21        70.71397
870.61        70.18163
871.01        69.55659
871.41        69.00668
871.81        68.69351
872.22        68.66365
872.62        68.89626
873.02        69.25887
873.42        69.64065
873.82        69.79756
874.22        69.35276
874.63        68.65656
875.03        68.39681
875.43        68.68796
875.83        70.05395
876.23         69.9963
876.63        69.64244
877.03        68.70254
877.44        66.72759
877.84        159.7605
878.24        67.21545
878.64        67.95744
879.04        69.44416
879.44         70.0835
879.84        67.38263
880.24        71.62834
880.64        71.71934
881.04        69.59866
881.44        68.04517
881.84        67.57832
882.24        68.24419
882.65        69.39916
883.05        69.71962
883.45        68.93195
883.85        67.81783
884.25        66.83315
884.65        66.35596
885.05        66.52463
885.45        67.13762
885.85        67.86807
886.25        68.26524
886.65        68.22375
887.05        67.92101
887.45        67.48502
887.85         67.1237
888.25        66.93935
888.65        66.84357
889.04        66.93268
889.44        67.38025
889.84        68.13865
890.24        69.10021
890.64        69.97701
891.04        70.34851
891.44        70.14284
891.84        69.50417
892.24         68.6256
892.64        67.85937
893.04        67.37711
893.44        67.12666
893.83        67.13982
894.23        67.41775
894.63        67.93091
895.03        68.66395
895.43        69.49953
895.83        70.21762
896.23        70.72055
896.63        71.01543
897.02        71.09904
897.42        71.06628
897.82        70.93393
898.22        70.70078
898.62        70.41208
899.01        70.15578
899.41        69.94406
899.81        69.79008
900.21        69.69457
900.61        69.63447
901.00        69.58257
901.40        69.60922
901.80        69.68177
902.20         69.6356
902.59        69.44433
902.99        69.36324
903.39        69.56471
903.79        68.90456
904.18        69.66041
904.58        69.93132
904.98        70.22977
905.38        70.25422
905.77        69.95868
906.17        69.48055
906.57        68.90314
906.96        68.45926
907.36         68.2252
907.76        68.14138
908.15        68.27052
908.55        68.56573
908.95        69.02914
909.34        69.61148
909.74        70.18355
910.14        70.49119
910.53        70.48473
910.93        70.23166
911.33        69.82693
911.72        69.43757
912.12        69.13412
912.52        68.86028
912.91        68.65434
913.31        68.65567
913.70         68.8452
914.10        69.21164
914.49        69.58585
914.89        69.58343
915.29        69.16358
915.68        68.41313
916.08        67.66146
916.47         67.3868
916.87        67.72416
917.26        68.53139
917.66        69.47843
918.05        70.04607
918.45        70.07729
918.84        69.72742
919.24        69.28412
919.64        69.28338
920.03         69.8392
920.42        70.73523
920.82        71.61618
921.21        71.94881
921.61        71.63028
922.00        70.91195
922.40        70.13962
922.79        69.74174
923.19        69.53784
923.58        70.13132
923.98        71.67685
924.37        71.90021
924.77        69.59491
925.16        76.26836
925.55        71.19617
925.95        71.61122
926.34         71.6331
926.74        71.09248
927.13        69.97055
927.52         69.2439
927.92        69.33732
928.31        69.72974
928.70        70.27924
929.10        70.70216
929.49        70.94028
929.89        71.07454
930.28        71.11194
930.67         70.9563
931.07         70.6367
931.46        70.09916
931.85        69.53019
932.24        69.62515
932.64        70.47524
933.03        71.40649
933.42        71.83652
933.82        73.77759
934.21        72.62941
934.60        71.96843
934.99        71.37309
935.39        71.47285
935.78        72.20979
936.17        73.92828
936.56        79.02535
936.96        73.31008
937.35        76.21314
937.74        73.32195
938.13         71.1619
938.53        69.55096
938.92        69.16478
939.31        70.37362
939.70        72.03039
940.09        72.97825
940.49        72.94705
940.88        72.33038
941.27        71.45496
941.66        70.93561
942.05        71.01316
942.44         71.4417
942.84        71.90981
943.23        72.07687
943.62        71.84282
944.01        71.32158
944.40        70.81325
944.79        70.79787
945.18        71.36768
945.57        72.35152
945.97         73.2702
946.36        73.49988
946.75        72.85886
947.14        71.53942
947.53        70.04361
947.92        69.24335
948.31          69.391
948.70        70.23709
949.09        71.28709
949.48        71.77109
949.87        71.50656
950.26        70.73769
950.65        69.86143
951.04        69.51905
951.43        69.87901
951.82        70.71135
952.21        71.67026
952.60        72.18211
952.99         72.0724
953.38        71.55064
953.77        70.87665
954.16        70.40276
954.55        70.23959
954.94        70.29521
955.33        70.47649
955.72        70.62799
956.11        70.68882
956.50        70.70228
956.89        70.76637
957.28         71.0185
957.66        71.49464
958.05        72.05534
958.44        72.51761
958.83        72.61073
959.22        72.27889
959.61        71.57729
960.00        70.73271
960.39        70.19589
960.78        70.12825
961.16        70.45544
961.55        70.84007
961.94        70.88376
962.33        70.50359
962.72        69.79984
963.11        69.04951
963.49        68.82143
963.88        69.26225
964.27        70.15237
964.66        71.07834
965.04         71.5014
965.43        71.25893
965.82        70.55015
966.21        69.65615
966.60        69.07475
966.98        68.98763
967.37        69.25938
967.76        69.68495
968.15        69.92596
968.53        69.89577
968.92        69.65971
969.31        69.40836
969.69        69.42846
970.08        69.74713
970.47        70.26472
970.86        70.74614
971.24        70.81904
971.63        70.40243
972.02        69.67205
972.40        68.91574
972.79        68.44776
973.17        68.41158
973.56        68.72556
973.95        69.29517
974.33        69.93268
974.72        70.51802
975.11        71.05054
975.49        71.62711
975.88        72.33703
976.26        73.23141
976.65        74.14995
977.04        74.86367
977.42        75.02914
977.81        74.54999
978.19        73.49428
978.58        72.36881
978.96        72.06332
979.35        72.76492
979.74        74.12194
980.12        75.53315
980.51         76.0687
980.89        75.70449
981.28         74.6233
981.66        73.16618
982.05         72.2094
982.43        72.13795
982.82        72.73864
983.20        73.71267
983.59         74.5635
983.97        75.16542
984.35        75.60144
984.74        75.87499
985.12        76.07258
985.51        76.17078
985.89        76.18352
986.28        76.01946
986.66        75.61014
987.04        75.00774
987.43        74.16869
987.81          73.148
988.20        73.30347
988.58        74.90376
988.96        75.50786
989.35         74.2898
989.73        79.37471
990.12        76.39043
990.50        76.36586
990.88        75.73433
991.27        75.50465
991.65        75.78355
992.03        76.55461
992.42        77.58662
992.80        78.06775
993.18        77.78121
993.56        76.96886
993.95        75.93081
994.33        75.13277
994.71        74.75124
995.10        74.63622
995.48        74.71239
995.86        74.83624
996.24        74.94456
996.63        75.04339
997.01        75.20857
997.39        75.33175
997.77        75.38634
998.15        75.36494
998.54        75.33973
998.92        75.35262
999.30        75.45955
999.68        75.65528
1000.06        75.87827
1000.45        75.96368
1000.83        75.96091
1001.21        75.89057
1001.59        75.84597
1001.97        75.95419
1002.35        76.23189
1002.73        76.61408
1003.12        77.04045
1003.50        77.49788
1003.88         77.9703
1004.26        78.47695
1004.64        78.98809
1005.02        79.41022
1005.40        79.66592
1005.78        79.72394
1006.16        79.60338
1006.54         79.3588
1006.92        79.04608
1007.30        78.73686
1007.69        78.38818
1008.07        77.99944
1008.45        77.56576
1008.83        77.09452
1009.21        76.87115
1009.59        77.43098
1009.97         78.7283
1010.35        80.33107
1010.73        81.73508
1011.11        82.63054
1011.49        83.09018
1011.86        83.01347
1012.24        82.20422
1012.62        82.88811
1013.00         82.9465
1013.38         82.2195
1013.76        79.63706
1014.14        82.71735
1014.52         87.9157
1014.90        81.30402
1015.28        82.61902
1015.66         84.1292
1016.04        81.43561
1016.41         81.9568
1016.79        81.44205
1017.17        81.15504
1017.55         80.6149
1017.93        80.03143
1018.31        79.74491
1018.69        79.84254
1019.06         80.4113
1019.44        81.34742
1019.82        82.22414
1020.20        82.43311
1020.58         81.8747
1020.95        80.51199
1021.33         78.9109
1021.71        78.58121
1022.09        80.07557
1022.46        82.49355
1022.84        84.68924
1023.22        85.92451
1023.60         86.2801
1023.97        86.06544
1024.35        85.48318
1024.73        84.92461
