SpectraSmart Spectrum 2.9.0.0
--------- Device Information -----------
Spectrum Name :  反射率_0
Saving Time :  2024/04/21 00:58:10
Spectro-Module Model Name : SE2030-DUVN
Spectro-Module Serial Number : OS361AC55029948
Wavelength Start : 200
Wavelength End : 1025
Wavelength Unit : Wavelength(nm)
Spectrum Unit : Reflectance(%)
-----------Spectrum Setting ------------
Integration Time : 20ms
Average : 10
Boxcar : 0
Background removal :  enabled
linearity correction :  enabled
SC :  disabled
Intensity correction :  disabled
DWT denoise :  enabled
savitzky-golay :  disabled
FFT :  disabled
Running average :  disabled
Kalman :  disabled
High pass :  disabled
---------------BEGIN--------------------
Wavelength(nm)             Reflectance(%)
200.29               0
200.75       -122.2751
201.21       -44.36086
201.67       0.2851734
202.13        17.36006
202.58         18.2568
203.04        9.578525
203.50       -4.488868
203.96       -12.98071
204.42       -10.78979
204.88       -2.953772
205.34        4.995659
205.80        5.388142
206.26       -4.177262
206.72       -20.22935
207.18       -42.12139
207.64       -66.49351
208.10       -85.60431
208.55       -99.63151
209.01       -90.59684
209.47       -47.74704
209.93       -4.134912
210.39        26.95212
210.85        45.34458
211.31        52.66459
211.77        52.10898
212.23        44.37706
212.69        24.85041
213.14       -13.66279
213.60       -86.31429
214.06       -297.2425
214.52        -769.972
214.98       -334.0517
215.44       -79.99868
215.90        3.621308
216.36        30.26977
216.81        30.81877
217.27        8.063453
217.73       -105.7044
218.19        1268.188
218.65        545.3745
219.11       -1239.602
219.57       -64.04419
220.02        11.57005
220.48        26.35598
220.94         22.1859
221.40      -0.3636643
221.86        -55.8875
222.32       -89.77266
222.77       -37.16925
223.23        6.982982
223.69        28.24704
224.15         33.8689
224.61        30.99549
225.06        23.97515
225.52        14.58066
225.98        5.418134
226.44       -1.860909
226.90       -9.281387
227.36       -12.57106
227.81       -4.979942
228.27        8.234458
228.73        21.35943
229.19        29.60764
229.65        30.56256
230.10        25.35818
230.56        15.45463
231.02        2.690247
231.48       -5.336317
231.93       -3.601689
232.39        4.718779
232.85        13.62205
233.31        18.06676
233.77        18.31129
234.22         16.5347
234.68        13.51235
235.14        10.66035
235.60        9.046394
236.05        7.240783
236.51        5.355442
236.97        10.73361
237.43        23.57086
237.88        31.86816
238.34        30.95154
238.80        55.66854
239.26        43.29616
239.71        39.43165
240.17        27.50916
240.63        15.34408
241.08        8.664362
241.54        12.16846
242.00        25.32256
242.46        33.26098
242.91        31.91587
243.37        22.47152
243.83        8.026157
244.28        1.889443
244.74        10.94692
245.20        26.57801
245.66        39.85958
246.11        42.69924
246.57         34.3134
247.03        17.91709
247.48       -5.031937
247.94       -33.53197
248.40       -74.74081
248.85       -168.9777
249.31       -454.7939
249.77       -695.1743
250.22       -262.5325
250.68       -77.46013
251.14       -15.31972
251.59        6.617249
252.05        14.30162
252.51        15.45378
252.96        10.65666
253.42        3.538137
253.88       -1.474899
254.33       -3.695877
254.79      -0.5086972
255.25        7.515385
255.70        16.58241
256.16        24.43918
256.62        30.41761
257.07        34.28195
257.53        36.79695
257.99         38.4632
258.44        39.16629
258.90        39.27816
259.35         38.6373
259.81        37.65212
260.27        36.56604
260.72        35.71382
261.18        35.27631
261.63        34.97202
262.09        34.56652
262.55        33.57841
263.00        32.05701
263.46         30.3719
263.91        28.84199
264.37        28.16215
264.83        28.26315
265.28        28.78704
265.74        29.38505
266.19        29.51301
266.65        29.11424
267.11        28.34749
267.56        27.34072
268.02        26.35279
268.47           25.44
268.93        24.55694
269.38        23.69117
269.84        22.88104
270.30        22.12449
270.75        21.44496
271.21        20.84759
271.66        20.26478
272.12         19.7043
272.57        19.17387
273.03        18.69257
273.48        18.27806
273.94          17.943
274.39        17.65572
274.85         17.4297
275.31        17.24023
275.76        17.07137
276.22         16.9413
276.67        16.82913
277.13        16.75101
277.58        16.67792
278.04        16.60302
278.49        16.49552
278.95        16.36105
279.40        16.16882
279.86        15.94114
280.31        15.64639
280.77        15.29074
281.22        14.87442
281.68        14.46778
282.13        14.07792
282.59        13.76231
283.04        13.51985
283.50        13.33324
283.95        13.24916
284.41        13.34359
284.86        13.59701
285.32        13.97538
285.77        14.31325
286.22        14.36943
286.68        14.13991
287.13        13.68622
287.59        13.25346
288.04        13.11885
288.50        13.30409
288.95        13.85642
289.41        14.62534
289.86        14.86226
290.32        14.41655
290.77        15.51208
291.22        14.62339
291.68        14.83131
292.13        15.11869
292.59        15.53655
293.04        16.02935
293.50        16.59226
293.95        17.23685
294.40        17.94205
294.86        18.72792
295.31        19.61157
295.77        20.58145
296.22        21.61065
296.68        22.64927
297.13        23.62164
297.58        24.53029
298.04        25.41016
298.49        26.32524
298.95        27.39347
299.40        28.62578
299.85        29.98688
300.31        31.41188
300.76        32.78899
301.21        34.09141
301.67        35.36921
302.12         36.6427
302.58         38.0192
303.03        39.50222
303.48        41.09884
303.94        42.77746
304.39        44.45448
304.84        46.11037
305.30        47.77082
305.75        49.43978
306.20        51.20425
306.66        53.06014
307.11        54.93253
307.57        56.75354
308.02        58.38464
308.47         59.8097
308.93        61.10204
309.38        62.29863
309.83        63.46064
310.29        64.74034
310.74        66.00421
311.19        67.23247
311.65        68.32491
312.10        69.25438
312.55         70.0584
313.00        70.83301
313.46        71.72953
313.91        72.75594
314.36        73.86212
314.82        74.92464
315.27        75.75395
315.72        76.31641
316.18        76.67697
316.63        76.94598
317.08        77.30933
317.53        77.81245
317.99        78.38762
318.44        78.96029
318.89         79.3979
319.35        79.66473
319.80        79.82417
320.25        79.90872
320.70        79.96871
321.16         80.0277
321.61        80.08315
322.06        80.17126
322.51        80.36095
322.97        80.64379
323.42        81.02354
323.87        81.41162
324.32        81.66892
324.78        81.74401
325.23        81.70791
325.68        81.60893
326.13         81.5569
326.59         81.5725
327.04         81.6659
327.49        81.81552
327.94        82.01089
328.39         82.2402
328.85         82.4916
329.30        82.77581
329.75        83.00136
330.20        83.15076
330.66        83.20474
331.11        83.26469
331.56        83.40308
332.01        83.64616
332.46        83.97178
332.92        84.28618
333.37        84.54037
333.82        84.67455
334.27        84.72417
334.72        84.76571
335.17        84.92412
335.63         85.2106
336.08        85.63694
336.53        86.11159
336.98        86.51948
337.43        86.82211
337.88        87.04486
338.34        87.22363
338.79        87.46302
339.24        87.76649
339.69        88.09931
340.14        88.40771
340.59        88.61576
341.05        88.71525
341.50        88.74947
341.95        88.76991
342.40        88.86018
342.85        89.04977
343.30        89.31447
343.75        89.62855
344.20        89.95403
344.66        90.27418
345.11        90.57358
345.56        90.84625
346.01        91.07735
346.46        91.26089
346.91        91.41335
347.36         91.5203
347.81        91.53864
348.26        91.47594
348.72        91.46341
349.17        91.36011
349.62        91.43443
350.07        91.64185
350.52        91.94183
350.97        92.23278
351.42        92.35064
351.87        92.25364
352.32         91.9952
352.77        91.64235
353.22        91.29862
353.67        91.00462
354.13        90.74773
354.58        90.51195
355.03        90.32113
355.48        90.16981
355.93        90.05351
356.38        89.93857
356.83        89.76715
357.28        89.51437
357.73          89.179
358.18        88.76725
358.63        88.30155
359.08        87.79933
359.53         87.2702
359.98        86.71408
360.43        86.12391
360.88        85.50676
361.33        84.87352
361.78        84.26959
362.23        83.76267
362.68        83.36121
363.13        83.04086
363.58         82.7292
364.03        82.31081
364.48        81.75674
364.93        81.09699
365.38         80.3952
365.83          79.761
366.28        79.22278
366.73        78.74247
367.18        78.27867
367.63        77.76535
368.08        77.18832
368.53        76.58613
368.98        75.96616
369.43        75.32697
369.88        74.67341
370.33        73.99621
370.78        73.34477
371.23        72.81739
371.68         72.4377
372.13        72.18128
372.58        71.96285
373.03        71.63739
373.48        71.16424
373.93        70.57865
374.38        69.95347
374.83        69.41912
375.28        69.01876
375.72        68.70647
376.17        68.44048
376.62        68.11175
377.07        67.68819
377.52        67.19046
377.97        66.67905
378.42        66.26355
378.87        65.97584
379.32        65.78584
379.77        65.60324
380.22        65.29008
380.67        64.81507
381.11        64.21697
381.56        63.59391
382.01        63.12695
382.46         62.8678
382.91        62.76532
383.36        62.69492
383.81        62.46453
384.26        62.03017
384.71         61.4497
385.15        60.83277
385.60        60.40343
386.05        60.18518
386.50        60.11527
386.95        60.06825
387.40        59.85304
387.85         59.4464
388.29        58.89982
388.74        58.41085
389.19        58.09793
389.64        57.97593
390.09        57.96902
390.54        58.00755
390.98        57.97123
391.43        57.85716
391.88        57.70293
392.33        57.50475
392.78        57.27359
393.23        57.02833
393.67        56.68174
394.12         56.3744
394.57        56.30201
395.02        56.41175
395.47         56.3892
395.91        56.20607
396.36        56.04981
396.81        55.93538
397.26        55.75452
397.71        55.52015
398.15        55.32407
398.60        55.23396
399.05         55.0608
399.50        54.88187
399.95        55.00576
400.39         55.3175
400.84         55.3478
401.29        55.04451
401.74        54.49571
402.18        53.88557
402.63        53.68298
403.08        53.84423
403.53        53.76859
403.97        53.43278
404.42        53.26158
404.87        53.26216
405.32        53.27142
405.76        53.27278
406.21        53.26089
406.66        53.23022
407.11        53.28012
407.55        53.36119
408.00        53.23095
408.45        52.92683
408.90        52.60365
409.34        52.37215
409.79        52.43039
410.24        52.69529
410.68        52.81243
411.13        52.74645
411.58        52.70751
412.03        52.70304
412.47        52.65232
412.92        52.54575
413.37        52.42496
413.81        52.31149
414.26        52.27753
414.71        52.31865
415.15        52.42318
415.60        52.54519
416.05        52.64684
416.49        52.70672
416.94        52.72296
417.39        52.68957
417.83         52.5927
418.28        52.44035
418.73        52.23892
419.17         52.0214
419.62        51.85538
420.07        51.75995
420.51        51.72014
420.96        51.73556
421.41        51.75174
421.85        51.73048
422.30        51.74338
422.74        51.77446
423.19        51.81002
423.64         51.8806
424.08        52.17236
424.53         52.5415
424.98        52.73721
425.42        52.74325
425.87        52.49348
426.31        52.16953
426.76        52.41935
427.21        53.09758
427.65         53.1638
428.10        52.64864
428.54        52.49184
428.99         52.7377
429.44        52.96767
429.88        53.05636
430.33        52.86353
430.77        52.48392
431.22        52.48409
431.66         52.8324
432.11        53.12103
432.56        53.31628
433.00        53.41797
433.45        53.22589
433.89        53.15989
434.34        53.45403
434.78         52.2376
435.23        52.54659
435.67        53.40066
436.12        53.60269
436.57        53.79018
437.01        53.46032
437.46        53.40718
437.90        53.79231
438.35        53.81414
438.79        53.83302
439.24        53.80115
439.68        53.84977
440.13        53.74822
440.57        53.56928
441.02        53.91558
441.46        54.57177
441.91        54.43672
442.35        53.71439
442.80        53.81499
443.24        54.59398
443.69        54.88012
444.13        54.58934
444.58        54.38766
445.02        54.32603
445.47        54.36716
445.91        54.47541
446.36        54.49378
446.80        54.40442
447.24        54.40292
447.69        54.34676
448.13        54.55671
448.58        54.77482
449.02        54.86658
449.47        54.77417
449.91        54.70454
450.36        54.68058
450.80        54.50047
451.25        54.25591
451.69        54.22219
452.13        54.38206
452.58        54.43964
453.02        54.36129
453.47        54.33631
453.91        54.34696
454.36        54.27274
454.80        54.14256
455.24        54.08905
455.69        54.14133
456.13        54.20937
456.58        54.24927
457.02        54.31637
457.46        54.10606
457.91          53.921
458.35        53.81489
458.79        53.74097
459.24        53.78452
459.68        53.86496
460.13        53.92074
460.57        54.01414
461.01        54.19145
461.46        53.50198
461.90        53.60271
462.34        53.58095
462.79        53.48204
463.23        53.56664
463.68         53.8897
464.12        53.69012
464.56        53.15555
465.01        53.25632
465.45        53.76705
465.89        53.66228
466.34        53.09862
466.78        52.91841
467.22        53.08961
467.67        53.60486
468.11        53.13634
468.55        53.12792
468.99        53.18724
469.44        53.17013
469.88        53.06491
470.32        52.91473
470.77        52.77354
471.21        52.69505
471.65        52.70013
472.10        52.77657
472.54        52.85454
472.98        52.87012
473.42        52.81736
473.87        52.65026
474.31         52.4368
474.75        52.55131
475.20        52.90038
475.64        52.95444
476.08        52.75103
476.52        52.67469
476.97        52.70753
477.41        52.83676
477.85        53.03485
478.29        52.45387
478.74        52.46003
479.18        52.29013
479.62        52.76255
480.06        52.91261
480.50        52.88409
480.95        52.96022
481.39        53.09146
481.83        53.10326
482.27        53.59597
482.72        52.95112
483.16        53.34104
483.60        53.33324
484.04        53.46315
484.48         53.2748
484.93        53.37224
485.37        53.04467
485.81        53.35315
486.25        52.87295
486.69         53.4922
487.14        53.56995
487.58        53.37145
488.02         53.1979
488.46           53.53
488.90        53.87654
489.34        53.52861
489.79          52.936
490.23        53.38707
490.67        53.51905
491.11        53.70633
491.55        53.75061
491.99        53.67653
492.43        53.68172
492.88        53.76105
493.32        53.77327
493.76        53.67341
494.20        53.64305
494.64        53.72132
495.08        53.38165
495.52        53.33895
495.96        53.55053
496.41        54.05283
496.85        54.09927
497.29        53.68769
497.73        53.57281
498.17        53.50628
498.61        53.57132
499.05         53.6455
499.49        53.53179
499.93        53.33043
500.37        53.55671
500.82        54.08089
501.26        54.26194
501.70        54.07217
502.14        53.68187
502.58        53.61449
503.02         53.4744
503.46        53.37992
503.90        53.40098
504.34          53.496
504.78        53.59892
505.22        53.69977
505.66        53.76452
506.10        53.76822
506.54        53.86121
506.98         54.0764
507.42        53.66077
507.86        53.89107
508.30        53.84885
508.74         53.8023
509.18        53.79738
509.62        53.79888
510.06        53.81251
510.50        53.80639
510.94        53.73444
511.38        53.62424
511.82        53.57533
512.26        53.59649
512.70        53.63591
513.14        53.66921
513.58        53.67514
514.02        53.64624
514.46        53.59269
514.90        53.51687
515.34        53.47371
515.78        53.47873
516.22        53.45658
516.66        53.27244
517.10        53.61193
517.54        53.42756
517.98        53.53392
518.42        53.59113
518.86         53.5744
519.30        53.47579
519.74        53.29008
520.18        53.09403
520.62        53.06343
521.06        53.18033
521.50        53.22378
521.93        53.18328
522.37        53.20838
522.81        53.29372
523.25        53.34313
523.69        53.34071
524.13        53.31215
524.57         53.2602
525.01        53.17592
525.45        53.09595
525.89        53.08188
526.32        53.14024
526.76        53.25571
527.20         53.3791
527.64        53.43186
528.08        53.39493
528.52        53.29718
528.96        53.17362
529.40        53.07165
529.83        53.00753
530.27        52.99341
530.71        53.00659
531.15        53.01012
531.59        52.99497
532.03        52.97485
532.46         52.9586
532.90        52.96885
533.34        53.00361
533.78        53.05619
534.22        53.09787
534.66        53.08684
535.09        53.01216
535.53        52.90626
535.97        52.80242
536.41        52.76819
536.85         52.8152
537.28         52.9181
537.72        53.03514
538.16        53.09915
538.60        53.09015
539.04        53.03356
539.47        52.93897
539.91         52.8634
540.35         52.8107
540.79        52.77648
541.22        52.76417
541.66        52.79232
542.10        52.85575
542.54        52.94427
542.97        53.04585
543.41        53.16776
543.85         53.2966
544.29         53.4355
544.72        53.53997
545.16        53.58919
545.60        53.56916
546.04        53.43728
546.47        53.27319
546.91        53.30443
547.35        53.48978
547.79         53.5998
548.22        53.57283
548.66        53.43716
549.10        53.26127
549.53        53.23619
549.97        53.36144
550.41        53.40209
550.84        53.34575
551.28        53.36113
551.72        53.44335
552.15        53.47306
552.59        53.44966
553.03        53.49814
553.46        53.43742
553.90        53.42593
554.34        53.40714
554.77        53.37988
555.21        53.36592
555.65        53.39297
556.08        53.45948
556.52        53.55212
556.96        53.64079
557.39        53.74062
557.83        53.82677
558.27        53.77071
558.70        53.62677
559.14        53.58968
559.57        53.67092
560.01        53.84208
560.45        53.99123
560.88         53.9565
561.32        53.79929
561.75        53.51918
562.19        53.27582
562.63        53.47194
563.06        53.95634
563.50        53.97305
563.93        53.55294
564.37        53.37493
564.80         53.4755
565.24        53.63916
565.68        53.81542
566.11        53.92243
566.55        53.95214
566.98        54.05146
567.42        54.20477
567.85        54.08792
568.29        53.82229
568.72        53.84455
569.16        54.15772
569.60        54.18516
570.03        54.18017
570.47        54.17102
570.90        54.20833
571.34         54.2272
571.77        54.39642
572.21         54.1001
572.64        54.38953
573.08        53.92722
573.51        54.38884
573.95        54.65203
574.38        54.36286
574.82        54.74019
575.25        54.47729
575.69        54.47274
576.12        54.24195
576.56         54.1497
576.99        54.45901
577.42        54.78933
577.86         54.4795
578.29        54.77719
578.73         55.0376
579.16        54.75025
579.60        54.25822
580.03        54.36985
580.47        54.62813
580.90        54.59579
581.33        54.56763
581.77        54.79285
582.20        54.72977
582.64        54.57684
583.07        54.61633
583.51        54.34595
583.94        54.24684
584.37        54.59818
584.81        53.77528
585.24        53.85019
585.68        54.52889
586.11        54.34329
586.54        54.16629
586.98        53.92863
587.41        54.17183
587.85        54.43765
588.28        54.48149
588.71        54.48119
589.15        54.49459
589.58        54.20964
590.01        53.87518
590.45         54.0064
590.88        54.42896
591.31        54.15166
591.75        53.81112
592.18         53.6833
592.61         53.9142
593.05        54.20514
593.48        54.21684
593.91        54.05822
594.35        54.19224
594.78        54.39275
595.21        54.20522
595.65        54.17529
596.08        54.13697
596.51        54.34361
596.94        54.25305
597.38        54.29664
597.81        54.38654
598.24        54.17888
598.68        54.12909
599.11        54.26848
599.54        54.56728
599.97        54.25413
600.41        54.39474
600.84        54.73534
601.27        54.59603
601.70        54.76095
602.14        54.49141
602.57        54.49857
603.00        54.63629
603.43        54.75404
603.87        55.17841
604.30        54.99922
604.73        54.78132
605.16        54.73563
605.60        54.64627
606.03        54.80227
606.46         55.0779
606.89        54.78939
607.32        54.35293
607.76        55.18676
608.19         54.9367
608.62         54.7578
609.05        55.57169
609.48        55.04488
609.92         55.1356
610.35        55.04879
610.78         55.1608
611.21        54.99937
611.64        55.13986
612.07        55.20645
612.50        55.32537
612.94        55.36918
613.37        55.34467
613.80        55.26812
614.23         55.1566
614.66        55.05031
615.09         54.9673
615.52        54.91113
615.96        54.87864
616.39        54.84745
616.82        54.81348
617.25        54.81273
617.68        54.82099
618.11        54.79079
618.54        54.88345
618.97        54.87922
619.40        54.79583
619.84        54.99661
620.27        54.94331
620.70        54.90755
621.13        54.77672
621.56        54.84962
621.99        55.12839
622.42        55.26636
622.85        55.17195
623.28        55.29047
623.71        55.29529
624.14        55.01571
624.57        55.09067
625.00        55.37791
625.43        54.92674
625.86        55.00531
626.29         55.2704
626.72         55.0781
627.15        55.12453
627.58        55.03798
628.01        55.10397
628.44        54.82599
628.87        54.88446
629.30         54.9955
629.73        55.05316
630.16        54.85934
630.59        54.81207
631.02        55.02003
631.45        54.82326
631.88        54.84015
632.31        54.85347
632.74          54.604
633.17        54.65078
633.60        54.53786
634.03        54.44508
634.46        54.40712
634.89        54.35122
635.32         54.3641
635.75        54.41214
636.18        54.49425
636.61         54.5831
637.04        54.63814
637.47        54.64837
637.89        54.62636
638.32        54.57665
638.75        54.53402
639.18        54.50765
639.61        54.48821
640.04         54.4697
640.47        54.44229
640.90        54.40371
641.33        54.36208
641.76         54.3193
642.18        54.28172
642.61        54.24044
643.04        54.20152
643.47        54.17308
643.90        54.17284
644.33        54.20271
644.76        54.24307
645.18        54.28352
645.61        54.33303
646.04        54.37241
646.47        54.33797
646.90        54.25566
647.33        54.23171
647.75        54.26773
648.18        54.33104
648.61        54.41995
649.04        54.45915
649.47        54.42428
649.89        54.68551
650.32        54.62323
650.75        54.61946
651.18        54.51483
651.61         54.4206
652.03        54.37447
652.46        54.37392
652.89        54.44021
653.32        54.55608
653.74        54.63499
654.17        54.74057
654.60         54.4285
655.03        54.35538
655.46        54.36369
655.88        55.10325
656.31        55.70893
656.74        57.81641
657.16         56.4282
657.59         55.3094
658.02        54.79402
658.45        54.98581
658.87        54.49024
659.30        54.95334
659.73        54.73028
660.15        54.43517
660.58        54.84077
661.01        55.02782
661.44        55.23861
661.86        55.14721
662.29        54.83062
662.72        54.64565
663.14        54.65058
663.57        54.69765
664.00         54.7537
664.42        54.80434
664.85        54.84587
665.27        54.80909
665.70        54.87927
666.13        54.90939
666.55        54.95813
666.98        55.01641
667.41        55.06786
667.83         55.0927
668.26        55.09193
668.69        55.01999
669.11        54.89837
669.54        54.93824
669.96        55.18866
670.39        54.91342
670.82        55.37403
671.24        55.26963
671.67        55.02782
672.09        54.95867
672.52        55.08992
672.94        55.09075
673.37        54.98032
673.80        55.03099
674.22        55.21869
674.65        55.29273
675.07        55.24952
675.50        55.17747
675.92         55.1257
676.35        55.12851
676.77        55.19465
677.20         55.3232
677.62        55.48345
678.05        55.53742
678.47        55.45265
678.90        55.57824
679.32        55.37624
679.75        55.35052
680.17        55.34536
680.60         55.3609
681.02        55.38639
681.45        55.40265
681.87        55.40862
682.30        55.42123
682.72        55.45513
683.15        55.43524
683.57         55.3637
684.00         55.5066
684.42        55.44001
684.85        55.45019
685.27        55.40527
685.70        55.35584
686.12        55.30306
686.54        55.26966
686.97         55.2584
687.39        55.28765
687.82        55.35097
688.24        55.41002
688.66        55.43687
689.09        55.65233
689.51        55.63195
689.94        55.73874
690.36        55.82783
690.78        55.84978
691.21        55.80987
691.63        55.71894
692.06        55.63273
692.48        55.65136
692.90        55.75484
693.33        55.80672
693.75         55.8021
694.17        55.76993
694.60        55.72653
695.02        55.84899
695.44         55.8772
695.87        55.91376
696.29        55.89669
696.71        55.75338
697.14        55.55838
697.56        55.72032
697.98        56.15528
698.41         56.1266
698.83        56.09275
699.25        55.91209
699.68         55.7826
700.10         55.6808
700.52        55.63158
700.94        55.63406
701.37        55.65156
701.79        55.67525
702.21        55.67782
702.64        55.67532
703.06        55.67009
703.48        55.67144
703.90        55.68731
704.33        55.70881
704.75        55.74478
705.17        55.79435
705.59        55.85649
706.01        55.92443
706.44        56.00367
706.86        56.11816
707.28        56.25143
707.70        56.39276
708.12        56.51293
708.55        56.55947
708.97        56.52013
709.39        56.42314
709.81        56.30067
710.23         56.2155
710.66        56.19147
711.08        56.21828
711.50        56.27258
711.92        56.32997
712.34        56.37893
712.76        56.42885
713.19        56.45539
713.61        56.45904
714.03        56.42031
714.45        56.35629
714.87        56.30372
715.29        56.28325
715.71         56.2963
716.13        56.47789
716.56        56.51696
716.98        56.60476
717.40        56.63003
717.82        56.61327
718.24        56.56588
718.66        56.51276
719.08        56.46919
719.50        56.42836
719.92        56.39923
720.34        56.39381
720.76        56.41514
721.19        56.45757
721.61        56.52628
722.03        56.59998
722.45        56.67097
722.87        56.73665
723.29        56.80324
723.71        56.88309
724.13        56.97638
724.55        57.07757
724.97        57.16431
725.39         57.2031
725.81        57.18917
726.23        57.13169
726.65        57.06666
727.07        57.05708
727.49        57.11552
727.91        57.20833
728.33        57.29625
728.75        57.35235
729.17         57.3452
729.59        57.21228
730.01         57.0136
730.43        56.92913
730.85        56.98646
731.27        57.08308
731.69        57.19335
732.10        57.27443
732.52        57.47113
732.94        57.39409
733.36        57.14996
733.78        57.03324
734.20         57.0821
734.62        57.05981
735.04        57.08915
735.46        57.13675
735.88        57.23787
736.30        57.38005
736.72        57.51381
737.13        57.58843
737.55        57.55788
737.97        57.38111
738.39        57.15358
738.81        57.20527
739.23        57.48996
739.65         57.5582
740.06        57.37086
740.48        57.32388
740.90        57.39141
741.32        57.36324
741.74        57.27175
742.16        57.29376
742.57        57.45547
742.99         57.6795
743.41        57.91187
743.83        58.05447
744.25        58.08083
744.67        58.01773
745.08        57.93157
745.50        57.89246
745.92        57.93959
746.34        58.05494
746.75        58.18142
747.17        58.22247
747.59        58.15959
748.01        57.99369
748.42        57.81713
748.84        57.80034
749.26        57.93754
749.68        58.13279
750.09        58.29201
750.51        58.20165
750.93        57.93542
751.35        57.90413
751.76        58.09966
752.18        58.15221
752.60        58.05541
753.01        58.05462
753.43        58.12178
753.85         58.1406
754.27        58.10215
754.68        58.03513
755.10        57.97382
755.52        57.94648
755.93         57.9623
756.35        58.02358
756.77        58.10424
757.18        58.11708
757.60        58.04285
758.02        57.97052
758.43        57.99904
758.85        57.75399
759.26        58.20657
759.68        58.37175
760.10        58.41002
760.51        58.15968
760.93        58.33083
761.34        58.21906
761.76        58.10782
762.18        58.23347
762.59        58.50694
763.01         58.7292
763.42        58.12502
763.84        58.25009
764.26        58.45611
764.67        58.74001
765.09        58.90715
765.50        58.99329
765.92        59.01152
766.33        58.93595
766.75        58.80485
767.16        58.78379
767.58        58.84706
768.00        59.01015
768.41         59.2182
768.83        59.19989
769.24        58.91405
769.66        58.94812
770.07        58.38663
770.49        58.39404
770.90         58.6349
771.32        58.70153
771.73        58.57854
772.15        58.58542
772.56          58.737
772.97        58.82577
773.39        58.81707
773.80        58.82706
774.22         58.8312
774.63        58.82007
775.05         58.7962
775.46        58.81174
775.88        58.85454
776.29        58.93752
776.70        59.01691
777.12        59.02761
777.53        58.97356
777.95        58.87265
778.36        58.75871
778.77        58.67939
779.19        58.65359
779.60        58.67698
780.02        58.74184
780.43        58.85866
780.84        59.01852
781.26        59.17702
781.67        59.34665
782.09        59.53108
782.50        59.68626
782.91        59.74513
783.33        59.69514
783.74        59.65619
784.15         59.6127
784.57        59.52652
784.98        59.43936
785.39        59.41722
785.81        59.47017
786.22        59.57607
786.63        59.70165
787.04        59.79308
787.46        59.84449
787.87        59.85182
788.28        59.83552
788.70        59.81661
789.11        59.79013
789.52        59.76549
789.93        59.75689
790.35        59.77904
790.76        59.84257
791.17        59.93977
791.58        60.05976
792.00        60.14886
792.41        60.22032
792.82        60.32602
793.23        60.43462
793.65        60.42341
794.06        60.39204
794.47        60.51992
794.88        60.69598
795.29        61.24961
795.71        60.94677
796.12        60.93824
796.53        60.88732
796.94        60.90604
797.35        60.94468
797.76         60.7578
798.18        60.41998
798.59        60.25914
799.00        60.30929
799.41        60.39642
799.82        60.47105
800.23        60.53113
800.64         60.5531
801.06        60.51477
801.47        60.47069
801.88        60.44331
802.29        60.44306
802.70        60.45839
803.11        60.47785
803.52        60.48355
803.93        60.47804
804.34        60.47282
804.75        60.48157
805.17        60.54776
805.58        60.70364
805.99        60.81445
806.40        60.87671
806.81        61.13388
807.22        61.45391
807.63        61.28679
808.04        60.74961
808.45        60.55135
808.86        60.76762
809.27        61.01308
809.68        61.21069
810.09        61.39412
810.50        61.52142
810.91         61.5829
811.32        61.58022
811.73        61.51691
812.14        61.40331
812.55        61.24188
812.96        61.06683
813.37        60.93776
813.78        60.87763
814.19        60.88408
814.60        60.93192
815.01        60.97261
815.42         60.9914
815.83        60.99706
816.24         61.0071
816.65        61.05208
817.05        61.14199
817.46        61.23945
817.87         61.3342
818.28        61.37636
818.69        61.36243
819.10        61.30939
819.51        61.27087
819.92        61.34026
820.33        61.53013
820.74        61.79106
821.14        62.05288
821.55        62.23238
821.96        62.28896
822.37        62.24953
822.78        62.11368
823.19        61.88708
823.60        61.59321
824.00        61.25291
824.41        60.90969
824.82        60.69216
825.23        60.63516
825.64         60.7265
826.04        60.91305
826.45         61.0609
826.86        61.14404
827.27        61.18671
827.68        61.22958
828.08        61.36799
828.49        61.54867
828.90        61.77813
829.31        62.01679
829.72        62.10214
830.12        62.00832
830.53        62.19358
830.94        61.87188
831.35        61.69613
831.75        61.46558
832.16        61.18649
832.57        60.94979
832.97        60.90139
833.38        61.06124
833.79        61.37372
834.20        61.74072
834.60        62.01125
835.01         62.1418
835.42        62.17691
835.82        62.15089
836.23        62.08814
836.64        62.02668
837.04        61.95808
837.45        61.90375
837.86        61.95829
838.26        62.13872
838.67        62.41041
839.08        62.69028
839.48        62.82264
839.89        62.76923
840.29        62.57946
840.70        62.35352
841.11        62.25645
841.51        62.34741
841.92         62.5398
842.33        62.78092
842.73        62.97797
843.14        63.05355
843.54        63.07578
843.95         63.0388
844.35        62.95437
844.76        62.82959
845.17        62.65241
845.57        62.50143
845.98        62.47759
846.38        62.62194
846.79        62.88979
847.19        63.18052
847.60        63.24812
848.00        63.07559
848.41        62.69538
848.81        62.30117
849.22        62.16804
849.62        62.39354
850.03        62.83725
850.43        63.34431
850.84        63.56994
851.24         63.4781
851.65         63.1185
852.05        62.65285
852.46        62.29016
852.86         62.1277
853.27        62.13659
853.67        62.21037
854.07        62.33404
854.48        62.45128
854.88        62.59118
855.29        62.70924
855.69        62.86132
856.10         62.9558
856.50        63.05665
856.90        63.04636
857.31        62.79193
857.71        62.33981
858.12        61.69268
858.52        61.05037
858.92        60.68814
859.33         60.6734
859.73        60.99224
860.13         61.4575
860.54         61.7395
860.94        61.80215
861.34        61.68545
861.75        61.51572
862.15        61.58681
862.55        61.91957
862.96         62.3848
863.36        62.84002
863.76        63.01982
864.17        62.85417
864.57        62.46418
864.97        61.94316
865.38        61.42668
865.78        61.03008
866.18        60.72804
866.58        60.59891
866.99        60.74115
867.39        61.17675
867.79         61.8364
868.19        62.55909
868.60         63.0263
869.00        63.25663
869.40        63.50882
869.80        63.69935
870.21        63.48031
870.61        62.89499
871.01        62.12524
871.41        61.36157
871.81        60.76911
872.22        60.43043
872.62        60.34109
873.02         60.4272
873.42        60.72532
873.82        60.97458
874.22        60.62965
874.63        60.07313
875.03         60.0577
875.43          60.662
875.83        62.54979
876.23        62.56411
876.63        62.07592
877.03         60.7196
877.44         57.9314
877.84        176.2081
878.24        57.92365
878.64        58.75003
879.04        60.64957
879.44        61.55426
879.84        58.24845
880.24        63.86889
880.64        64.21371
881.04        61.76064
881.44        59.93256
881.84         59.3422
882.24         60.0668
882.65        61.40057
883.05        61.79654
883.45        60.96346
883.85         59.8576
884.25        58.98422
884.65        58.70255
885.05        59.14635
885.45        60.08715
885.85        61.15267
886.25         61.8445
886.65        62.02843
887.05        61.86591
887.45         61.4748
887.85        61.05418
888.25         60.7075
888.65        60.36946
889.04        60.12707
889.44        60.13954
889.84        60.41043
890.24        60.90178
890.64        61.44252
891.04        61.76311
891.44        61.81205
891.84        61.66647
892.24        61.43782
892.64        61.33091
893.04        61.40902
893.44        61.59447
893.83        61.85987
894.23        62.13846
894.63        62.41044
895.03        62.70697
895.43        62.96471
895.83        63.06906
896.23         63.0091
896.63        62.81029
897.02         62.5871
897.42        62.57235
897.82        62.77668
898.22        63.13632
898.62        63.50208
899.01        63.63739
899.41        63.46248
899.81        63.06412
900.21        62.57454
900.61        62.21088
901.00        62.02716
901.40        62.02779
901.80        62.13674
902.20        62.08709
902.59        61.81558
902.99         61.6877
903.39        61.90989
903.79        61.01556
904.18        61.87151
904.58        62.11828
904.98        62.42034
905.38        62.44089
905.77        62.13345
906.17        61.61386
906.57        61.03359
906.96         60.7472
907.36        60.84017
907.76        61.22312
908.15        61.77683
908.55        62.15582
908.95        62.30493
909.34        62.26624
909.74        62.17802
910.14        62.21902
910.53        62.42905
910.93        62.72631
911.33        62.95679
911.72        62.88633
912.12        62.48773
912.52        61.86272
912.91        61.18967
913.31        60.82091
913.70        60.81707
914.10        61.08342
914.49        61.48607
914.89         61.7138
915.29        61.70107
915.68        61.51938
916.08        61.30734
916.47        61.23317
916.87        61.37273
917.26        61.65752
917.66        61.98538
918.05        62.22069
918.45        62.30384
918.84        62.28344
919.24        62.24614
919.64        62.38831
920.03        62.74277
920.42        63.22006
920.82        63.64336
921.21        63.75269
921.61        63.52675
922.00        63.12504
922.40        62.78622
922.79          62.746
923.19        62.68053
923.58        63.40693
923.98        65.18151
924.37        65.29881
924.77        62.29145
925.16         70.4289
925.55        63.92723
925.95        64.26746
926.34        64.13005
926.74        63.32196
927.13        61.85112
927.52        61.01492
927.92        61.33958
928.31        62.11108
928.70        63.07713
929.10        63.79655
929.49        64.17126
929.89        64.34502
930.28        64.29442
930.67        63.88557
931.07        63.17925
931.46        62.11725
931.85         61.0626
932.24         61.1049
932.64        62.39268
933.03        63.97214
933.42        64.95469
933.82        67.58355
934.21        66.09228
934.60        64.98022
934.99        63.81542
935.39        63.57775
935.78        64.28933
936.17        66.36185
936.56        72.88829
936.96        65.50574
937.35        69.29469
937.74        65.63806
938.13        62.96341
938.53        61.01314
938.92        60.61969
939.31        62.24365
939.70        64.33949
940.09        65.32666
940.49        64.87596
940.88         63.5335
941.27         61.8758
941.66        61.00154
942.05         61.3127
942.44        62.35891
942.84        63.61818
943.23        64.48724
943.62        64.76645
944.01        64.64872
944.40        64.39342
944.79        64.40598
945.18        64.78882
945.57        65.38477
945.97        65.86571
946.36        65.86021
946.75        65.25075
947.14        64.18385
947.53        63.04001
947.92        62.46053
948.31        62.61498
948.70        63.30309
949.09        64.11993
949.48        64.43351
949.87        64.09923
950.26        63.33184
950.65        62.42722
951.04        61.86789
951.43        61.80412
951.82        62.06518
952.21        62.51171
952.60        62.91226
952.99        63.15452
953.38        63.31709
953.77        63.38375
954.16        63.31231
954.55        63.12407
954.94        62.82733
955.33         62.5033
955.72        62.33323
956.11        62.36329
956.50        62.51497
956.89        62.76127
957.28        63.03838
957.66        63.33807
958.05        63.63976
958.44        63.79123
958.83        63.53874
959.22        62.85611
959.61        61.76778
960.00        60.66475
960.39        60.30275
960.78        60.87264
961.16        62.17696
961.55        63.52764
961.94        64.10239
962.33        63.75672
962.72        62.68469
963.11        61.41874
963.49        61.04792
963.88        61.88711
964.27        63.52417
964.66        65.23313
965.04        66.04347
965.43        65.71595
965.82        64.61214
966.21        63.20902
966.60        62.34386
966.98        62.30185
967.37        62.80973
967.76        63.58013
968.15         64.1414
968.53        64.35476
968.92        64.38984
969.31        64.31271
969.69        64.20132
970.08        64.06873
970.47        63.80577
970.86        63.57341
971.24        63.68804
971.63        64.15499
972.02        64.90993
972.40        65.55299
972.79        65.37194
973.17        64.33829
973.56        62.68699
973.95        61.00373
974.33        60.34407
974.72        60.99648
975.11        62.57758
975.49        64.65122
975.88         66.4037
976.26        67.58178
976.65        68.32693
977.04        68.59103
977.42        68.27826
977.81        67.39807
978.19        65.86531
978.58        64.32193
978.96        63.95433
979.35        64.99271
979.74        67.00414
980.12        69.08514
980.51         69.8968
980.89        69.36657
981.28        67.74137
981.66        65.55538
982.05        64.21208
982.43        64.27358
982.82        65.37824
983.20        66.89489
983.59        67.83143
983.97        67.95849
984.35         67.5537
984.74        66.87289
985.12        66.42204
985.51         66.3578
985.89        66.58293
986.28        66.90791
986.66        67.16252
987.04        67.35368
987.43         67.4473
987.81        67.36349
988.20        68.44131
988.58        70.77321
988.96        71.50733
989.35         69.8295
989.73        75.53937
990.12         71.7318
990.50        71.45545
990.88        70.27852
991.27        69.07307
991.65        67.91653
992.03         66.9371
992.42        66.44206
992.80        66.25518
993.18          66.359
993.56        66.85015
993.95        67.43715
994.33        67.57877
994.71        67.17327
995.10        66.32057
995.48        65.41222
995.86        65.11922
996.24        65.60476
996.63        66.59077
997.01         67.8186
997.39        68.67363
997.77        68.97539
998.15        68.88462
998.54        68.67643
998.92        68.68626
999.30        69.06682
999.68        69.73499
1000.06        70.44766
1000.45        70.69656
1000.83        70.42531
1001.21        69.80044
1001.59        69.20425
1001.97        69.17672
1002.35         69.7647
1002.73        70.69076
1003.12        71.66212
1003.50        72.38649
1003.88        72.77983
1004.26        72.97324
1004.64        72.94053
1005.02        72.63738
1005.40         72.0708
1005.78        71.18857
1006.16        70.26685
1006.54        69.75578
1006.92        69.78468
1007.30        70.37455
1007.69        71.02055
1008.07        71.03354
1008.45        70.26582
1008.83        68.82674
1009.21        67.54057
1009.59        68.05953
1009.97        70.53035
1010.35        73.96791
1010.73        77.05813
1011.11        78.67657
1011.49        78.85056
1011.86        77.66438
1012.24        75.25939
1012.62        75.73148
1013.00        76.41803
1013.38        76.67765
1013.76         74.8441
1014.14        79.53902
1014.52        85.97287
1014.90        78.42009
1015.28        79.80444
1015.66        81.27866
1016.04        77.70021
1016.41        77.84911
1016.79        76.81834
1017.17        76.39883
1017.55        76.03865
1017.93        75.97087
1018.31        76.44947
1018.69        77.23857
1019.06        78.28606
1019.44        79.51766
1019.82         80.4966
1020.20         80.6273
1020.58        79.79762
1020.95         77.8592
1021.33        75.38618
1021.71        74.17812
1022.09        75.11795
1022.46        77.40383
1022.84        79.61234
1023.22        80.66514
1023.60        80.61564
1023.97         79.8621
1024.35        78.86009
1024.73         78.5066
