SpectraSmart Spectrum 2.9.0.0
--------- Device Information -----------
Spectrum Name :  反射率_0
Saving Time :  2024/04/21 00:05:22
Spectro-Module Model Name : SE2030-DUVN
Spectro-Module Serial Number : OS361AC55029948
Wavelength Start : 200
Wavelength End : 1025
Wavelength Unit : Wavelength(nm)
Spectrum Unit : Reflectance(%)
-----------Spectrum Setting ------------
Integration Time : 20ms
Average : 10
Boxcar : 0
Background removal :  enabled
linearity correction :  enabled
SC :  disabled
Intensity correction :  disabled
DWT denoise :  enabled
savitzky-golay :  disabled
FFT :  disabled
Running average :  disabled
Kalman :  disabled
High pass :  disabled
---------------BEGIN--------------------
Wavelength(nm)             Reflectance(%)
200.29               0
200.75       -81.31748
201.21       -21.17522
201.67        11.36105
202.13        22.01561
202.58        19.36657
203.04        8.201749
203.50       -7.361964
203.96       -15.95746
204.42       -12.31958
204.88       -1.278193
205.34        10.21065
205.80        12.48418
206.26        2.803113
206.72       -15.70801
207.18       -40.72019
207.64       -63.87887
208.10       -76.06841
208.55       -80.24162
209.01       -64.62137
209.47       -25.63903
209.93        9.851064
210.39        34.24246
210.85        47.50932
211.31        50.19785
211.77        44.06715
212.23        27.35618
212.69       -6.762742
213.14       -64.36464
213.60       -154.3445
214.06       -378.3955
214.52       -805.4663
214.98        -329.185
215.44       -89.92766
215.90       -14.07395
216.36        8.479328
216.81        5.421181
217.27       -23.37405
217.73       -162.4356
218.19        1478.499
218.65        577.4604
219.11       -1206.047
219.57       -46.12882
220.02        25.55954
220.48         37.1941
220.94        28.18107
221.40        -4.88993
221.86       -85.65248
222.32       -144.7701
222.77       -79.54568
223.23       -18.32508
223.69        13.48029
224.15        24.47915
224.61        24.64422
225.06        20.08996
225.52        12.91564
225.98        5.767839
226.44       0.2560081
226.90       -5.718394
227.36       -8.322137
227.81       -1.343933
228.27        10.55497
228.73        22.32436
229.19        29.77156
229.65        30.74214
230.10        26.31236
230.56        18.04598
231.02        7.524008
231.48       0.9264073
231.93        2.483291
232.39        9.676707
232.85        17.59269
233.31        22.19559
233.77         23.7538
234.22        24.03955
234.68        23.53868
235.14        23.02621
235.60        23.11701
236.05        22.67334
236.51        21.69453
236.97        26.10746
237.43        36.15273
237.88        41.99587
238.34        39.43859
238.80        59.82164
239.26        47.15314
239.71         42.4127
240.17        30.44655
240.63        18.80169
241.08        13.11187
241.54        18.17483
242.00        32.30774
242.46        39.42406
242.91        34.67519
243.37        18.11669
243.83       -6.756758
244.28       -21.42589
244.74       -14.51365
245.20        3.661257
245.66         21.4983
246.11        28.01147
246.57        21.93309
247.03        7.780112
247.48       -13.18976
247.94       -40.27563
248.40       -80.72363
248.85       -177.4351
249.31       -471.5059
249.77       -696.7271
250.22       -242.1577
250.68        -54.0634
251.14         5.92113
251.59        22.25977
252.05        20.77423
252.51        7.483351
252.96       -15.24347
253.42       -30.68246
253.88        -25.7244
254.33       -7.826581
254.79        13.14936
255.25        27.83895
255.70        35.71668
256.16        40.33342
256.62        43.33267
257.07         45.7111
257.53        47.97519
257.99         49.6812
258.44        50.59442
258.90        51.14219
259.35        50.95623
259.81        50.53912
260.27        49.73713
260.72          48.462
261.18        47.17517
261.63        45.81906
262.09        44.62395
262.55        43.45342
263.00        42.24569
263.46        41.16817
263.91        40.20712
264.37        39.70601
264.83        39.55646
265.28        39.57287
265.74        39.62456
266.19        39.38054
266.65        38.84278
267.11        38.06977
267.56        37.11506
268.02        36.14703
268.47        35.18683
268.93        34.23911
269.38        33.30442
269.84        32.44238
270.30        31.65511
270.75        30.94275
271.21         30.3175
271.66        29.72273
272.12        29.16308
272.57        28.62638
273.03        28.10963
273.48        27.57796
273.94        27.04749
274.39        26.50069
274.85        25.98434
275.31        25.50972
275.76        25.07622
276.22        24.70685
276.67        24.38353
277.13        24.14447
277.58         23.9497
278.04        23.80317
278.49        23.63892
278.95         23.4335
279.40        23.14293
279.86        22.80846
280.31        22.41881
280.77        22.03416
281.22         21.6455
281.68        21.30059
282.13        20.96689
282.59          20.664
283.04        20.37491
283.50        20.11328
283.95        19.92135
284.41        19.88271
284.86        19.98617
285.32        20.20667
285.77        20.41696
286.22        20.44429
286.68        20.28614
287.13        19.96963
287.59        19.67616
288.04         19.5782
288.50        19.68251
288.95        20.05144
289.41        20.58817
289.86        20.64711
290.32        20.11328
290.77        21.05541
291.22        20.16729
291.68        20.30387
292.13        20.50854
292.59        20.83687
293.04        21.27474
293.50        21.87899
293.95        22.65904
294.40        23.56841
294.86        24.54347
295.31        25.46977
295.77        26.31766
296.22        27.10989
296.68        27.89162
297.13        28.73066
297.58        29.66536
298.04        30.67899
298.49         31.7825
298.95        33.01116
299.40        34.33846
299.85        35.75227
300.31         37.1794
300.76        38.48938
301.21        39.66551
301.67        40.76757
302.12        41.85198
302.58        43.09245
303.03        44.50478
303.48        46.08461
303.94        47.77783
304.39         49.4576
304.84        51.09178
305.30        52.71695
305.75        54.34317
306.20        56.07335
306.66        57.90834
307.11        59.76468
307.57        61.56662
308.02        63.15653
308.47        64.52404
308.93        65.75524
309.38        66.90768
309.83        68.08638
310.29          69.435
310.74        70.81171
311.19         72.1791
311.65        73.41593
312.10        74.48035
312.55        75.41387
313.00        76.29134
313.46        77.23122
313.91        78.24353
314.36         79.2955
314.82        80.30642
315.27        81.15376
315.72        81.81876
316.18        82.34053
316.63        82.80772
317.08        83.36612
317.53        84.04299
317.99        84.78656
318.44        85.49522
318.89        85.99456
319.35        86.24828
319.80        86.32551
320.25        86.33331
320.70        86.44753
321.16        86.71199
321.61        87.08887
322.06        87.51044
322.51        87.87283
322.97        88.13171
323.42        88.35536
323.87        88.55279
324.32        88.75224
324.78        88.94897
325.23        89.15165
325.68        89.36177
326.13        89.61564
326.59        89.89304
327.04        90.23496
327.49        90.56629
327.94        90.78796
328.39        90.88219
328.85        90.85293
329.30         90.8375
329.75        90.95547
330.20        91.24492
330.66        91.63542
331.11        92.10709
331.56          92.503
332.01        92.78419
332.46        92.99663
332.92        93.13966
333.37        93.33872
333.82        93.58601
334.27         93.8559
334.72        94.17908
335.17        94.60973
335.63        95.12308
336.08        95.76284
336.53        96.41984
336.98        96.94865
337.43        97.31146
337.88        97.53599
338.34        97.70286
338.79        98.00422
339.24        98.46412
339.69        99.03174
340.14        99.60698
340.59        100.0382
341.05        100.2934
341.50         100.429
341.95        100.5375
342.40        100.7693
342.85        101.1643
343.30        101.6768
343.75        102.2096
344.20        102.6156
344.66         102.864
345.11        102.9787
345.56        103.0601
346.01         103.259
346.46        103.6078
346.91        104.0597
347.36        104.4884
347.81        104.7205
348.26          104.73
348.72        104.5317
349.17        104.3564
349.62        104.3873
350.07        104.6965
350.52        105.1921
350.97        105.6835
351.42        105.8625
351.87        105.6489
352.32        105.1413
352.77        104.5094
353.22        104.0095
353.67        103.7138
354.13        103.5689
354.58        103.4423
355.03        103.1754
355.48        102.7341
355.93        102.1854
356.38        101.6455
356.83        101.2788
357.28        101.1061
357.73        101.0552
358.18        100.9925
358.63        100.7138
359.08        100.1745
359.53        99.44982
359.98        98.65247
360.43        97.95186
360.88        97.39183
361.33        96.91341
361.78         96.4655
362.23        95.97074
362.68        95.40116
363.13        94.78859
363.58        94.13142
364.03        93.41828
364.48        92.65707
364.93        91.85303
365.38           91.04
365.83        90.28011
366.28        89.58894
366.73        88.94584
367.18        88.33916
367.63        87.74566
368.08        87.15285
368.53        86.57491
368.98           85.97
369.43        85.26301
369.88        84.44403
370.33        83.52999
370.78        82.61539
371.23        81.87944
371.68         81.3776
372.13        81.06563
372.58        80.84288
373.03          80.536
373.48        80.08697
373.93        79.53524
374.38        78.93652
374.83        78.39297
375.28        77.94055
375.72        77.53365
376.17        77.15102
376.62        76.70516
377.07        76.17165
377.52        75.56803
377.97        74.95512
378.42        74.44413
378.87        74.07019
379.32        73.80642
379.77         73.5637
380.22         73.2019
380.67        72.68505
381.11        72.04949
381.56        71.38362
382.01        70.85773
382.46        70.52433
382.91        70.34061
383.36        70.19102
383.81        69.89562
384.26        69.41713
384.71        68.81339
385.15        68.19763
385.60        67.80254
386.05         67.6461
386.50        67.65458
386.95        67.68826
387.40        67.53542
387.85        67.15971
388.29        66.60565
388.74        66.07781
389.19        65.68504
389.64        65.44673
390.09        65.29707
390.54        65.17871
390.98        64.99299
391.43        64.75758
391.88        64.50747
392.33        64.25269
392.78         64.0282
393.23        63.84542
393.67        63.57628
394.12        63.33519
394.57        63.31512
395.02        63.42905
395.47        63.26044
395.91        62.83535
396.36        62.53814
396.81        62.41259
397.26        62.26059
397.71        62.06915
398.15        61.89656
398.60        61.80094
399.05        61.65229
399.50        61.51934
399.95        61.57771
400.39          61.772
400.84        61.90465
401.29        61.86889
401.74        61.41051
402.18         60.6765
402.63        60.29735
403.08        60.29274
403.53         60.1118
403.97        59.76123
404.42        59.64658
404.87        59.72377
405.32        59.76822
405.76        59.74379
406.21        59.63211
406.66        59.48002
407.11        59.52536
407.55        59.69809
408.00        59.61823
408.45        59.29433
408.90        58.84342
409.34        58.44691
409.79        58.55807
410.24        59.04237
410.68        59.22864
411.13        59.06807
411.58        58.95965
412.03        58.94346
412.47        58.90633
412.92        58.84287
413.37        58.79589
413.81        58.77154
414.26        58.82624
414.71        58.94522
415.15        59.12364
415.60        59.28702
416.05        59.35711
416.49        59.31441
416.94        59.17784
417.39        59.00005
417.83        58.85794
418.28        58.77707
418.73        58.73011
419.17        58.71044
419.62        58.71751
420.07        58.74705
420.51        58.80161
420.96         58.8692
421.41         58.9117
421.85        58.90296
422.30        58.80841
422.74        58.67438
423.19         58.8407
423.64        59.23281
424.08        59.43154
424.53        59.35139
424.98        59.39087
425.42        59.57764
425.87        59.51865
426.31        59.31936
426.76        59.56942
427.21        60.15835
427.65        60.29961
428.10        59.98114
428.54        59.87553
428.99        60.02799
429.44        60.09856
429.88        60.03455
430.33        59.90058
430.77         59.7009
431.22        59.69252
431.66        59.85126
432.11        59.96653
432.56        60.08515
433.00        60.25869
433.45        60.23032
433.89        60.30449
434.34         60.6859
434.78        59.29078
435.23         59.4882
435.67        60.57575
436.12        60.90951
436.57        61.19106
437.01        60.80804
437.46        60.53565
437.90        60.98769
438.35        61.22374
438.79        60.99899
439.24        60.95836
439.68        60.99886
440.13        61.04527
440.57        61.07059
441.02        61.16081
441.46        61.28846
441.91        61.25674
442.35        61.08939
442.80        61.41406
443.24        62.04398
443.69        62.05215
444.13        61.47079
444.58        61.34445
445.02        61.24857
445.47         61.5136
445.91         61.8417
446.36        61.94983
446.80        61.78902
447.24        61.50488
447.69          61.241
448.13        61.30165
448.58        61.49781
449.02        61.63168
449.47        61.61259
449.91        61.63153
450.36        61.69123
450.80        61.58081
451.25        61.38398
451.69        61.38323
452.13        61.55205
452.58         61.5503
453.02        61.37579
453.47        61.30475
453.91        61.33367
454.36        61.32333
454.80        61.26536
455.24        61.21044
455.69         61.1544
456.13        61.08841
456.58        61.10283
457.02          61.002
457.46        61.02279
457.91        61.33838
458.35        60.53671
458.79        60.45794
459.24        60.67846
459.68        60.88688
460.13        60.99457
460.57        61.04511
461.01        61.06328
461.46        60.65045
461.90        60.49915
462.34        60.40045
462.79        60.21415
463.23        60.31567
463.68        60.51017
464.12        60.34212
464.56        59.92691
465.01        60.12988
465.45        60.70475
465.89         60.7901
466.34        60.42902
466.78        60.03542
467.22        59.74287
467.67        59.90697
468.11        59.96397
468.55        59.97243
468.99        59.76684
469.44         59.6872
469.88        59.73048
470.32        59.67463
470.77        59.53146
471.21        59.42647
471.65        59.37191
472.10        59.33601
472.54        59.30362
472.98        59.27875
473.42          59.263
473.87        59.25258
474.31        59.22599
474.75        59.29185
475.20        59.40039
475.64        59.36989
476.08        59.24433
476.52        59.16273
476.97        59.11189
477.41        59.22277
477.85        59.45115
478.29        58.93624
478.74        58.86621
479.18        58.68516
479.62        59.21568
480.06        59.35289
480.50        59.24358
480.95        59.28344
481.39        59.45948
481.83        59.24042
482.27        59.79082
482.72        59.17839
483.16        59.62328
483.60        59.43019
484.04        59.67905
484.48        59.34282
484.93          59.318
485.37        59.05336
485.81        59.87422
486.25        59.20243
486.69        60.21491
487.14        60.20572
487.58        59.77618
488.02         59.6939
488.46        58.95944
488.90        58.87528
489.34        58.95107
489.79        58.64537
490.23        59.16302
490.67        59.27489
491.11        59.33656
491.55        59.20764
491.99        58.97472
492.43        58.84186
492.88        58.83417
493.32        58.88438
493.76        58.89517
494.20        58.89811
494.64        58.90878
495.08        58.47398
495.52         58.2956
495.96        58.50186
496.41        59.09166
496.85        59.19797
497.29        58.79073
497.73        58.62171
498.17        58.44632
498.61        58.56738
499.05        58.78405
499.49        58.55266
499.93         58.0289
500.37        58.03042
500.82        58.50528
501.26        58.86496
501.70        58.99774
502.14        58.71527
502.58        58.56676
503.02        58.42142
503.46        58.40056
503.90        58.36575
504.34         58.2747
504.78        58.19347
505.22        58.14283
505.66         58.0291
506.10        57.86033
506.54        57.92945
506.98        58.29727
507.42        57.83026
507.86        58.38055
508.30        58.42118
508.74        58.37168
509.18        58.28894
509.62        58.18918
510.06        58.16228
510.50        58.19029
510.94        58.20073
511.38        58.16647
511.82        58.11516
512.26        58.05215
512.70        57.91903
513.14        57.73853
513.58        57.68225
514.02        57.78912
514.46        57.55763
514.90        57.77241
515.34        57.74403
515.78        57.71237
516.22        57.62947
516.66        57.37837
517.10        57.62094
517.54        57.40255
517.98         57.4654
518.42        57.51566
518.86        57.56354
519.30        57.59908
519.74        57.59533
520.18        57.57707
520.62        57.64932
521.06        57.77205
521.50        57.72931
521.93        57.55014
522.37        57.46656
522.81        57.49764
523.25        57.52298
523.69        57.51583
524.13        57.48648
524.57        57.43177
525.01         57.3529
525.45         57.2877
525.89        57.29558
526.32         57.3814
526.76        57.52505
527.20        57.67793
527.64        57.76507
528.08         57.7672
528.52        57.71341
528.96        57.62995
529.40        57.55108
529.83        57.49123
530.27        57.46623
530.71        57.47028
531.15        57.49342
531.59        57.52967
532.03        57.58428
532.46        57.63536
532.90         57.6583
533.34        57.64286
533.78        57.59968
534.22        57.53619
534.66        57.46561
535.09        57.38939
535.53        57.32559
535.97        57.27871
536.41         57.2714
536.85        57.30441
537.28        57.36782
537.72         57.4417
538.16        57.49329
538.60        57.51009
539.04        57.50163
539.47        57.45756
539.91        57.41192
540.35        57.35799
540.79         57.2959
541.22        57.23652
541.66        57.21128
542.10        57.22041
542.54         57.2535
542.97        57.28997
543.41         57.3271
543.85        57.35137
544.29        57.37512
544.72         57.3934
545.16        57.40067
545.60        57.38704
546.04         57.3836
546.47          57.447
546.91        57.34273
547.35        57.79025
547.79        57.75562
548.22          57.503
548.66        57.48841
549.10        57.68781
549.53        57.67903
549.97        57.48068
550.41        57.39935
550.84        57.45876
551.28        57.48003
551.72         57.4395
552.15        57.47083
552.59        57.60519
553.03        57.35201
553.46        57.52409
553.90        57.47154
554.34        57.42941
554.77        57.37823
555.21        57.35389
555.65        57.38386
556.08        57.45615
556.52        57.56234
556.96        57.66044
557.39        57.75006
557.83        57.80437
558.27        57.70033
558.70        57.49399
559.14        57.38235
559.57        57.37463
560.01        57.45918
560.45         57.5558
560.88        57.46561
561.32          57.276
561.75        57.19356
562.19        57.26879
562.63        57.40788
563.06         57.5491
563.50        57.54816
563.93        57.41313
564.37        57.39135
564.80        57.46135
565.24        57.49002
565.68         57.4828
566.11        57.50285
566.55        57.56258
566.98          57.699
567.42        57.87724
567.85        57.79413
568.29        57.56324
568.72        57.61749
569.16         57.9798
569.60        58.02698
570.03        58.01176
570.47        58.07179
570.90        58.28895
571.34        58.05424
571.77        58.46275
572.21        58.31331
572.64        58.28885
573.08        58.03244
573.51        58.27828
573.95        58.64424
574.38        58.34712
574.82        58.76726
575.25        58.56952
575.69        58.49082
576.12        58.14858
576.56        58.45643
576.99        58.68476
577.42        58.77232
577.86        58.89299
578.29        59.13493
578.73        59.72829
579.16        58.73717
579.60        58.28664
580.03        58.74027
580.47         58.7035
580.90        58.69969
581.33        58.74583
581.77        59.18302
582.20        59.40358
582.64        59.50743
583.07         58.9242
583.51        58.54856
583.94        58.37799
584.37        58.55264
584.81        58.20091
585.24        58.22023
585.68        58.67214
586.11        58.62708
586.54        58.38741
586.98         58.5046
587.41         58.5048
587.85        58.69446
588.28        58.70144
588.71        58.52932
589.15        58.53809
589.58        58.36125
590.01         58.2266
590.45        58.08922
590.88        58.29198
591.31        58.09217
591.75        58.24303
592.18        58.26843
592.61        58.30619
593.05         58.6289
593.48        58.78269
593.91         58.5106
594.35        58.70353
594.78        58.61304
595.21        58.50317
595.65        58.42786
596.08        58.37634
596.51        58.53971
596.94         58.3545
597.38        58.34185
597.81        58.38786
598.24        58.46669
598.68        58.22002
599.11        58.56999
599.54        58.76875
599.97         58.5121
600.41        58.63617
600.84        58.91429
601.27        58.84776
601.70        58.61591
602.14        58.43188
602.57        58.29303
603.00        58.29842
603.43         58.6266
603.87        58.78101
604.30        58.69639
604.73        58.67839
605.16        58.41434
605.60        58.52619
606.03        58.51616
606.46        58.48334
606.89        58.69622
607.32        58.20818
607.76        58.79571
608.19        58.64249
608.62        58.53461
609.05        59.12684
609.48        58.58705
609.92        58.62561
610.35        58.48867
610.78        58.71392
611.21        58.36673
611.64        58.53614
612.07        58.43937
612.50        58.49063
612.94        58.48616
613.37        58.48473
613.80        58.47469
614.23        58.45282
614.66        58.46528
615.09          58.505
615.52        58.50063
615.96        58.45158
616.39        58.44295
616.82        58.48639
617.25        58.36212
617.68        58.45647
618.11        58.30401
618.54        58.23194
618.97        58.14143
619.40        58.06022
619.84        58.21438
620.27        58.03903
620.70        58.03702
621.13        58.04915
621.56         58.0653
621.99        58.10413
622.42        58.26435
622.85         58.4655
623.28         58.5141
623.71        58.42291
624.14         58.4538
624.57        58.35582
625.00        58.72182
625.43        58.21024
625.86        58.22272
626.29        58.39339
626.72        58.16213
627.15        58.21146
627.58        58.12141
628.01        58.19472
628.44        57.97753
628.87        58.14846
629.30         58.0615
629.73        58.09885
630.16        58.14877
630.59        57.91073
631.02        58.20536
631.45        58.07488
631.88        58.13247
632.31        58.12019
632.74        58.00368
633.17        57.99879
633.60        57.93799
634.03        57.89627
634.46        57.91824
634.89        57.89894
635.32        57.89629
635.75        57.87544
636.18        57.84551
636.61        57.82182
637.04         57.8312
637.47        57.87773
637.89        57.95515
638.32        58.02641
638.75        58.05719
639.18         58.0387
639.61        57.98397
640.04        57.91658
640.47        57.87585
640.90        57.87197
641.33        57.89091
641.76        57.92143
642.18        57.95039
642.61        57.95902
643.04        57.96551
643.47        57.96433
643.90        57.94884
644.33        57.92286
644.76         57.8741
645.18        57.83345
645.61        57.87643
646.04        57.99324
646.47        58.09924
646.90        58.16955
647.33        58.21673
647.75        58.22313
648.18         58.1987
648.61         58.1659
649.04         58.0979
649.47        57.99004
649.89        58.16107
650.32        57.99626
650.75        58.09132
651.18        58.21626
651.61        58.22058
652.03        58.09093
652.46        57.97213
652.89        57.96557
653.32         57.9756
653.74        57.89444
654.17        58.42149
654.60        57.84901
655.03        57.73642
655.46        57.91378
655.88        58.84131
656.31        59.71215
656.74        63.43138
657.16        61.88179
657.59        60.43179
658.02        58.47961
658.45        58.44587
658.87         58.0071
659.30        58.18862
659.73        58.31873
660.15        57.75594
660.58        58.56902
661.01        58.70399
661.44        58.72638
661.86        58.51623
662.29        58.18187
662.72        58.06947
663.14        58.18477
663.57        58.23505
664.00        58.18863
664.42         58.2046
664.85        58.28069
665.27        58.21194
665.70        58.20499
666.13         58.1963
666.55        58.25482
666.98        58.33853
667.41        58.41863
667.83        58.46002
668.26        58.46043
668.69        58.38336
669.11        58.25551
669.54        58.30661
669.96        58.59064
670.39         58.3121
670.82         58.8242
671.24        58.77836
671.67        58.61784
672.09        58.64532
672.52        58.85431
672.94        58.83126
673.37         58.6069
673.80        58.55225
674.22         58.6698
674.65        58.67503
675.07        58.57743
675.50        58.50819
675.92        58.48768
676.35        58.47368
676.77         58.4671
677.20        58.49308
677.62        58.56127
678.05        58.60301
678.47        58.59703
678.90        58.83677
679.32        58.78849
679.75        58.87019
680.17        58.92171
680.60        58.95913
681.02        58.97022
681.45        58.94869
681.87        58.90763
682.30        58.81506
682.72        58.72675
683.15        58.75401
683.57        58.85743
684.00        59.00378
684.42        58.82191
684.85        58.83482
685.27        58.92235
685.70        58.97691
686.12        58.96926
686.54        58.94735
686.97        58.90624
687.39        58.86193
687.82        58.82946
688.24        58.80564
688.66         58.7776
689.09        58.98147
689.51        58.96243
689.94        59.08926
690.36        59.20496
690.78        59.26772
691.21        59.28395
691.63        59.25916
692.06        59.24184
692.48        59.33092
692.90         59.4839
693.33        59.52261
693.75        59.44683
694.17        59.30925
694.60        59.14128
695.02        59.19794
695.44        59.22948
695.87         59.2002
696.29        59.09233
696.71        59.21145
697.14        59.48678
697.56        59.62061
697.98         59.6212
698.41        59.42979
698.83        59.64672
699.25        59.62904
699.68        59.55402
700.10        59.50069
700.52        59.47992
700.94         59.4656
701.37        59.43794
701.79        59.42133
702.21        59.39786
702.64        59.37868
703.06        59.36549
703.48        59.36347
703.90        59.37601
704.33        59.39628
704.75        59.42221
705.17        59.43063
705.59        59.41963
706.01        59.39592
706.44        59.37754
706.86        59.41128
707.28        59.49244
707.70        59.60546
708.12        59.73347
708.55        59.84218
708.97        59.91346
709.39          59.964
709.81         59.9901
710.23        59.98998
710.66        59.96996
711.08        59.94301
711.50        59.90827
711.92        59.88134
712.34        59.86794
712.76        59.86301
713.19        59.86559
713.61        59.91634
714.03        59.99077
714.45        60.09204
714.87        60.19179
715.29        60.20494
715.71        60.11492
716.13         60.1003
716.56        59.89865
716.98        59.83411
717.40        59.82965
717.82        59.87582
718.24        59.95034
718.66        60.01879
719.08        60.07072
719.50        60.11378
719.92        60.15513
720.34        60.20378
720.76        60.26115
721.19        60.31158
721.61        60.36452
722.03        60.40996
722.45        60.44735
722.87        60.48172
723.29        60.51596
723.71         60.5539
724.13        60.59699
724.55        60.64015
724.97         60.6898
725.39        60.75686
725.81        60.83903
726.23        60.93073
726.65         61.0069
727.07        61.03383
727.49        61.00835
727.91        60.92933
728.33        60.83101
728.75        60.80768
729.17        60.85923
729.59        60.88705
730.01        60.89099
730.43        60.93965
730.85        61.02768
731.27        61.10135
731.69        61.15139
732.10        61.14364
732.52        61.25965
732.94        61.09948
733.36        60.80286
733.78        60.74239
734.20        60.85913
734.62        61.06177
735.04        61.25261
735.46         61.3895
735.88        61.44416
736.30        61.43876
736.72        61.38307
737.13        61.31972
737.55        61.23336
737.97        61.09606
738.39        60.96229
738.81        61.00296
739.23        61.19297
739.65        61.32178
740.06        61.31414
740.48        61.33161
740.90        61.33812
741.32         61.2423
741.74        61.10128
742.16        61.08034
742.57        61.21533
742.99        61.42738
743.41        61.65238
743.83        61.77362
744.25        61.75697
744.67        61.63637
745.08        61.47105
745.50        61.31663
745.92        61.22087
746.34        61.17955
746.75        61.16619
747.17        61.13176
747.59        61.06911
748.01        60.96243
748.42        60.89018
748.84        60.99548
749.26        61.25299
749.68        61.57304
750.09        61.83822
750.51        61.77726
750.93        61.47575
751.35        61.41822
751.76        61.61071
752.18        61.64893
752.60         61.5342
753.01        61.54836
753.43        61.65034
753.85        61.68126
754.27        61.62622
754.68        61.52696
755.10          61.435
755.52        61.40729
755.93        61.45706
756.35        61.57096
756.77        61.70514
757.18         61.7494
757.60        61.67865
758.02        61.58614
758.43        61.58044
758.85        61.32078
759.26        61.81365
759.68        61.94411
760.10         61.5002
760.51          61.349
760.93        62.14589
761.34        61.69657
761.76        62.12996
762.18        62.15007
762.59        62.23126
763.01        62.13933
763.42        61.18328
763.84        61.14821
764.26        61.44244
764.67        61.95527
765.09        62.39456
765.50        62.72931
765.92        62.88304
766.33        62.66717
766.75         62.2037
767.16        61.98032
767.58        62.02206
768.00          62.276
768.41        62.63359
768.83        62.52488
769.24        62.01359
769.66        62.30287
770.07        62.40216
770.49        62.55402
770.90        62.45021
771.32        62.32036
771.73        62.22012
772.15        62.19767
772.56         62.2901
772.97        62.40094
773.39        62.48534
773.80        62.66088
774.22        62.83866
774.63        62.82556
775.05        62.63894
775.46        62.54957
775.88          62.564
776.29        62.56459
776.70        62.52736
777.12        62.48719
777.53        62.46098
777.95          62.444
778.36        62.43226
778.77        62.40849
779.19        62.37027
779.60        62.32574
780.02        62.30783
780.43        62.38034
780.84        62.54732
781.26        62.78815
781.67        63.05748
782.09        63.16887
782.50        63.10988
782.91        63.03977
783.33        62.98412
783.74         62.9674
784.15        62.97942
784.57        63.06387
784.98        63.19328
785.39        63.26984
785.81         63.2751
786.22        63.23359
786.63        63.18349
787.04        63.18573
787.46        63.26302
787.87        63.37127
788.28        63.47034
788.70         63.4897
789.11        63.40184
789.52        63.24958
789.93        63.09914
790.35          63.045
790.76        63.12474
791.17        63.30886
791.58        63.54478
792.00        63.72695
792.41         63.8506
792.82        63.93508
793.23        64.01859
793.65        64.10906
794.06        64.23696
794.47        64.47449
794.88        64.76463
795.29        64.75787
795.71        64.85513
796.12         64.7473
796.53        64.59282
796.94         64.5744
797.35        64.66051
797.76        64.54078
798.18        64.24406
798.59        64.09079
799.00        64.10138
799.41        64.11122
799.82        64.08899
800.23        64.06406
800.64        64.02742
801.06        63.94807
801.47        63.89425
801.88        63.90627
802.29        63.99305
802.70        64.13827
803.11        64.29415
803.52        64.37807
803.93         64.3721
804.34         64.3028
804.75        64.22182
805.17        64.21793
805.58        64.34183
805.99        64.50637
806.40        64.67876
806.81         64.9091
807.22        65.11569
807.63        65.07364
808.04         64.8562
808.45        64.79793
808.86        64.93418
809.27        65.08944
809.68         65.1908
810.09        65.18546
810.50        65.05225
810.91         64.8259
811.32        64.57427
811.73         64.4045
812.14        64.35143
812.55        64.38007
812.96           64.48
813.37        64.62725
813.78        64.79519
814.19        64.98882
814.60        65.14507
815.01        65.16661
815.42         65.0414
815.83        64.78853
816.24        64.50356
816.65        64.37416
817.05        64.46393
817.46        64.69719
817.87        64.99731
818.28        65.20079
818.69        65.26767
819.10        65.24775
819.51        65.20087
819.92         65.2318
820.33        65.36736
820.74        65.55178
821.14        65.74333
821.55        65.90836
821.96        66.01798
822.37        66.09307
822.78         66.1095
823.19        66.02296
823.60        65.83489
824.00        65.57126
824.41        65.27817
824.82        65.10246
825.23        65.07802
825.64        65.17628
826.04        65.33299
826.45        65.39796
826.86        65.34718
827.27        65.22566
827.68        65.08277
828.08        65.02997
828.49        65.03161
828.90        65.09552
829.31        65.22564
829.72        65.33082
830.12        65.39378
830.53        65.81155
830.94        65.78857
831.35        65.76783
831.75        65.53139
832.16        65.11046
832.57        64.68933
832.97        64.57604
833.38        64.83083
833.79        65.34671
834.20        65.93554
834.60        66.31264
835.01        66.40298
835.42        66.29124
835.82        66.08165
836.23        65.91121
836.64        65.85276
837.04        65.86427
837.45         65.8995
837.86        65.94637
838.26        66.00221
838.67         66.0779
839.08         66.1611
839.48        66.20585
839.89        66.19962
840.29        66.14865
840.70        66.10802
841.11        66.17174
841.51        66.37003
841.92         66.6387
842.33        66.90958
842.73        67.06679
843.14        67.03506
843.54        66.88134
843.95        66.66911
844.35        66.52781
844.76        66.48812
845.17        66.51887
845.57        66.59735
845.98        66.64934
846.38        66.68151
846.79        66.69959
847.19        66.73565
847.60        66.75721
848.00        66.79824
848.41        66.82311
848.81        66.89078
849.22        67.03805
849.62        67.29298
850.03         67.5813
850.43        67.86527
850.84        67.98529
851.24        67.95768
851.65        67.76783
852.05        67.50397
852.46         67.2334
852.86        67.01617
853.27        66.89306
853.67        66.80563
854.07        66.80427
854.48        66.84869
854.88         66.9369
855.29        67.03869
855.69        67.25321
856.10        67.47916
856.50        67.77737
856.90         67.9444
857.31        67.69937
857.71        67.06498
858.12         66.0848
858.52        65.07163
858.92        64.49225
859.33        64.47157
859.73        64.93636
860.13        65.63373
860.54        66.12222
860.94        66.31308
861.34        66.27052
861.75        66.08987
862.15        66.01904
862.55        66.08551
862.96        66.18179
863.36        66.24212
863.76        66.12582
864.17        65.81008
864.57         65.4083
864.97        64.98602
865.38           64.62
865.78        64.39359
866.18         64.2677
866.58        64.32468
866.99        64.66834
867.39        65.29791
867.79        66.12236
868.19         66.8931
868.60        67.18751
869.00        67.01131
869.40        66.62663
869.80        66.14355
870.21         65.6085
870.61        65.18651
871.01        64.94888
871.41        64.81586
871.81        64.55965
872.22        64.16245
872.62        63.71313
873.02         63.3395
873.42        63.42949
873.82        63.84525
874.22        63.97852
874.63        63.97147
875.03        64.16321
875.43        64.54093
875.83        65.82466
876.23        65.39196
876.63        64.85476
877.03        63.97567
877.44        62.16846
877.84        167.1486
878.24        63.17074
878.64         63.5169
879.04         64.4366
879.44        64.40334
879.84        60.76421
880.24        65.94691
880.64          66.437
881.04        64.44833
881.44        62.97564
881.84        62.47496
882.24        63.09732
882.65        64.21114
883.05         64.4197
883.45        63.46418
883.85        62.19276
884.25        61.15739
884.65        60.83476
885.05        61.36677
885.45        62.51149
885.85        63.76913
886.25        64.43786
886.65        64.36026
887.05        63.76091
887.45        62.93486
887.85        62.38264
888.25        62.27917
888.65         62.4613
889.04        62.82331
889.44        63.20001
889.84        63.49977
890.24        63.78259
890.64        64.01283
891.04        64.12258
891.44        64.11653
891.84        64.00648
892.24        63.84496
892.64         63.7448
893.04        63.74245
893.44        63.80556
893.83        63.94847
894.23        64.15475
894.63          64.418
895.03        64.75023
895.43        65.05687
895.83        65.17875
896.23        65.09087
896.63        64.82643
897.02        64.53151
897.42        64.48944
897.82        64.71307
898.22        65.11941
898.62        65.51128
899.01         65.5749
899.41        65.22253
899.81        64.58395
900.21        63.85581
900.61        63.35349
901.00         63.1732
901.40        63.30319
901.80        63.64339
902.20        63.89811
902.59        63.97569
902.99        64.19271
903.39        64.73472
903.79        64.24715
904.18        65.34294
904.58        65.85275
904.98        66.27069
905.38        66.13073
905.77        65.39185
906.17        64.22504
906.57        63.00494
906.96         62.4401
907.36        62.69318
907.76        63.58629
908.15        64.73783
908.55        65.34406
908.95        65.23026
909.34        64.57478
909.74        63.77787
910.14        63.44107
910.53        63.71795
910.93        64.39508
911.33        65.11733
911.72        65.33897
912.12        64.94911
912.52        64.14935
912.91        63.26846
913.31        62.88719
913.70        63.11766
914.10        63.77907
914.49         64.5928
914.89        65.01069
915.29        64.90857
915.68        64.44547
916.08        63.89573
916.47        63.64014
916.87        63.80626
917.26         64.2404
917.66        64.76424
918.05        65.12283
918.45        65.21082
918.84        65.13039
919.24        64.94936
919.64        64.82755
920.03        64.82322
920.42         64.8706
920.82        64.91021
921.21        64.87205
921.61        64.76971
922.00        64.70143
922.40        64.78546
922.79        65.05972
923.19        65.15994
923.58        65.89425
923.98         67.5281
924.37        67.59373
924.77        64.74001
925.16        72.30086
925.55        66.16068
925.95        66.48499
926.34        66.42065
926.74        65.77738
927.13        64.54113
927.52        63.86189
927.92         64.2026
928.31        64.91741
928.70        65.77365
929.10         66.3628
929.49        66.60537
929.89        66.63396
930.28         66.4724
930.67        66.06611
931.07        65.49064
931.46        64.67734
931.85        63.91077
932.24        64.10838
932.64        65.36964
933.03        66.83073
933.42        67.71033
933.82        70.13705
934.21        68.80985
934.60        67.84928
934.99        66.80901
935.39        66.50581
935.78        66.96271
936.17        68.63529
936.56        74.51882
936.96        67.40501
937.35        70.93026
937.74        67.48103
938.13        65.05183
938.53         63.4248
938.92        63.35966
939.31        65.24783
939.70        67.49663
940.09        68.46944
940.49        67.84902
940.88        66.16867
941.27        64.11804
941.66        63.03942
942.05        63.40514
942.44        64.70084
942.84        66.23615
943.23        67.14499
943.62        67.18104
944.01        66.62535
944.40        65.87754
944.79        65.58746
945.18        65.93587
945.57        66.68494
945.97        67.41239
946.36        67.60088
946.75        67.08487
947.14         66.0622
947.53        64.93498
947.92        64.37566
948.31        64.57019
948.70        65.29417
949.09        66.16116
949.48        66.58011
949.87        66.40833
950.26        65.85208
950.65        65.16933
951.04        64.76999
951.43        64.79272
951.82        65.09897
952.21        65.56924
952.60        66.01537
952.99        66.32607
953.38        66.52293
953.77        66.62853
954.16        66.66637
954.55         66.6518
954.94        66.60081
955.33        66.41087
955.72        65.93254
956.11        65.18241
956.50        64.22326
956.89         63.4119
957.28        63.28767
957.66        63.96045
958.05        65.19517
958.44        66.48374
958.83        67.04913
959.22        66.71277
959.61        65.63237
960.00        64.29133
960.39        63.64431
960.78        63.98263
961.16         65.0355
961.55        66.13957
961.94        66.49734
962.33        65.96215
962.72         64.7653
963.11        63.40962
963.49        62.91004
963.88        63.56844
964.27         64.9804
964.66        66.50949
965.04        67.31249
965.43        67.15788
965.82        66.37746
966.21        65.28106
966.60        64.41748
966.98         64.0135
967.37        63.87877
967.76        63.98494
968.15        64.28809
968.53        64.74431
968.92        65.38934
969.31        66.01923
969.69         66.2618
970.08        66.00618
970.47        65.29459
970.86        64.47256
971.24         64.1767
971.63        64.53474
972.02        65.37311
972.40        66.24228
972.79        66.37512
973.17        65.69286
973.56        64.43613
973.95           63.12
974.33        62.65189
974.72         63.2811
975.11        64.68361
975.49        66.45045
975.88        67.83233
976.26        68.64292
976.65        69.02618
977.04        69.09531
977.42        68.98849
977.81        68.74645
978.19        68.24873
978.58        67.85464
978.96        68.13551
979.35        69.10887
979.74         70.5259
980.12        71.85752
980.51        72.24082
980.89        71.68141
981.28        70.31062
981.66        68.47871
982.05        67.17511
982.43         66.8253
982.82         67.2272
983.20         68.0319
983.59        68.62493
983.97        68.85856
984.35        68.89003
984.74        68.76125
985.12        68.61461
985.51        68.48615
985.89        68.38293
986.28         68.2914
986.66        68.28473
987.04        68.42279
987.43        68.59942
987.81        68.62744
988.20        69.59689
988.58        71.59278
988.96          71.976
989.35        70.01674
989.73        75.63161
990.12        72.02367
990.50        72.09091
990.88        71.41259
991.27        70.80405
991.65        70.29649
992.03        70.04534
992.42        70.13595
992.80        70.10096
993.18        69.87569
993.56        69.61451
993.95        69.44733
994.33        69.54427
994.71        69.94061
995.10        70.50612
995.48         71.1265
995.86        71.62368
996.24         71.9157
996.63        71.97688
997.01        71.90156
997.39        71.64117
997.77        71.21617
998.15        70.65826
998.54        70.08989
998.92        69.58938
999.30        69.24287
999.68        69.08831
1000.06        69.11863
1000.45        69.23381
1000.83        69.50343
1001.21        69.92601
1001.59        70.53585
1001.97        71.39435
1002.35        72.40713
1002.73        73.38625
1003.12        74.25757
1003.50         75.0339
1003.88        75.69798
1004.26        76.31812
1004.64        76.65197
1005.02        76.21715
1005.40        74.92055
1005.78        72.90133
1006.16        70.84486
1006.54        69.86136
1006.92        70.22727
1007.30        71.69286
1007.69        73.43716
1008.07         74.3263
1008.45        74.06461
1008.83        72.92867
1009.21        71.58459
1009.59        71.41614
1009.97        72.72379
1010.35        74.76728
1010.73        76.72829
1011.11        78.02745
1011.49        78.70471
1011.86        78.67775
1012.24        77.88712
1012.62        79.28042
1013.00        80.14509
1013.38        80.21207
1013.76        78.04265
1014.14        81.27544
1014.52        86.35326
1014.90        77.33308
1015.28        77.22574
1015.66        78.35593
1016.04        75.02415
1016.41        77.06856
1016.79        78.15639
1017.17         78.9171
1017.55        78.50877
1017.93        77.41451
1018.31        76.35846
1018.69        76.07216
1019.06        76.84206
1019.44        78.29847
1019.82        79.69895
1020.20        80.05242
1020.58        79.15643
1020.95        77.03439
1021.33        74.42119
1021.71        73.44199
1022.09        75.02377
1022.46        78.00011
1022.84        80.80152
1023.22        82.37656
1023.60        82.79336
1023.97        82.47264
1024.35        81.69128
1024.73        80.96629
