SpectraSmart Spectrum 2.9.0.0
--------- Device Information -----------
Spectrum Name :  反射率_0
Saving Time :  2024/04/20 23:56:46
Spectro-Module Model Name : SE2030-DUVN
Spectro-Module Serial Number : OS361AC55029948
Wavelength Start : 200
Wavelength End : 1025
Wavelength Unit : Wavelength(nm)
Spectrum Unit : Reflectance(%)
-----------Spectrum Setting ------------
Integration Time : 20ms
Average : 10
Boxcar : 0
Background removal :  enabled
linearity correction :  enabled
SC :  disabled
Intensity correction :  disabled
DWT denoise :  enabled
savitzky-golay :  disabled
FFT :  disabled
Running average :  disabled
Kalman :  disabled
High pass :  disabled
---------------BEGIN--------------------
Wavelength(nm)             Reflectance(%)
200.29               0
200.75       -44.87836
201.21         6.10371
201.67         33.7614
202.13        47.00357
202.58         53.2882
203.04        57.04241
203.50        57.73632
203.96        53.26144
204.42        43.68106
204.88        29.26194
205.34        15.52577
205.80        9.180963
206.26        11.65465
206.72        25.73293
207.18        42.85842
207.64        39.20993
208.10        6.665271
208.55        -45.6909
209.01       -83.36726
209.47       -63.56725
209.93        -20.0029
210.39        17.35603
210.85        42.15567
211.31        54.12294
211.77        57.30445
212.23        54.68284
212.69        43.49911
213.14        18.02493
213.60       -35.90926
214.06       -207.2834
214.52       -626.7402
214.98       -282.5205
215.44       -62.16779
215.90        13.04331
216.36        38.32254
216.81        41.32644
217.27        26.50649
217.73       -52.89976
218.19        915.2551
218.65        407.3619
219.11       -863.7921
219.57       -26.50616
220.02        26.73273
220.48        35.58033
220.94        29.18702
221.40        5.848583
221.86       -49.89743
222.32       -86.49149
222.77       -36.91028
223.23        6.524523
223.69        28.41128
224.15        35.71379
224.61        35.44168
225.06        31.77074
225.52        25.94037
225.98        19.36275
226.44        13.13598
226.90        5.708483
227.36        1.104367
227.81        6.297443
228.27         17.2543
228.73        28.56561
229.19        35.75619
229.65        36.45729
230.10        31.60288
230.56        22.63605
231.02        11.08539
231.48         3.48142
231.93        4.417983
232.39        11.29657
232.85         19.0931
233.31        23.60773
233.77        25.02932
234.22        25.20154
234.68        24.49001
235.14        23.43527
235.60        22.65413
236.05         21.0656
236.51        18.96074
236.97        23.14622
237.43        34.02931
237.88        41.08207
238.34        40.13722
238.80        61.42017
239.26        50.41328
239.71         47.0064
240.17        36.50499
240.63        24.95935
241.08        16.82404
241.54        15.90643
242.00          24.134
242.46        31.46406
242.91        35.72099
243.37        39.52823
243.83        43.08228
244.28        45.67037
244.74         46.2806
245.20        43.17353
245.66        37.81046
246.11        32.40196
246.57        26.92626
247.03        21.66983
247.48        14.51215
247.94        0.661832
248.40       -27.91826
248.85       -102.8316
249.31        -342.382
249.77       -554.3821
250.22         -193.14
250.68       -37.54649
251.14        14.39901
251.59        31.99436
252.05        37.05881
252.51        36.43898
252.96        30.23712
253.42        21.37307
253.88        14.71153
254.33        11.06666
254.79        14.21719
255.25        24.00291
255.70        35.14008
256.16        44.71626
256.62        51.21579
257.07        53.93336
257.53        54.40192
257.99        53.67924
258.44        52.27784
258.90        51.23537
259.35        50.19036
259.81        49.26911
260.27        48.32463
260.72        47.32586
261.18        46.54567
261.63         45.7812
262.09         45.0321
262.55        43.93863
263.00        42.47435
263.46        40.92878
263.91         39.4295
264.37        38.50513
264.83        38.09061
265.28        37.95073
265.74        37.88272
266.19        37.46989
266.65        36.69883
267.11        35.66162
267.56        34.48491
268.02        33.43793
268.47        32.55382
268.93         31.7945
269.38         31.0547
269.84         30.2315
270.30         29.2995
270.75        28.31524
271.21        27.41003
271.66        26.71299
272.12        26.26641
272.57        25.99739
273.03         25.7955
273.48        25.47598
273.94        25.01807
274.39        24.45233
274.85        23.89734
275.31        23.47322
275.76        23.19519
276.22        23.03488
276.67        22.90264
277.13        22.73706
277.58        22.48826
278.04        22.20177
278.49        21.87979
278.95         21.5849
279.40        21.29354
279.86        21.01707
280.31        20.70067
280.77        20.33647
281.22        19.90729
281.68        19.48464
282.13        19.07952
282.59         18.7688
283.04        18.54238
283.50        18.38301
283.95         18.2967
284.41        18.30903
284.86        18.40377
285.32        18.58821
285.77        18.75581
286.22        18.75927
286.68        18.60797
287.13        18.31545
287.59        18.08993
288.04        18.14741
288.50        18.48329
288.95        19.13955
289.41        19.93941
289.86        20.11959
290.32        19.54831
290.77        20.34776
291.22        19.26415
291.68        19.30215
292.13         19.5258
292.59        19.95599
293.04        20.52485
293.50        21.20031
293.95        21.97548
294.40        22.84693
294.86        23.79381
295.31        24.76367
295.77         25.7461
296.22        26.73731
296.68         27.7735
297.13        28.91402
297.58        30.18359
298.04        31.56293
298.49        33.03205
298.95        34.57518
299.40         36.1563
299.85        37.78083
300.31        39.40755
300.76        40.95535
301.21        42.42672
301.67        43.87181
302.12        45.34049
302.58         47.0029
303.03        48.86234
303.48        50.90543
303.94        53.06649
304.39        55.19523
304.84        57.24382
305.30        59.24709
305.75        61.18721
306.20        63.13911
306.66        65.11339
307.11        67.04272
307.57        68.90541
308.02        70.61095
308.47        72.17194
308.93        73.65697
309.38        75.09229
309.83        76.55266
310.29        78.13693
310.74        79.72607
311.19        81.28313
311.65        82.70024
312.10        83.93476
312.55         85.0228
313.00        86.01354
313.46        86.99155
313.91        87.96284
314.36        88.90633
314.82        89.79844
315.27        90.59824
315.72        91.30685
316.18        91.94945
316.63        92.54031
317.08        93.10175
317.53        93.63767
317.99        94.13086
318.44        94.58795
318.89        95.00668
319.35        95.38451
319.80        95.73827
320.25        96.04396
320.70        96.26606
321.16        96.39867
321.61         96.4713
322.06        96.54675
322.51        96.73272
322.97        97.03848
323.42        97.47043
323.87        97.93204
324.32        98.27542
324.78        98.44572
325.23        98.52002
325.68        98.57323
326.13         98.7611
326.59        99.09808
327.04        99.57944
327.49        100.1015
327.94         100.526
328.39        100.8085
328.85        100.9648
329.30        101.1019
329.75         101.271
330.20        101.5055
330.66         101.751
331.11         102.064
331.56        102.4102
332.01        102.7845
332.46         103.195
332.92        103.5904
333.37        104.0143
333.82        104.4172
334.27         104.803
334.72        105.1831
335.17        105.5828
335.63        105.9823
336.08        106.4332
336.53        106.9073
336.98        107.4052
337.43        107.9186
337.88        108.4357
338.34        108.9246
338.79        109.3895
339.24        109.7985
339.69        110.1581
340.14        110.4578
340.59        110.6891
341.05        110.8652
341.50        111.0049
341.95        111.1623
342.40         111.425
342.85        111.8143
343.30         112.312
343.75        112.8437
344.20        113.2924
344.66        113.6284
345.11        113.8462
345.56        114.0218
346.01        114.2768
346.46        114.6358
346.91         115.055
347.36        115.4015
347.81        115.5238
348.26        115.4132
348.72        114.9651
349.17        114.6792
349.62        114.6246
350.07        114.9493
350.52        115.5299
350.97        116.1398
351.42        116.4015
351.87        116.2117
352.32        115.6995
352.77        115.0276
353.22        114.4431
353.67        114.0282
354.13        113.7246
354.58        113.4658
355.03        113.2049
355.48        112.9128
355.93         112.608
356.38         112.287
356.83        111.9322
357.28        111.5224
357.73        111.0367
358.18        110.4433
358.63         109.708
359.08        108.8509
359.53        107.9237
359.98        106.9799
360.43         106.086
360.88        105.2719
361.33        104.5245
361.78        103.8828
362.23        103.4035
362.68        103.0708
363.13        102.8457
363.58        102.6042
364.03        102.1529
364.48        101.4449
364.93        100.5299
365.38         99.5066
365.83        98.55013
366.28          97.717
366.73        96.95617
367.18         96.2399
367.63        95.51934
368.08        94.77832
368.53        94.05685
368.98        93.32158
369.43        92.49891
369.88        91.57798
370.33        90.56511
370.78        89.55718
371.23        88.74384
371.68        88.17793
372.13        87.81005
372.58        87.51505
373.03        87.08012
373.48        86.44294
373.93        85.66012
374.38        84.82329
374.83        84.09542
375.28        83.53203
375.72        83.06883
376.17        82.66632
376.62        82.20007
377.07        81.62991
377.52        80.97851
377.97        80.30565
378.42        79.72332
378.87        79.26936
379.32        78.91716
379.77        78.57777
380.22        78.10973
380.67        77.48038
381.11        76.73277
381.56        75.96571
382.01        75.37036
382.46        75.00117
382.91        74.79895
383.36        74.64246
383.81        74.34273
384.26        73.85332
384.71        73.23733
385.15        72.57399
385.60        72.04603
386.05        71.67308
386.50        71.40379
386.95        71.17599
387.40        70.90222
387.85        70.56692
388.29        70.16518
388.74         69.8207
389.19        69.52277
389.64        69.26369
390.09        69.00771
390.54        68.74522
390.98        68.45746
391.43        68.18768
391.88        67.94592
392.33        67.70226
392.78        67.43711
393.23        67.15948
393.67        66.76199
394.12        66.40703
394.57        66.36269
395.02        66.54019
395.47        66.45168
395.91        66.09726
396.36        65.85719
396.81        65.75814
397.26        65.59218
397.71        65.32697
398.15        65.01936
398.60        64.75404
399.05        64.36929
399.50        63.99666
399.95        64.03104
400.39        64.37959
400.84        64.48423
401.29        64.27191
401.74         63.9478
402.18        63.58972
402.63        63.29768
403.08        63.08059
403.53        62.78298
403.97        62.42324
404.42        62.17442
404.87        62.05419
405.32        62.00655
405.76        62.01051
406.21          62.098
406.66        62.19437
407.11        62.16401
407.55        62.00501
408.00        61.76691
408.45        61.51453
408.90        61.25823
409.34        61.04846
409.79        61.00023
410.24        61.06107
410.68        61.06698
411.13        60.99729
411.58        60.92508
412.03        60.87849
412.47        60.89078
412.92        60.94662
413.37        61.03928
413.81         61.1202
414.26        61.17302
414.71        61.17219
415.15        61.13567
415.60        61.06189
416.05        61.00378
416.49        60.97686
416.94        60.96129
417.39        60.93155
417.83        60.83963
418.28        60.68188
418.73        60.47454
419.17        60.26093
419.62         60.1208
420.07        60.07556
420.51        60.09995
420.96         60.1707
421.41        60.21355
421.85        60.19038
422.30        60.13595
422.74        60.07066
423.19        60.17819
423.64        60.42781
424.08        60.67082
424.53        60.80376
424.98        60.91489
425.42        60.99786
425.87        60.91537
426.31        60.75892
426.76        60.79727
427.21         61.0237
427.65        61.21669
428.10        61.26838
428.54        61.27016
428.99         61.2557
429.44        61.06405
429.88         60.7688
430.33        60.84347
430.77        61.13597
431.22        61.12928
431.66        60.86758
432.11        61.00187
432.56        61.55611
433.00        61.68691
433.45        61.17896
433.89         61.2135
434.34        61.94155
434.78        60.56108
435.23        60.67728
435.67        61.33969
436.12        61.31639
436.57         61.6609
437.01        61.75794
437.46         61.7425
437.90        62.20978
438.35        62.51365
438.79        62.38361
439.24        62.63459
439.68        62.45854
440.13        62.44283
440.57        62.38985
441.02        62.32919
441.46         62.2976
441.91        62.40362
442.35        62.55756
442.80        62.89206
443.24        63.25666
443.69        63.25249
444.13        62.91993
444.58        62.66298
445.02        62.56966
445.47        62.73651
445.91        63.06166
446.36        63.23687
446.80        63.21666
447.24        63.13831
447.69        63.06124
448.13        63.17641
448.58         63.2686
449.02        63.17841
449.47        62.90609
449.91        62.79803
450.36        62.89394
450.80        62.92744
451.25        62.92489
451.69         63.0835
452.13        63.34289
452.58        63.38037
453.02        63.19551
453.47        63.07478
453.91        63.02001
454.36        62.88061
454.80        62.66551
455.24        62.47685
455.69        62.35077
456.13        62.22575
456.58         62.1358
457.02          62.098
457.46        62.11308
457.91        62.00858
458.35        61.92154
458.79        61.89727
459.24        62.02517
459.68        62.10216
460.13        62.06459
460.57        62.12843
461.01        62.37011
461.46        61.40014
461.90        61.57405
462.34         61.5498
462.79         61.2831
463.23        61.45988
463.68        61.75353
464.12        61.61504
464.56        61.13052
465.01        61.27742
465.45        61.82494
465.89        61.78772
466.34        61.25256
466.78        60.91262
467.22        60.86951
467.67        60.87591
468.11        60.86173
468.55        60.84928
468.99        60.79541
469.44        60.75057
469.88        60.70483
470.32        60.56564
470.77        60.38208
471.21        60.29549
471.65        60.32413
472.10        60.42445
472.54        60.52037
472.98        60.52885
473.42        60.43604
473.87         60.2537
474.31        60.02221
474.75        59.97788
475.20        60.08044
475.64        60.05054
476.08        59.91208
476.52        59.84854
476.97        59.83284
477.41        59.94093
477.85        60.14712
478.29        59.71632
478.74        59.65531
479.18         59.6416
479.62        59.88128
480.06         59.9978
480.50        59.96247
480.95        60.04435
481.39        60.20419
481.83        60.12899
482.27        60.32717
482.72        60.05046
483.16        60.25644
483.60        59.97623
484.04        60.29611
484.48        60.01838
484.93        60.18494
485.37        59.67155
485.81        60.08472
486.25         59.8008
486.69         60.5458
487.14        60.02958
487.58        59.98675
488.02         59.7695
488.46        59.97346
488.90        59.84108
489.34        60.21759
489.79        59.81861
490.23        59.85822
490.67         59.7304
491.11         59.7412
491.55        59.73574
491.99        59.70432
492.43        59.68727
492.88        59.67071
493.32        59.66592
493.76        59.63025
494.20        59.62786
494.64        59.68716
495.08        59.38307
495.52        59.31304
495.96        59.42682
496.41         59.7495
496.85        59.55522
497.29        58.92997
497.73        58.85934
498.17        59.02142
498.61        59.15829
499.05        59.09645
499.49        58.98584
499.93        58.89824
500.37        58.90857
500.82        59.00758
501.26        59.24463
501.70        59.52045
502.14        59.23105
502.58        58.93731
503.02        58.74249
503.46        58.77464
503.90        58.79908
504.34        58.76912
504.78        58.76957
505.22        58.81009
505.66        58.79417
506.10        58.71197
506.54        58.78651
506.98        59.06542
507.42        58.50307
507.86        59.03576
508.30        58.77584
508.74        58.86671
509.18        58.78708
509.62        58.73366
510.06        58.72897
510.50        58.74557
510.94        58.72298
511.38        58.64498
511.82        58.56856
512.26        58.49433
512.70        58.38468
513.14         58.2718
513.58        58.22651
514.02        58.25787
514.46        58.34516
514.90        58.42726
515.34        58.44695
515.78         58.3928
516.22        58.24782
516.66         57.9198
517.10        58.12312
517.54        57.93481
517.98        58.06872
518.42        58.20097
518.86        58.28531
519.30        58.29778
519.74        58.22483
520.18        58.13462
520.62        58.20047
521.06        58.39393
521.50        58.47618
521.93        58.41838
522.37        58.36369
522.81        58.31415
523.25        58.17938
523.69        58.00126
524.13        57.89622
524.57        57.88325
525.01        57.92798
525.45        58.00879
525.89        58.08981
526.32        58.15191
526.76        58.20971
527.20        58.25427
527.64        58.27303
528.08        58.26543
528.52        58.23515
528.96        58.19615
529.40        58.16632
529.83        58.14993
530.27        58.17057
530.71         58.2069
531.15        58.22157
531.59          58.207
532.03        58.17614
532.46        58.13614
532.90        58.11138
533.34        58.10189
533.78        58.10293
534.22        58.09687
534.66        58.05629
535.09        57.97299
535.53        57.88118
535.97        57.79662
536.41        57.75945
536.85        57.77729
537.28        57.83144
537.72         57.9081
538.16        57.98603
538.60        58.04974
539.04        58.10377
539.47         58.1152
539.91        58.08374
540.35        57.99781
540.79        57.86985
541.22        57.73421
541.66        57.66105
542.10        57.66193
542.54        57.71661
542.97        57.79332
543.41        57.86826
543.85        57.92577
544.29        57.98779
544.72        58.03252
545.16        58.07871
545.60        58.11416
546.04         58.0573
546.47        57.97101
546.91        58.08615
547.35        58.32594
547.79        58.41854
548.22        58.30311
548.66        58.00601
549.10        57.64827
549.53        57.55605
549.97        57.71199
550.41        57.72821
550.84        57.60054
551.28        57.55627
551.72        57.59283
552.15        57.68701
552.59         57.8661
553.03        57.67831
553.46        57.93112
553.90        57.91651
554.34        57.85579
554.77        57.80643
555.21        57.84246
555.65         57.6389
556.08        57.83429
556.52        57.93472
556.96        58.06037
557.39        58.05439
557.83        57.93805
558.27        57.81576
558.70        57.71717
559.14        57.63641
559.57        57.57878
560.01        57.61345
560.45        57.67909
560.88        57.66047
561.32        57.59324
561.75        57.43641
562.19        57.29488
562.63        57.38949
563.06        57.64573
563.50        57.69819
563.93          57.534
564.37        57.43007
564.80        57.41365
565.24        57.51278
565.68        57.68551
566.11        57.76154
566.55        57.74172
566.98        57.76952
567.42        57.85137
567.85        57.76852
568.29        57.61035
568.72        57.62645
569.16        57.84055
569.60         57.8716
570.03        57.98477
570.47        58.03769
570.90        58.05957
571.34        58.22939
571.77        58.30781
572.21        58.17855
572.64        58.05598
573.08        57.80225
573.51        58.05788
573.95        58.18249
574.38        57.93085
574.82        58.29739
575.25        58.49797
575.69        58.21164
576.12        57.81032
576.56        57.81842
576.99        58.14241
577.42          58.151
577.86         57.9513
578.29        58.65512
578.73        58.75945
579.16        58.38036
579.60        57.68699
580.03         58.1441
580.47        58.26231
580.90        58.16976
581.33        58.28375
581.77        58.48587
582.20        58.55115
582.64        58.41778
583.07        58.31436
583.51        58.06409
583.94        57.95786
584.37        58.03663
584.81        57.55767
585.24        57.64043
585.68        58.34137
586.11        58.11089
586.54        58.14637
586.98        57.99736
587.41        57.84742
587.85        57.97219
588.28        58.04842
588.71        58.25848
589.15        58.11641
589.58        57.89544
590.01        57.79582
590.45        57.98589
590.88        57.97625
591.31        57.74628
591.75        57.82677
592.18        57.69503
592.61        57.52052
593.05        57.93332
593.48        58.30461
593.91        57.76049
594.35        58.21006
594.78        57.92286
595.21        57.90359
595.65        57.89177
596.08        57.97115
596.51        58.13312
596.94        57.83218
597.38        57.81584
597.81        57.98939
598.24        58.00394
598.68        57.92485
599.11        58.12189
599.54         58.2436
599.97        57.84058
600.41        57.83646
600.84        58.04509
601.27        58.03563
601.70        57.93329
602.14         57.8889
602.57        57.81059
603.00        57.82493
603.43        57.84536
603.87        58.11467
604.30        58.00155
604.73        58.06733
605.16        57.68075
605.60        57.90282
606.03        57.95695
606.46        58.15639
606.89        57.66314
607.32        57.65353
607.76        58.06379
608.19        58.06972
608.62        57.73175
609.05          58.434
609.48        58.00857
609.92        58.35434
610.35        57.82988
610.78        58.23447
611.21        57.79013
611.64        57.95848
612.07        57.88623
612.50        57.89167
612.94         57.8845
613.37          57.864
613.80        57.96495
614.23        58.12621
614.66        57.84713
615.09        57.61513
615.52        57.53731
615.96        57.69953
616.39        57.84919
616.82        57.76099
617.25        57.59615
617.68        57.80449
618.11        57.68864
618.54        57.59125
618.97        57.46688
619.40        57.38702
619.84        57.37971
620.27        57.44031
620.70        57.42811
621.13        57.35837
621.56        57.45189
621.99        57.69826
622.42        57.80975
622.85        57.71774
623.28        57.80671
623.71        57.71986
624.14        57.70452
624.57        57.67807
625.00        58.03569
625.43        57.59677
625.86        57.61206
626.29        57.72148
626.72        57.72226
627.15        57.60366
627.58        57.57847
628.01        57.71155
628.44        57.44049
628.87        57.45507
629.30        57.74686
629.73        57.56501
630.16        57.58224
630.59        57.34014
631.02        57.53167
631.45        57.28244
631.88        57.30688
632.31        57.38656
632.74        57.23306
633.17        57.40989
633.60        57.38052
634.03        57.31761
634.46        57.27376
634.89        57.18116
635.32        57.14727
635.75        57.14841
636.18        57.18065
636.61        57.23257
637.04        57.29003
637.47        57.34492
637.89         57.4023
638.32        57.44437
638.75        57.46739
639.18        57.46882
639.61        57.44971
640.04        57.41278
640.47        57.36442
640.90        57.31052
641.33        57.25463
641.76        57.20678
642.18        57.18694
642.61        57.18693
643.04        57.21087
643.47        57.25154
643.90         57.2996
644.33        57.34889
644.76        57.38439
645.18        57.40776
645.61         57.4486
646.04        57.49155
646.47        57.46746
646.90        57.39065
647.33        57.34182
647.75         57.3249
648.18        57.33278
648.61        57.36498
649.04        57.35416
649.47        57.27966
649.89        57.47153
650.32        57.32574
650.75        57.41288
651.18        57.50033
651.61        57.49942
652.03        57.41374
652.46        57.18593
652.89        56.94426
653.32         57.0937
653.74        57.47561
654.17        57.52167
654.60         56.9668
655.03        56.71827
655.46        56.72335
655.88        57.65065
656.31        58.58351
656.74        60.87531
657.16        59.26003
657.59        57.57161
658.02        56.78659
658.45        57.52372
658.87        57.50757
659.30        57.77958
659.73        57.38588
660.15         57.0791
660.58        57.38711
661.01        57.62045
661.44        57.84069
661.86        57.75451
662.29        57.42885
662.72        57.29539
663.14        57.40362
663.57        57.50335
664.00        57.55225
664.42        57.59179
664.85        57.61889
665.27        57.53019
665.70        57.52251
666.13        57.46405
666.55        57.42344
666.98        57.38652
667.41        57.35835
667.83        57.35313
668.26        57.37887
668.69        57.38067
669.11        57.33823
669.54        57.42109
669.96        57.67204
670.39        57.27802
670.82        57.60943
671.24         57.5516
671.67         57.4999
672.09         57.3971
672.52        57.30788
672.94        57.28899
673.37        57.33971
673.80        57.41267
674.22         57.4803
674.65         57.4915
675.07         57.4516
675.50        57.35425
675.92        57.24996
676.35        57.21371
676.77        57.25949
677.20        57.37732
677.62        57.54545
678.05        57.64167
678.47        57.63005
678.90         57.8347
679.32        57.72534
679.75        57.74417
680.17        57.73603
680.60        57.72564
681.02        57.71448
681.45        57.64452
681.87        57.64814
682.30        57.59865
682.72        57.56329
683.15        57.60723
683.57          57.683
684.00        57.77508
684.42        57.52851
684.85        57.51881
685.27        57.63214
685.70        57.75072
686.12        57.81196
686.54        57.81018
686.97        57.73073
687.39        57.60558
687.82        57.48793
688.24        57.43882
688.66        57.45879
689.09        57.75295
689.51         57.8354
689.94        58.00396
690.36        58.08733
690.78        58.06432
691.21        57.96599
691.63        57.84128
692.06        57.75496
692.48        57.78982
692.90        57.90734
693.33        57.93958
693.75        57.88536
694.17        57.79939
694.60        57.69466
695.02        57.79009
695.44        57.83339
695.87        57.78452
696.29        57.65012
696.71        57.78383
697.14         58.1158
697.56        58.31033
697.98        58.34344
698.41         58.1369
698.83        58.27278
699.25        58.12704
699.68        57.91139
700.10        57.77108
700.52        57.73663
700.94        57.76458
701.37        57.81595
701.79        57.87939
702.21        57.92088
702.64        57.95797
703.06         57.9911
703.48        58.02383
703.90        58.06012
704.33        58.09056
704.75        58.11272
705.17        58.10769
705.59         58.0752
706.01        58.01988
706.44        57.97012
706.86        57.98719
707.28        58.06916
707.70        58.20029
708.12        58.33999
708.55        58.41667
708.97        58.40753
709.39        58.33849
709.81        58.24524
710.23        58.19549
710.66        58.21186
711.08        58.28532
711.50         58.3647
711.92         58.3858
712.34          58.336
712.76        58.23575
713.19        58.12647
713.61        58.11897
714.03        58.21162
714.45        58.38491
714.87        58.58281
715.29        58.68011
715.71        58.64692
716.13         58.6684
716.56        58.50008
716.98        58.47765
717.40        58.52616
717.82         58.6204
718.24        58.72139
718.66        58.77126
719.08        58.75723
719.50        58.70503
719.92         58.6311
720.34        58.55653
720.76        58.49389
721.19         58.4263
721.61        58.39224
722.03         58.4282
722.45         58.5368
722.87        58.70803
723.29        58.88823
723.71        58.98613
724.13        58.98095
724.55        58.89812
724.97        58.80193
725.39        58.78031
725.81        58.85338
726.23        59.02666
726.65        59.26005
727.07        59.27771
727.49        59.40643
727.91        59.37919
728.33        59.31945
728.75        59.28833
729.17        59.28758
729.59        59.21744
730.01        59.10986
730.43        59.10529
730.85         59.2128
731.27        59.35422
731.69        59.48752
732.10        59.53232
732.52        59.65101
732.94        59.44067
733.36        59.04889
733.78        58.90277
734.20        59.08224
734.62        59.04656
735.04        59.29557
735.46        59.39671
735.88        59.51466
736.30        59.28361
736.72        59.30597
737.13        59.30348
737.55         59.3837
737.97        59.24606
738.39        58.95827
738.81        58.96442
739.23        59.22244
739.65        59.26638
740.06        59.07775
740.48        59.06405
740.90        59.20219
741.32        59.30293
741.74        59.34444
742.16         59.3885
742.57         59.4402
742.99        59.46321
743.41        59.47644
743.83        59.49099
744.25        59.50916
744.67        59.52621
745.08        59.56263
745.50        59.60815
745.92        59.67567
746.34        59.77297
746.75        59.86321
747.17        59.88129
747.59        59.81905
748.01        59.66078
748.42        59.49715
748.84        59.49764
749.26        59.65255
749.68        59.87791
750.09        60.07002
750.51        59.96788
750.93        59.65366
751.35        59.61032
751.76        59.83578
752.18        59.85172
752.60        59.76147
753.01        59.75017
753.43        59.80902
753.85        59.77986
754.27        59.65491
754.68        59.48358
755.10        59.32197
755.52        59.23454
755.93        59.24251
756.35        59.33427
756.77        59.48597
757.18        59.61708
757.60         59.6897
758.02        59.77652
758.43        59.93598
758.85        59.76377
759.26        60.22282
759.68        60.37876
760.10        59.74981
760.51        59.69868
760.93        59.81163
761.34        59.56472
761.76        59.67788
762.18        59.78979
762.59        60.04615
763.01        60.32555
763.42        59.82285
763.84        59.99758
764.26        60.20283
764.67        60.37216
765.09        60.38659
765.50        60.60418
765.92        60.93483
766.33        60.80017
766.75        60.26257
767.16        60.03746
767.58        60.14134
768.00        60.25881
768.41        60.35686
768.83        60.33192
769.24        60.14603
769.66        60.41347
770.07         60.1554
770.49        60.15897
770.90        60.15599
771.32        60.21368
771.73        60.31638
772.15        60.39721
772.56        60.46527
772.97        60.54601
773.39        60.60107
773.80        60.62002
774.22         60.5705
774.63          60.483
775.05        60.37853
775.46        60.33671
775.88        60.35431
776.29        60.43433
776.70        60.51871
777.12        60.52293
777.53        60.44593
777.95        60.31042
778.36        60.16709
778.77        60.09242
779.19        60.11303
779.60        60.21027
780.02         60.3539
780.43        60.54939
780.84        60.78446
781.26        60.93161
781.67        61.01779
782.09        61.28873
782.50        61.60107
782.91        61.40776
783.33        60.80523
783.74        60.54055
784.15        60.66477
784.57        60.84203
784.98        60.99904
785.39         61.0505
785.81        61.01013
786.22        61.09313
786.63        61.29064
787.04        61.39692
787.46        61.41679
787.87         61.4486
788.28        61.49972
788.70         61.5172
789.11         61.4862
789.52         61.4379
789.93        61.39775
790.35        61.39386
790.76        61.44748
791.17        61.55202
791.58        61.67585
792.00        61.75676
792.41        61.80769
792.82        61.81587
793.23        61.84076
793.65        61.95085
794.06        62.13897
794.47        62.39967
794.88        62.70358
795.29        62.52304
795.71        62.79472
796.12        62.70953
796.53        62.56773
796.94        62.52676
797.35        62.56679
797.76        62.42614
798.18        62.13544
798.59        61.98168
799.00        61.98779
799.41        62.02016
799.82         62.0485
800.23        62.08485
800.64        62.11492
801.06        62.10852
801.47        62.12641
801.88        62.19829
802.29        62.32896
802.70        62.50391
803.11        62.66891
803.52        62.73402
803.93        62.68086
804.34        62.53577
804.75         62.3754
805.17        62.32185
805.58        62.43155
805.99        62.63422
806.40        62.85809
806.81        63.03148
807.22        63.09007
807.63        62.95395
808.04        62.71921
808.45        62.65533
808.86        62.80574
809.27        63.04251
809.68        63.28104
810.09        63.41593
810.50        63.40241
810.91        63.27547
811.32        63.08162
811.73        62.89439
812.14        62.74874
812.55        62.63326
812.96        62.54773
813.37        62.49306
813.78        62.46674
814.19        62.46813
814.60        62.50448
815.01        62.58096
815.42        62.69221
815.83        62.83749
816.24        62.96304
816.65        62.97352
817.05        62.85954
817.46        62.63114
817.87        62.41653
818.28        62.37135
818.69        62.53074
819.10        62.85049
819.51        63.25161
819.92        63.58125
820.33        63.77344
820.74        63.85844
821.14        63.86368
821.55        63.85988
821.96         63.8597
822.37        63.83912
822.78        63.79012
823.19        63.70829
823.60         63.5954
824.00        63.47902
824.41        63.34856
824.82        63.23645
825.23        63.15498
825.64        63.11468
826.04         63.1153
826.45        63.11449
826.86        63.11981
827.27        63.13786
827.68        63.20285
828.08        63.39516
828.49        63.64594
828.90         63.9609
829.31        64.28735
829.72         64.4449
830.12        64.40295
830.53        64.59474
830.94        64.26864
831.35        64.01582
831.75        63.65383
832.16        63.18749
832.57        62.77766
832.97         62.6825
833.38        62.94151
833.79        63.47176
834.20        64.06007
834.60        64.37969
835.01        64.35186
835.42        64.06152
835.82        63.67503
836.23        63.44444
836.64        63.46928
837.04        63.68303
837.45        63.94658
837.86        64.09229
838.26        64.08204
838.67        63.96753
839.08        63.84573
839.48        63.84988
839.89        64.00424
840.29        64.25159
840.70        64.52356
841.11        64.71236
841.51        64.79253
841.92        64.76244
842.33        64.66052
842.73        64.54668
843.14        64.40839
843.54        64.27238
843.95        64.13763
844.35        64.02348
844.76         63.9343
845.17        63.87978
845.57        63.90118
845.98        64.02336
846.38        64.26555
846.79        64.58031
847.19        64.91905
847.60        65.13236
848.00        65.21415
848.41        65.15908
848.81        65.06241
849.22        65.02879
849.62        65.12414
850.03        65.27477
850.43        65.44202
850.84        65.46122
851.24         65.3456
851.65        65.08099
852.05        64.79152
852.46        64.60355
852.86        64.56531
853.27        64.68061
853.67        64.78379
854.07        64.77337
854.48        64.59836
854.88        64.31136
855.29        63.99868
855.69        63.97516
856.10        64.21989
856.50        64.72247
856.90        65.22284
857.31        65.33236
857.71        65.01276
858.12         64.3401
858.52        63.55009
858.92         62.9873
859.33        62.76419
859.73        62.82891
860.13        63.08767
860.54        63.37437
860.94        63.67149
861.34        63.98453
861.75        64.24924
862.15        64.43076
862.55        64.47385
862.96        64.34341
863.36         64.1094
863.76        63.85638
864.17        63.61974
864.57        63.43905
864.97        63.24823
865.38        62.90859
865.78        62.44952
866.18        61.91373
866.58        61.52778
866.99        61.64811
867.39        62.34921
867.79        63.44704
868.19        64.57837
868.60        65.17314
869.00        65.20508
869.40        64.99789
869.80        64.65038
870.21        64.17081
870.61        63.72284
871.01        63.37869
871.41        63.13171
871.81        62.87009
872.22        62.59989
872.62        62.38556
873.02        62.27007
873.42        62.48518
873.82        62.83836
874.22        62.74913
874.63        62.45071
875.03        62.44563
875.43        62.77165
875.83        64.15236
876.23        63.75433
876.63        63.14117
877.03        62.03203
877.44        59.83515
877.84        171.7601
878.24        60.62685
878.64        61.25722
879.04        62.64966
879.44        63.03807
879.84        59.52088
880.24        64.88914
880.64        65.28244
881.04        63.03113
881.44        61.33371
881.84        60.73028
882.24        61.34982
882.65        62.55787
883.05        62.92291
883.45        62.17006
883.85        61.17758
884.25        60.41944
884.65        60.22825
885.05        60.71962
885.45        61.69307
885.85        62.73143
886.25         63.2626
886.65         63.1599
887.05        62.60723
887.45        61.86295
887.85         61.3627
888.25        61.25889
888.65        61.41862
889.04        61.73323
889.44        62.03083
889.84        62.22649
890.24        62.37367
890.64        62.47969
891.04        62.54455
891.44        62.57647
891.84        62.56819
892.24         62.5023
892.64        62.36922
893.04        62.18725
893.44        61.97945
893.83        61.84558
894.23        61.89478
894.63         62.1543
895.03         62.5932
895.43        63.08901
895.83        63.43129
896.23        63.56036
896.63        63.51713
897.02        63.40718
897.42        63.45675
897.82        63.67387
898.22        63.98129
898.62        64.24444
899.01        64.25715
899.41        63.95938
899.81        63.46053
900.21        62.87911
900.61        62.40049
901.00        62.08741
901.40        61.95805
901.80        62.02055
902.20        62.13555
902.59        62.24631
902.99        62.65569
903.39        63.40232
903.79        62.83623
904.18        63.63389
904.58         63.6169
904.98        63.54228
905.38         63.2817
905.77        62.85077
906.17        62.31499
906.57        61.77628
906.96        61.50436
907.36        61.56097
907.76        61.89606
908.15        62.42028
908.55        62.82758
908.95        63.06683
909.34        63.14479
909.74        63.17029
910.14        63.28566
910.53        63.51691
910.93        63.80035
911.33        63.97464
911.72        63.79239
912.12        63.24214
912.52        62.44069
912.91        61.62343
913.31        61.23246
913.70        61.33986
914.10        61.81417
914.49        62.46268
914.89         62.8684
915.29        62.92587
915.68         62.7362
916.08        62.43727
916.47        62.20313
916.87        62.12838
917.26        62.14263
917.66        62.21476
918.05        62.32492
918.45        62.43483
918.84        62.56847
919.24        62.71683
919.64        62.91135
920.03        63.14694
920.42        63.38358
920.82        63.53981
921.21         63.5107
921.61        63.31515
922.00        63.06297
922.40        62.91972
922.79        63.00288
923.19        62.95999
923.58        63.64426
923.98        65.35351
924.37        65.46036
924.77        62.51844
925.16         70.6608
925.55         64.2813
925.95        64.68171
926.34        64.59357
926.74         63.8512
927.13        62.41233
927.52        61.46067
927.92        61.52262
928.31         61.9397
928.70        62.61425
929.10        63.31804
929.49        63.98176
929.89         64.6888
930.28        65.25051
930.67        65.23941
931.07        64.61585
931.46        63.38357
931.85        62.04989
932.24         61.9525
932.64        63.30411
933.03        65.08121
933.42        66.27093
933.82        68.79739
934.21        67.07455
934.60        65.52292
934.99        63.89326
935.39        63.43706
935.78        64.25629
936.17        66.63863
936.56        73.45473
936.96        66.63038
937.35        70.56194
937.74         67.2859
938.13         64.8878
938.53        63.04918
938.92        62.55204
939.31        63.85314
939.70        65.59189
940.09          66.403
940.49        65.98676
940.88        64.82715
941.27         63.4342
941.66        62.76025
942.05        63.13492
942.44        64.15579
942.84         65.2912
943.23        65.91354
943.62        65.84121
944.01        65.27464
944.40        64.56207
944.79        64.27783
945.18        64.57057
945.57        65.23782
945.97        65.87449
946.36         65.9711
946.75        65.37167
947.14        64.27888
947.53        63.07288
947.92        62.40078
948.31        62.44815
948.70        62.98577
949.09        63.71032
949.48         64.1555
949.87        64.18671
950.26        63.97659
950.65        63.60714
951.04        63.20212
951.43        62.83639
951.82        62.43867
952.21        62.13934
952.60        62.18834
952.99        62.59447
953.38        63.26681
953.77        63.93557
954.16        64.18748
954.55        63.95073
954.94        63.36311
955.33        62.61258
955.72         62.0686
956.11        61.88694
956.50        61.95202
956.89         62.2603
957.28        62.78917
957.66        63.50385
958.05        64.33617
958.44        65.08185
958.83        65.41817
959.22        65.28181
959.61        64.70429
960.00         63.9362
960.39        63.49572
960.78        63.54672
961.16        63.99248
961.55        64.44357
961.94        64.43988
962.33        63.90112
962.72        62.97432
963.11        61.98412
963.49        61.59615
963.88        62.01552
964.27        62.97088
964.66        64.06987
965.04        64.80978
965.43        65.00613
965.82         64.8515
966.21        64.45836
966.60        64.02953
966.98        63.67794
967.37        63.34615
967.76        63.08548
968.15        62.98716
968.53        63.08303
968.92        63.35048
969.31        63.73215
969.69        64.09224
970.08        64.35093
970.47        64.52477
970.86        64.62547
971.24        64.69978
971.63        64.74493
972.02        64.74271
972.40        64.70679
972.79        64.56842
973.17        64.38436
973.56        64.20776
973.95        64.08973
974.33        64.10339
974.72        64.26366
975.11        64.51167
975.49         64.9471
975.88        65.65862
976.26        66.66914
976.65        67.81963
977.04        68.81432
977.42        69.19641
977.81        68.84089
978.19        67.82616
978.58        66.66389
978.96        66.25813
979.35        66.82852
979.74        68.03176
980.12        69.33807
980.51         69.8847
980.89        69.66038
981.28        68.84135
981.66        67.69572
982.05        66.95242
982.43        66.89185
982.82        67.31976
983.20        68.00682
983.59        68.57668
983.97        68.93578
984.35        69.15534
984.74        69.17944
985.12        68.98618
985.51        68.58347
985.89        68.08884
986.28        67.55866
986.66        67.13369
987.04        66.90269
987.43        66.72276
987.81        66.47058
988.20        67.46555
988.58        69.79832
988.96        70.59174
989.35        68.96786
989.73        74.91293
990.12        71.06017
990.50        70.77497
990.88        69.64014
991.27        68.79253
991.65         68.3481
992.03        68.35899
992.42        68.80946
992.80        69.00421
993.18        68.79762
993.56        68.45643
993.95        68.03684
994.33        67.57707
994.71         67.1606
995.10        66.71278
995.48        66.49532
995.86        66.95352
996.24        68.09763
996.63        69.67731
997.01        71.30096
997.39        72.13491
997.77        71.99633
998.15        71.14747
998.54        70.02033
998.92        69.20786
999.30        68.97584
999.68        69.20975
1000.06        69.82101
1000.45        70.53254
1000.83        71.27647
1001.21        72.08792
1001.59         72.9303
1001.97        73.75193
1002.35        74.48803
1002.73        75.02684
1003.12        75.38243
1003.50        75.66972
1003.88        75.90079
1004.26        76.11051
1004.64        76.13319
1005.02          75.647
1005.40        74.59599
1005.78        73.07428
1006.16        71.57619
1006.54        70.88036
1006.92        71.16933
1007.30        72.28439
1007.69        73.54611
1008.07        74.02892
1008.45        73.51588
1008.83        72.24187
1009.21        70.88999
1009.59        70.88009
1009.97        72.45918
1010.35        74.80182
1010.73        77.06852
1011.11        78.67617
1011.49        79.67213
1011.86        80.05791
1012.24        79.60741
1012.62        80.66975
1013.00        80.77468
1013.38        79.80766
1013.76        76.66294
1014.14        80.18185
1014.52        86.27383
1014.90        79.10176
1015.28        81.02025
1015.66        83.14141
1016.04        80.79976
1016.41        81.85398
1016.79        81.62943
1017.17        81.05339
1017.55        79.64046
1017.93        77.67107
1018.31        76.07565
1018.69        75.95553
1019.06        77.54339
1019.44        80.25256
1019.82          82.917
1020.20        84.02204
1020.58        83.23934
1020.95        80.67346
1021.33        76.84173
1021.71        73.93122
1022.09        73.51118
1022.46         74.8653
1022.84        76.80222
1023.22        78.42065
1023.60        79.65919
1023.97         80.8885
1024.35         82.1721
1024.73        83.40274
