SpectraSmart Spectrum 2.9.0.0
--------- Device Information -----------
Spectrum Name :  反射率_0
Saving Time :  2024/04/21 00:42:09
Spectro-Module Model Name : SE2030-DUVN
Spectro-Module Serial Number : OS361AC55029948
Wavelength Start : 200
Wavelength End : 1025
Wavelength Unit : Wavelength(nm)
Spectrum Unit : Reflectance(%)
-----------Spectrum Setting ------------
Integration Time : 20ms
Average : 10
Boxcar : 0
Background removal :  enabled
linearity correction :  enabled
SC :  disabled
Intensity correction :  disabled
DWT denoise :  enabled
savitzky-golay :  disabled
FFT :  disabled
Running average :  disabled
Kalman :  disabled
High pass :  disabled
---------------BEGIN--------------------
Wavelength(nm)             Reflectance(%)
200.29               0
200.75       -129.7654
201.21        -51.1892
201.67       -9.590378
202.13        5.007646
202.58        3.970665
203.04       -6.663555
203.50       -23.61849
203.96       -37.06623
204.42       -41.15115
204.88       -39.91407
205.34       -36.20613
205.80       -34.40392
206.26       -35.72472
206.72       -35.51428
207.18       -36.97107
207.64       -48.72702
208.10       -70.18377
208.55       -98.37725
209.01       -108.2332
209.47       -74.62572
209.93       -30.85715
210.39        2.571321
210.85        23.32468
211.31        32.36123
211.77         33.1038
212.23        27.28877
212.69        9.631555
213.14       -32.46832
213.60       -125.9132
214.06        -422.909
214.52       -1148.112
214.98       -553.4694
215.44        -171.989
215.90       -42.05088
216.36        2.277673
216.81        10.15929
217.27       -8.316294
217.73       -114.8634
218.19         1176.28
218.65         477.501
219.11       -1010.438
219.57       -39.39775
220.02         21.6969
220.48        33.12402
220.94         28.8952
221.40        8.928753
221.86       -40.40715
222.32       -73.63146
222.77       -30.46342
223.23        7.393278
223.69        26.35804
224.15        32.37269
224.61        31.55939
225.06         27.8562
225.52         21.9973
225.98        14.58321
226.44        6.624324
226.90       -3.241775
227.36       -9.584113
227.81       -2.967304
228.27        11.49533
228.73        26.35044
229.19        36.09155
229.65        38.23679
230.10        34.14108
230.56        25.52708
231.02        14.00017
231.48        6.293959
231.93        7.110181
232.39        13.77217
232.85        21.30442
233.31         25.5365
233.77        26.61921
234.22        26.38996
234.68        25.21111
235.14        23.62234
235.60        22.25652
236.05         20.0415
236.51        17.21335
236.97        20.64337
237.43        30.96815
237.88        37.38758
238.34        35.40961
238.80        58.06391
239.26        46.38855
239.71        43.54202
240.17        33.98148
240.63        24.69011
241.08        20.46038
241.54        24.97506
242.00        36.96831
242.46        42.99403
242.91        39.08215
243.37        25.36298
243.83        4.427446
244.28       -9.414468
244.74       -6.473599
245.20        5.897792
245.66        18.48792
246.11        22.37633
246.57        16.28909
247.03        3.447583
247.48       -14.45615
247.94       -35.11479
248.40       -62.63469
248.85       -124.4531
249.31       -308.2795
249.77       -456.3473
250.22       -176.0147
250.68         -57.832
251.14       -18.78309
251.59       -5.963696
252.05       -2.861406
252.51        -4.29808
252.96       -8.895238
253.42       -10.44806
253.88       -4.619076
254.33        6.223283
254.79        19.54398
255.25        31.83406
255.70        41.18966
256.16        47.76681
256.62        52.70957
257.07        56.96065
257.53         60.8982
257.99        64.08537
258.44        65.70135
258.90        65.70177
259.35        63.99814
259.81        61.72858
260.27        59.33172
260.72        57.35774
261.18        56.19683
261.63        55.30727
262.09        54.62122
262.55        53.65508
263.00        52.31923
263.46        50.95594
263.91        49.62901
264.37        48.84015
264.83        48.49716
265.28        48.36207
265.74        48.25988
266.19        47.75978
266.65        46.87633
267.11        45.69516
267.56        44.36485
268.02        43.20532
268.47        42.24673
268.93        41.43758
269.38        40.64286
269.84        39.72116
270.30        38.63353
270.75          37.453
271.21        36.31306
271.66        35.33876
272.12         34.5885
272.57        33.98672
273.03        33.47274
273.48        32.91391
273.94        32.30382
274.39        31.65643
274.85        31.03677
275.31        30.47136
275.76        29.96195
276.22        29.51734
276.67         29.1225
277.13        28.84007
277.58        28.62128
278.04        28.47394
278.49        28.29281
278.95        28.01251
279.40        27.58254
279.86        27.06932
280.31        26.50651
280.77         26.0328
281.22         25.6432
281.68        25.36139
282.13        25.09935
282.59        24.80709
283.04        24.45086
283.50        24.07733
283.95        23.76491
284.41        23.65774
284.86        23.75815
285.32         24.0288
285.77        24.31586
286.22        24.41687
286.68        24.32114
287.13        24.05763
287.59        23.82874
288.04        23.83358
288.50        24.08098
288.95        24.60281
289.41        25.26296
289.86        25.38215
290.32        24.85088
290.77        25.64593
291.22        24.70986
291.68        24.81006
292.13        25.06934
292.59        25.53052
293.04        26.16508
293.50        26.99881
293.95        28.03595
294.40        29.25471
294.86        30.60276
295.31        31.97807
295.77        33.34835
296.22         34.7078
296.68        36.10639
297.13        37.62361
297.58        39.29076
298.04         41.0836
298.49        42.94772
298.95        44.81867
299.40        46.65329
299.85        48.47562
300.31        50.30817
300.76        52.15715
301.21          54.036
301.67        55.95802
302.12         57.8934
302.58        59.91423
303.03        61.99562
303.48        64.17004
303.94        66.41707
304.39        68.64388
304.84        70.82687
305.30        72.98139
305.75        75.08089
306.20        77.20811
306.66        79.36904
307.11        81.48216
307.57        83.50426
308.02        85.28606
308.47        86.84208
308.93        88.25736
309.38        89.58418
309.83        90.98045
310.29        92.51958
310.74        94.10004
311.19        95.66582
311.65        97.09542
312.10        98.33627
312.55        99.43297
313.00         100.426
313.46        101.3844
313.91         102.311
314.36        103.1895
314.82        104.0147
315.27        104.7701
315.72        105.4666
316.18         106.124
316.63        106.7434
317.08        107.3241
317.53         107.863
317.99        108.3473
318.44        108.7994
318.89         109.241
319.35         109.672
319.80        110.1027
320.25        110.4817
320.70        110.7325
321.16        110.8396
321.61        110.8447
322.06        110.8436
322.51        110.9995
322.97        111.3302
323.42        111.8291
323.87        112.3594
324.32         112.708
324.78        112.8029
325.23        112.7509
325.68        112.6594
326.13        112.7407
326.59        113.0237
327.04        113.4916
327.49        114.0279
327.94        114.4764
328.39        114.7823
328.85        114.9659
329.30        115.1237
329.75        115.2717
330.20        115.4363
330.66        115.5582
331.11        115.7413
331.56        116.0152
332.01        116.3926
332.46        116.8722
332.92        117.3397
333.37        117.7457
333.82        118.0145
334.27        118.1802
334.72        118.3413
335.17        118.6686
335.63        119.1695
336.08        119.8489
336.53        120.5817
336.98        121.2106
337.43        121.6835
337.88        122.0499
338.34        122.3285
338.79        122.6173
339.24        122.9294
339.69        123.2505
340.14         123.606
340.59        124.0452
341.05        124.5701
341.50        125.1685
341.95        125.8049
342.40        126.4168
342.85        126.9739
343.30        127.4886
343.75        127.9209
344.20         128.221
344.66        128.3993
345.11         128.444
345.56        128.4599
346.01        128.6166
346.46        128.9471
346.91        129.3761
347.36        129.7512
347.81        129.9251
348.26        129.8791
348.72        129.3457
349.17        129.0872
349.62        128.8515
350.07        128.8851
350.52        129.0861
350.97        129.3488
351.42        129.4925
351.87        129.4406
352.32        129.2417
352.77        128.9269
353.22        128.5383
353.67        128.1022
354.13        127.6354
354.58        127.1021
355.03        126.5111
355.48        125.8833
355.93        125.2301
356.38        124.6417
356.83        124.2437
357.28        124.0272
357.73        123.9281
358.18        123.7733
358.63         123.291
359.08        122.4293
359.53        121.2884
359.98        120.0279
360.43         118.891
360.88        117.9525
361.33        117.1486
361.78        116.4328
362.23         115.728
362.68         115.002
363.13         114.284
363.58        113.5591
364.03        112.7939
364.48        111.9762
364.93        111.0962
365.38        110.1698
365.83        109.2384
366.28        108.3175
366.73         107.404
367.18        106.4919
367.63        105.5694
368.08        104.6419
368.53        103.7279
368.98        102.8374
369.43        101.9677
369.88        101.1138
370.33        100.2728
370.78        99.44862
371.23        98.66644
371.68        97.94204
372.13        97.26871
372.58        96.64996
373.03        96.07877
373.48        95.53372
373.93        95.00388
374.38        94.44637
374.83        93.80576
375.28        93.08289
375.72        92.28594
376.17        91.49976
376.62        90.76302
377.07        90.07973
377.52        89.42952
377.97            88.8
378.42        88.18705
378.87        87.60305
379.32        87.06319
379.77         86.5627
380.22        86.07723
380.67        85.58363
381.11        85.07497
381.56        84.54372
382.01        84.00909
382.46        83.49194
382.91        83.00809
383.36        82.53319
383.81        82.02535
384.26        81.47907
384.71        80.89967
385.15        80.35149
385.60        79.99789
386.05        79.82732
386.50        79.79362
386.95        79.74426
387.40        79.44868
387.85        78.88056
388.29        78.08244
388.74        77.32895
389.19        76.79385
389.64        76.50234
390.09        76.37163
390.54         76.2769
390.98        76.00625
391.43        75.56217
391.88        75.01701
392.33        74.47121
392.78        74.06258
393.23        73.81467
393.67        73.62694
394.12         73.5269
394.57        73.37621
395.02        73.12751
395.47        72.81699
395.91        72.50497
396.36        72.01138
396.81        71.83521
397.26        71.60029
397.71        71.39758
398.15        71.12476
398.60        70.85399
399.05        70.51512
399.50        70.20002
399.95        70.11224
400.39        70.21654
400.84        70.29395
401.29        70.25513
401.74        69.92576
402.18        69.39873
402.63        69.10679
403.08        69.03806
403.53        68.77485
403.97        68.31739
404.42        67.95888
404.87        67.74564
405.32        67.62546
405.76        67.58553
406.21        67.66622
406.66        67.76486
407.11        67.67744
407.55        67.41261
408.00        67.08835
408.45        66.78166
408.90        66.50018
409.34        66.27254
409.79        66.13485
410.24        66.07052
410.68        66.04817
411.13        66.05219
411.58        66.08496
412.03        66.11228
412.47        66.09261
412.92        65.98866
413.37        65.82108
413.81        65.62762
414.26        65.52042
414.71        65.49773
415.15         65.5479
415.60        65.59203
416.05        65.55058
416.49        65.40754
416.94        65.19023
417.39        64.95506
417.83        64.77707
418.28        64.67607
418.73        64.61709
419.17        64.57729
419.62        64.53164
420.07        64.47064
420.51        64.40726
420.96        64.34512
421.41        64.25439
421.85        64.11807
422.30        63.93948
422.74        63.75909
423.19        63.84542
423.64        64.14014
424.08        64.37038
424.53         64.4218
424.98        64.46911
425.42         64.5079
425.87         64.3598
426.31        64.10565
426.76        64.00158
427.21        64.04305
427.65         64.0593
428.10         64.0102
428.54         63.9818
428.99        63.99552
429.44         64.0309
429.88         64.0543
430.33        63.98758
430.77        63.81907
431.22        63.91587
431.66        64.19427
432.11        64.16995
432.56        63.93088
433.00        63.92883
433.45        63.94389
433.89        63.88268
434.34        63.96577
434.78        62.49653
435.23        63.11137
435.67        63.61238
436.12         63.5801
436.57        63.78941
437.01         63.8528
437.46        63.75468
437.90        64.14445
438.35        63.87727
438.79        63.88624
439.24        63.76545
439.68        63.75319
440.13        63.78576
440.57        63.84635
441.02        63.97801
441.46        64.13332
441.91        64.21284
442.35        64.18427
442.80        64.44189
443.24        64.84444
443.69        64.87391
444.13        64.53315
444.58        64.21944
445.02        64.01237
445.47        64.02977
445.91        64.22195
446.36        64.31574
446.80        64.27055
447.24        64.29584
447.69        64.38181
448.13        64.40535
448.58        64.22133
449.02        64.16552
449.47        64.17113
449.91        64.06882
450.36        63.87853
450.80        63.62712
451.25         63.3963
451.69         63.3448
452.13        63.43523
452.58         63.3588
453.02        63.11681
453.47        62.99081
453.91        62.97397
454.36        62.91481
454.80        62.79377
455.24        62.65265
455.69        62.51187
456.13        62.34159
456.58        62.22279
457.02        62.08717
457.46         62.2382
457.91        62.17218
458.35        62.10083
458.79        62.07551
459.24        62.13817
459.68        62.17754
460.13        62.20471
460.57        62.10439
461.01        61.87059
461.46        61.82507
461.90        61.63658
462.34         61.2699
462.79        60.95425
463.23        61.00774
463.68        61.38666
464.12        61.19762
464.56          60.573
465.01        60.73237
465.45        61.39897
465.89        61.37033
466.34        60.76966
466.78        60.47453
467.22        60.46933
467.67        60.78362
468.11         60.0066
468.55        59.99402
468.99        60.23964
469.44        60.22441
469.88        59.91035
470.32        59.56351
470.77         59.2844
471.21        59.09789
471.65        59.03654
472.10        59.08442
472.54        59.17825
472.98        59.24205
473.42        59.25127
473.87        59.23404
474.31        59.17979
474.75        59.17389
475.20        59.20257
475.64        59.18185
476.08        59.12136
476.52        59.06304
476.97        58.99385
477.41        59.01101
477.85        59.08825
478.29        58.76826
478.74        58.70071
479.18        58.51634
479.62         58.7933
480.06        58.87126
480.50        58.87572
480.95        58.98646
481.39        59.13169
481.83        59.08755
482.27         59.5726
482.72         58.9194
483.16        59.14537
483.60        59.28467
484.04        59.07858
484.48        58.87487
484.93        59.18367
485.37        58.33746
485.81        59.40136
486.25         59.0263
486.69        60.85842
487.14          61.328
487.58        60.03177
488.02        59.11957
488.46        58.82396
488.90        58.86621
489.34        58.42746
489.79        57.84639
490.23        58.42422
490.67        58.50334
491.11        58.51086
491.55        58.31369
491.99        57.99355
492.43        58.10074
492.88        58.02923
493.32        58.20022
493.76        58.31353
494.20        58.34974
494.64        58.29852
495.08        57.85468
495.52        57.70383
495.96        57.58701
496.41        57.65358
496.85         57.8173
497.29        57.95098
497.73         57.9045
498.17        57.70324
498.61        57.64978
499.05        57.75483
499.49        57.74448
499.93        57.65394
500.37         57.7425
500.82        57.96578
501.26        58.07985
501.70        58.07808
502.14        57.93839
502.58        58.13694
503.02         57.8772
503.46        57.83095
503.90        57.62204
504.34         57.4464
504.78        57.33132
505.22        57.30894
505.66        57.33855
506.10        57.36824
506.54        57.45712
506.98        57.61019
507.42        57.25477
507.86        57.46199
508.30        57.35221
508.74        57.34178
509.18        57.30405
509.62        57.27231
510.06        57.26912
510.50        57.26616
510.94        57.20166
511.38        57.08718
511.82        57.00517
512.26        56.96131
512.70        56.91369
513.14        56.85123
513.58        56.77552
514.02        56.68623
514.46        56.58429
514.90        56.48018
515.34        56.43483
515.78        56.46154
516.22            56.5
516.66        56.37663
517.10        56.68779
517.54        56.44451
517.98        56.42032
518.42        56.35749
518.86        56.33445
519.30        56.35847
519.74        56.38168
520.18         56.3971
520.62        56.45769
521.06        56.51644
521.50        56.38807
521.93        56.12748
522.37        56.00118
522.81        56.03779
523.25        56.09666
523.69        56.14852
524.13        56.20173
524.57        56.24047
525.01        56.26327
525.45        56.26506
525.89        56.23665
526.32        56.17995
526.76        56.10513
527.20        56.02857
527.64        55.98619
528.08        55.98627
528.52        56.00483
528.96        56.03484
529.40        56.09291
529.83        56.15068
530.27        56.15765
530.71        56.10858
531.15        56.06645
531.59        56.03606
532.03        55.97597
532.46        55.90044
532.90          55.869
533.34        55.88188
533.78        55.92309
534.22        55.96038
534.66        55.94166
535.09        55.85271
535.53        55.73648
535.97        55.61312
536.41        55.52937
536.85        55.49897
537.28        55.50295
537.72        55.54157
538.16        55.61493
538.60        55.71149
539.04        55.83135
539.47        55.92109
539.91         55.9467
540.35        55.88905
540.79        55.76515
541.22        55.62898
541.66        55.58384
542.10        55.64488
542.54        55.77721
542.97        55.91932
543.41        56.00213
543.85        56.00286
544.29        55.96183
544.72        55.88973
545.16        55.85254
545.60        55.85483
546.04        55.80713
546.47        55.75417
546.91        55.89897
547.35        56.15787
547.79        56.25355
548.22        56.14367
548.66        55.91326
549.10        55.66504
549.53         55.6347
549.97        55.79317
550.41        55.80388
550.84        55.66153
551.28        55.55976
551.72        55.51364
552.15        55.54583
552.59        55.69109
553.03        55.50243
553.46        55.75517
553.90        55.74766
554.34        55.67862
554.77        55.65532
555.21        55.75797
555.65        55.47683
556.08        55.64055
556.52         55.8701
556.96        55.85044
557.39        55.87767
557.83        55.80569
558.27        55.64298
558.70        55.45095
559.14        55.36926
559.57        55.41566
560.01        55.60209
560.45        55.81086
560.88         55.8243
561.32        55.68901
561.75        55.46725
562.19        55.29615
562.63        55.41279
563.06         55.7257
563.50        55.78713
563.93        55.57832
564.37        55.44184
564.80        55.40635
565.24        55.45704
565.68        55.56849
566.11        55.61338
566.55        55.60057
566.98        55.66785
567.42        55.82765
567.85        55.77893
568.29        55.82653
568.72        55.86864
569.16         56.0351
569.60        56.13908
570.03        56.38057
570.47        56.59363
570.90        56.74081
571.34        56.94995
571.77        57.01767
572.21        56.79397
572.64        56.97312
573.08        56.69012
573.51        56.76111
573.95        57.12618
574.38         57.2625
574.82        57.47105
575.25        57.58623
575.69        57.65602
576.12        56.93301
576.56        57.10107
576.99        56.99237
577.42        57.21536
577.86        57.74987
578.29        57.92728
578.73        58.49994
579.16          58.237
579.60        57.30833
580.03        57.26163
580.47        57.09364
580.90        57.28801
581.33        57.61928
581.77        57.92586
582.20        58.19543
582.64        58.73772
583.07        58.35575
583.51        57.65156
583.94        57.19226
584.37        56.95811
584.81        56.58216
585.24         56.7628
585.68        57.41458
586.11        57.69018
586.54        57.57623
586.98        57.33349
587.41        56.66881
587.85        57.26032
588.28        57.33051
588.71        57.45288
589.15        57.27206
589.58        56.67229
590.01        56.51822
590.45        56.24036
590.88        56.58899
591.31        56.48996
591.75         56.3311
592.18        56.22002
592.61        56.27233
593.05        56.71044
593.48         56.9381
593.91        57.19714
594.35        57.23373
594.78        57.00196
595.21        56.60611
595.65        56.57926
596.08        56.92683
596.51        56.80716
596.94        56.63939
597.38        56.50428
597.81        56.59361
598.24        56.46833
598.68        56.43342
599.11        56.51823
599.54        56.81642
599.97        57.00188
600.41        56.70213
600.84        56.56818
601.27        56.87963
601.70        56.75425
602.14        56.50021
602.57        56.40922
603.00        56.54399
603.43        56.73333
603.87        56.88869
604.30         56.7528
604.73        56.79225
605.16        56.27794
605.60        56.48603
606.03        56.47926
606.46        56.59708
606.89         56.4474
607.32        56.28538
607.76        56.73952
608.19        56.72963
608.62        56.37773
609.05        57.04538
609.48        56.46689
609.92        56.62153
610.35        56.30932
610.78        56.46736
611.21        56.46988
611.64        56.37304
612.07        56.37626
612.50        56.42104
612.94        56.41175
613.37        56.35402
613.80        56.26016
614.23        56.15633
614.66          56.101
615.09        56.09909
615.52        56.09637
615.96        56.07298
616.39        56.04391
616.82        56.00694
617.25         55.8953
617.68        55.83516
618.11        55.73897
618.54        55.80915
618.97        55.77864
619.40        55.66161
619.84        55.78782
620.27        55.62777
620.70        55.61693
621.13         55.5891
621.56        55.54414
621.99        55.49748
622.42        55.52969
622.85        55.61997
623.28        55.75941
623.71        55.53695
624.14        55.88282
624.57        55.92113
625.00        55.95712
625.43        55.79915
625.86         55.7593
626.29        55.87568
626.72        55.59682
627.15        55.64288
627.58        55.57045
628.01        55.62309
628.44         55.4665
628.87        55.23045
629.30        55.59851
629.73        55.37434
630.16        55.15506
630.59        55.05729
631.02        55.17434
631.45        54.87838
631.88         54.8898
632.31        55.00845
632.74         54.9179
633.17        55.13746
633.60        55.13824
634.03        55.07468
634.46        55.02954
634.89        54.94523
635.32        54.86182
635.75        54.79626
636.18        54.91328
636.61        55.14897
637.04        55.24783
637.47        55.18239
637.89        55.08689
638.32        54.99193
638.75        54.92218
639.18        54.89603
639.61         54.9024
640.04        54.92678
640.47        54.94691
640.90        54.95357
641.33        54.95669
641.76        54.94923
642.18        54.92447
642.61        54.87154
643.04        54.79739
643.47        54.72594
643.90        54.70372
644.33        54.73806
644.76        54.80002
645.18        54.86291
645.61        54.90893
646.04        54.91455
646.47        54.82769
646.90        54.68357
647.33        54.61495
647.75        54.63427
648.18        54.66854
648.61        54.72401
649.04        54.82437
649.47        54.91096
649.89        55.15181
650.32        54.94413
650.75        54.95041
651.18        55.00185
651.61        54.88657
652.03        54.65322
652.46        54.73095
652.89        55.10366
653.32        55.09864
653.74        54.71244
654.17        55.07137
654.60        54.91894
655.03        54.73653
655.46        54.36444
655.88        55.21169
656.31        56.79197
656.74        62.21326
657.16        61.66147
657.59         60.3041
658.02        56.85151
658.45        55.43571
658.87        55.37128
659.30        55.15228
659.73        55.27559
660.15        54.50303
660.58        55.17229
661.01        55.37241
661.44        55.57724
661.86        55.38152
662.29        54.87518
662.72        54.61531
663.14        54.65931
663.57        54.74934
664.00        54.81984
664.42        54.87468
664.85        54.89509
665.27        54.78197
665.70        54.74556
666.13        54.70778
666.55        54.73859
666.98        54.79866
667.41        54.86301
667.83        54.90471
668.26        54.92308
668.69        54.88243
669.11        54.79346
669.54        54.86407
669.96        55.14382
670.39        54.84436
670.82        55.26325
671.24        55.27229
671.67        55.24814
672.09         55.2405
672.52        55.26932
672.94         55.1918
673.37        55.03952
673.80        54.99166
674.22        55.05021
674.65        55.04424
675.07        54.98459
675.50         54.9529
675.92        54.96112
676.35           54.97
676.77        54.97543
677.20        55.00535
677.62        55.07091
678.05        55.09745
678.47        55.06394
678.90        55.29498
679.32        55.21743
679.75         55.2782
680.17        55.30058
680.60        55.34909
681.02        55.35947
681.45        55.30979
681.87        55.21532
682.30        55.18604
682.72        55.23867
683.15        55.24899
683.57        55.20103
684.00        55.33291
684.42        55.24397
684.85        55.30319
685.27         55.3777
685.70        55.46327
686.12        55.51487
686.54        55.50782
686.97        55.43316
687.39        55.32441
687.82        55.22252
688.24        55.17045
688.66        55.16672
689.09        55.41342
689.51        55.45745
689.94         55.6068
690.36        55.70174
690.78        55.71016
691.21        55.65601
691.63         55.5787
692.06        55.53496
692.48        55.60629
692.90        55.75535
693.33        55.80522
693.75        55.74107
694.17        55.65728
694.60        55.57216
695.02         55.5428
695.44        55.37411
695.87        55.44747
696.29         55.6601
696.71        55.61633
697.14        55.39053
697.56        55.57462
697.98         56.1583
698.41         56.2286
698.83        56.15174
699.25        55.94062
699.68        55.77719
700.10        55.64669
700.52        55.58165
700.94        55.58426
701.37        55.60497
701.79        55.61055
702.21        55.57067
702.64        55.50896
703.06         55.4521
703.48        55.44748
703.90        55.50703
704.33        55.60575
704.75        55.72003
705.17        55.79726
705.59         55.8242
706.01        55.81324
706.44        55.79489
706.86        55.83512
707.28        55.93487
707.70        56.07241
708.12        56.21533
708.55        56.30734
708.97        56.32879
709.39        56.30509
709.81        56.25686
710.23        56.22319
710.66         56.2208
711.08        56.24895
711.50        56.28107
711.92        56.29105
712.34        56.27354
712.76        56.23618
713.19        56.19418
713.61        56.21365
714.03        56.28074
714.45        56.38853
714.87         56.5032
715.29        56.53471
715.71        56.46371
716.13        56.46261
716.56        56.28444
716.98        56.23149
717.40        56.23105
717.82        56.27255
718.24        56.33836
718.66          56.403
719.08        56.45758
719.50        56.50739
719.92        56.55306
720.34        56.59319
720.76        56.62749
721.19        56.64521
721.61        56.66293
722.03        56.68327
722.45        56.71024
722.87        56.74715
723.29         56.7916
723.71        56.83849
724.13        56.88628
724.55        56.93125
724.97        56.98609
725.39        57.07155
725.81        57.18634
726.23        57.32113
726.65         57.4372
727.07        57.48055
727.49        57.44332
727.91        57.32872
728.33        57.19067
728.75        57.15139
729.17        57.21633
729.59        57.29652
730.01        57.36913
730.43        57.41875
730.85        57.45776
731.27        57.55357
731.69        57.69307
732.10        57.74443
732.52        57.86457
732.94        57.71223
733.36        57.40813
733.78        57.28968
734.20        57.41255
734.62        57.49257
735.04        57.42708
735.46        57.79694
735.88        57.50813
736.30        57.41625
736.72        57.27018
737.13        57.25356
737.55        57.32317
737.97        57.42351
738.39        57.52512
738.81        57.49112
739.23        57.38258
739.65        57.55832
740.06        57.89244
740.48        57.98643
740.90         57.7931
741.32        57.53894
741.74        57.33239
742.16         57.2519
742.57         57.3488
742.99        57.58581
743.41        57.85759
743.83        57.97594
744.25        57.89668
744.67        57.66729
745.08        57.40964
745.50        57.29222
745.92        57.37592
746.34        57.60607
746.75        57.86651
747.17        57.96955
747.59        57.87285
748.01         57.6085
748.42        57.31268
748.84        57.22333
749.26        57.35623
749.68        57.60009
750.09        57.83854
750.51        57.80511
750.93         57.5664
751.35        57.58216
751.76        57.83473
752.18        57.89925
752.60        57.76671
753.01        57.71283
753.43        57.71514
753.85        57.65814
754.27        57.54376
754.68        57.40605
755.10        57.30083
755.52        57.28946
755.93        57.38196
756.35        57.56286
756.77        57.77517
757.18        57.88583
757.60        57.85589
758.02        57.78673
758.43        57.79086
758.85        57.51749
759.26        57.88046
759.68        58.05709
760.10        57.64769
760.51         57.3848
760.93        57.78535
761.34        57.98487
761.76        58.12265
762.18         58.2499
762.59        58.28911
763.01        58.22986
763.42        57.40809
763.84        57.46163
764.26        57.76543
764.67         58.1778
765.09         58.4521
765.50        58.78428
765.92        59.05681
766.33        58.78621
766.75        58.09686
767.16        57.74157
767.58        57.77041
768.00        57.93639
768.41        58.16448
768.83        58.09565
769.24         57.7424
769.66         58.1364
770.07        58.17271
770.49        58.26289
770.90        58.10567
771.32        58.01729
771.73        58.03236
772.15        58.03811
772.56        58.05934
772.97        58.14463
773.39        58.24102
773.80        58.29531
774.22          58.264
774.63         58.1921
775.05         58.0904
775.46        58.02068
775.88        57.98232
776.29        57.97852
776.70        57.98934
777.12        57.99722
777.53        58.01042
777.95          58.028
778.36        58.04743
778.77        58.05886
779.19        58.06401
779.60        58.07059
780.02        58.08437
780.43        58.15593
780.84        58.29219
781.26        58.39455
781.67        58.48216
782.09        58.69083
782.50        58.92326
782.91        58.85521
783.33        58.53215
783.74         58.4091
784.15        58.50028
784.57        58.59373
784.98         58.6701
785.39        58.72433
785.81        58.75506
786.22        58.87289
786.63        58.97524
787.04        59.02093
787.46        58.99137
787.87        58.92199
788.28         58.8508
788.70        58.80635
789.11         58.7814
789.52        58.78922
789.93        58.82137
790.35        58.81725
790.76         58.8027
791.17        58.87665
791.58        59.00197
792.00        59.04523
792.41        59.02919
792.82        58.95119
793.23        58.90696
793.65        59.14617
794.06        59.63894
794.47        60.03993
794.88        60.25679
795.29        60.45374
795.71        60.50617
796.12        60.42572
796.53        60.19832
796.94        59.92393
797.35        59.65306
797.76        59.43144
798.18        59.29238
798.59        59.20427
799.00        59.16491
799.41        59.22031
799.82        59.32087
800.23        59.35014
800.64        59.28422
801.06        59.13931
801.47        58.99108
801.88        58.89876
802.29        58.89116
802.70        58.94676
803.11        59.06297
803.52        59.23583
803.93        59.44894
804.34        59.68916
804.75         59.9274
805.17        60.11478
805.58        60.25632
805.99        60.32637
806.40        60.31768
806.81        60.26853
807.22         60.1711
807.63        59.93907
808.04        59.65224
808.45        59.54215
808.86        59.64264
809.27        59.84615
809.68        60.08746
810.09        60.27679
810.50         60.3703
810.91        60.39994
811.32        60.35004
811.73        60.20054
812.14        59.96666
812.55         59.6469
812.96        59.35559
813.37        59.29063
813.78        59.48726
814.19        59.88947
814.60        60.32635
815.01         60.5267
815.42        60.42987
815.83        60.10936
816.24        59.70806
816.65        59.50133
817.05         59.5889
817.46         59.8586
817.87        60.22298
818.28        60.51451
818.69        60.68389
819.10        60.78735
819.51        60.85495
819.92        60.93252
820.33        61.03002
820.74        61.10204
821.14        61.14603
821.55        61.19241
821.96        61.23128
822.37        61.27494
822.78        61.26989
823.19        61.11799
823.60        60.81165
824.00         60.3977
824.41        59.97985
824.82        59.78679
825.23        59.87229
825.64        60.18191
826.04         60.5843
826.45        60.82865
826.86         60.8609
827.27        60.74234
827.68        60.57816
828.08        60.57804
828.49        60.72908
828.90          61.005
829.31        61.32832
829.72        61.47147
830.12        61.38659
830.53        61.56429
830.94        61.21214
831.35        61.00256
831.75        60.73734
832.16        60.41459
832.57        60.13988
832.97        60.08788
833.38        60.28452
833.79           60.67
834.20        61.11636
834.60        61.42785
835.01        61.54779
835.42        61.52165
835.82         61.4219
836.23        61.33873
836.64         61.3264
837.04        61.36975
837.45        61.41346
837.86        61.42781
838.26        61.41231
838.67        61.36737
839.08        61.34801
839.48        61.42067
839.89        61.58635
840.29        61.82302
840.70        62.05188
841.11        62.13839
841.51        62.06908
841.92        61.85464
842.33        61.60865
842.73        61.51836
843.14        61.59355
843.54        61.81106
843.95        62.07542
844.35        62.25299
844.76        62.29065
845.17         62.2223
845.57         62.1228
845.98        62.08007
846.38        62.14787
846.79        62.28398
847.19        62.43074
847.60        62.42232
848.00        62.26703
848.41        61.98471
848.81        61.75974
849.22        61.83812
849.62        62.29426
850.03        62.98655
850.43        63.72287
850.84        64.10995
851.24        64.09724
851.65        63.72651
852.05        63.19302
852.46        62.77573
852.86        62.59395
853.27        62.61349
853.67        62.67628
854.07        62.68417
854.48        62.57701
854.88        62.41946
855.29        62.25768
855.69        62.31174
856.10        62.53696
856.50        62.94153
856.90        63.31503
857.31        63.36206
857.71        63.07234
858.12         62.4956
858.52         61.8447
858.92        61.42569
859.33        61.33145
859.73         61.5223
860.13         61.8849
860.54        62.22213
860.94        62.50642
861.34         62.7328
861.75        62.87804
862.15        62.98202
862.55         63.0056
862.96        62.90534
863.36          62.675
863.76        62.26882
864.17        61.70816
864.57        61.08511
864.97        60.46211
865.38        59.91259
865.78        59.52149
866.18        59.27171
866.58         59.2849
866.99        59.71325
867.39        60.54446
867.79        61.64671
868.19        62.69971
868.60        63.19144
869.00        63.12463
869.40        62.81568
869.80        62.37493
870.21        61.82961
870.61        61.35598
871.01        61.04064
871.41        60.87753
871.81        60.74514
872.22        60.63746
872.62        60.60062
873.02        60.63461
873.42        60.90646
873.82        61.19424
874.22        60.92057
874.63        60.34661
875.03        60.03939
875.43        60.08149
875.83        61.27447
876.23        60.61843
876.63        59.86818
877.03        58.74305
877.44         56.6129
877.84        176.8948
878.24         58.0979
878.64        58.93891
879.04        60.47445
879.44        60.90071
879.84        57.26005
880.24        63.06527
880.64        63.64838
881.04        61.41611
881.44        59.56783
881.84        58.62009
882.24        58.77834
882.65        59.55356
883.05        59.63523
883.45        58.77919
883.85        57.89761
884.25        57.36301
884.65        57.29475
885.05        57.75338
885.45        58.57852
885.85        59.47277
886.25        60.04677
886.65         60.1952
887.05        60.03796
887.45        59.64938
887.85          59.167
888.25        58.68101
888.65        58.15513
889.04         57.7298
889.44        57.64602
889.84        57.92331
890.24        58.49182
890.64        59.12236
891.04        59.45946
891.44        59.43339
891.84        59.15263
892.24        58.76463
892.64        58.53757
893.04        58.56063
893.44        58.73649
893.83        59.03561
894.23        59.38538
894.63        59.75869
895.03        60.18995
895.43        60.58526
895.83        60.77866
896.23        60.74247
896.63        60.50225
897.02        60.21242
897.42        60.16811
897.82        60.39004
898.22        60.79972
898.62        61.19249
899.01        61.23824
899.41        60.85115
899.81         60.1659
900.21        59.40225
900.61         58.9163
901.00        58.79861
901.40        59.00557
901.80        59.40539
902.20        59.63277
902.59        59.58106
902.99        59.64821
903.39        60.01887
903.79        59.11317
904.18        59.93858
904.58        60.03336
904.98        60.14324
905.38        59.99221
905.77        59.55867
906.17        58.95079
906.57        58.31981
906.96        58.01523
907.36        58.11952
907.76        58.55005
908.15        59.17237
908.55        59.61431
908.95        59.80929
909.34        59.79527
909.74        59.72659
910.14        59.81296
910.53        60.09811
910.93        60.49023
911.33        60.80385
911.72        60.75552
912.12        60.31289
912.52        59.59788
912.91         58.8306
913.31        58.43069
913.70        58.46606
914.10        58.80576
914.49        59.28055
914.89        59.52189
915.29        59.44324
915.68        59.14854
916.08        58.75665
916.47        58.40136
916.87        58.17687
917.26        58.03556
917.66        57.98945
918.05        58.08424
918.45        58.29044
918.84        58.59623
919.24        58.94865
919.64        59.31012
920.03        59.64491
920.42        59.92712
920.82        60.07456
921.21        59.98266
921.61        59.68995
922.00        59.32406
922.40        59.08882
922.79        59.15052
923.19        59.12674
923.58        59.93913
923.98        61.92014
924.37        62.18046
924.77        59.15687
925.16        68.22311
925.55        61.51203
925.95        61.97536
926.34        61.73077
926.74        60.61285
927.13        58.72281
927.52         57.6429
927.92        58.00742
928.31        58.99254
928.70        60.22192
929.10        61.06719
929.49        61.39787
929.89         61.4348
930.28        61.22497
930.67        60.75602
931.07        60.13015
931.46        59.22124
931.85         58.3834
932.24        58.72276
932.64        60.34623
933.03         62.2467
933.42        63.43758
933.82        66.16373
934.21        64.40588
934.60        62.89296
934.99        61.27698
935.39        60.79739
935.78        61.53352
936.17        63.85049
936.56        70.99052
936.96        63.24977
937.35        67.38148
937.74          63.583
938.13         60.7277
938.53        58.35979
938.92        57.35487
939.31        58.33499
939.70        59.91375
940.09        60.68665
940.49        60.31953
940.88        59.31391
941.27        58.15778
941.66         57.7366
942.05        58.33852
942.44        59.55045
942.84        60.83046
943.23        61.57042
943.62        61.59293
944.01        61.07829
944.40        60.40903
944.79        60.21736
945.18        60.66329
945.57        61.54712
945.97        62.37917
946.36        62.51556
946.75        61.77633
947.14        60.38447
947.53        58.87781
947.92        58.17189
948.31        58.50715
948.70        59.58208
949.09        60.84048
949.48        61.42715
949.87        61.13716
950.26        60.25563
950.65        59.16937
951.04        58.50467
951.43        58.46308
951.82        58.83436
952.21        59.42023
952.60        59.89722
952.99        60.11802
953.38        60.17736
953.77         60.1329
954.16        60.04421
954.55        59.94942
954.94        59.84579
955.33        59.68203
955.72        59.40273
956.11        59.02523
956.50        58.56816
956.89         58.2676
957.28        58.47277
957.66        59.24418
958.05        60.39084
958.44        61.49574
958.83        61.92482
959.22        61.54607
959.61        60.48805
960.00        59.19751
960.39        58.56155
960.78        58.84599
961.16        59.80339
961.55        60.81693
961.94        61.15245
962.33        60.67244
962.72        59.61127
963.11        58.37749
963.49        57.80157
963.88        58.17591
964.27        59.17544
964.66        60.37572
965.04        61.23713
965.43        61.55569
965.82        61.53626
966.21        61.29095
966.60        61.01048
966.98        60.78527
967.37        60.54226
967.76        60.29113
968.15        60.06201
968.53        59.89487
968.92        59.82188
969.31        59.83697
969.69        59.89211
970.08        59.93239
970.47        59.90746
970.86        59.90491
971.24        60.08815
971.63        60.43637
972.02        60.91155
972.40        61.21891
972.79        60.81751
973.17        59.72213
973.56        58.13119
973.95        56.59191
974.33        56.07571
974.72        56.85155
975.11        58.58197
975.49         60.8312
975.88        62.78439
976.26        64.18008
976.65        65.10899
977.04        65.58011
977.42        65.60896
977.81        65.21793
978.19        64.31772
978.58        63.34268
978.96        63.04847
979.35        63.60164
979.74        64.77496
980.12        66.05049
980.51        66.53674
980.89        66.21719
981.28        65.21301
981.66        63.86325
982.05        63.09648
982.43        63.23231
982.82        64.06113
983.20        65.06125
983.59        65.41031
983.97         64.9627
984.35        63.91932
984.74        62.69931
985.12        62.11005
985.51        62.33896
985.89        63.19343
986.28         64.1633
986.66        64.60634
987.04        64.44151
987.43        63.76343
987.81        62.69109
988.20        63.21184
988.58        65.66456
988.96        66.57744
989.35        64.91456
989.73         71.8863
990.12        67.90499
990.50        67.97817
990.88         67.0397
991.27        66.05914
991.65        65.08297
992.03        64.24859
992.42        63.70676
992.80          62.974
993.18        62.04751
993.56        61.19614
993.95        60.58392
994.33        60.36558
994.71        60.60091
995.10        61.15644
995.48        62.02324
995.86          63.204
996.24        64.56789
996.63        65.93259
997.01        67.09585
997.39        67.56871
997.77        67.26004
998.15        66.32964
998.54        65.09087
998.92        63.92646
999.30         63.0568
999.68        62.48894
1000.06        62.25587
1000.45        62.31981
1000.83        62.74539
1001.21        63.51177
1001.59        64.63705
1001.97        66.12337
1002.35        67.79306
1002.73        69.42919
1003.12        70.75291
1003.50        71.53616
1003.88        71.74506
1004.26        71.47634
1004.64        70.81198
1005.02        69.96544
1005.40        69.09147
1005.78        68.19157
1006.16        67.42995
1006.54        66.99575
1006.92        66.95335
1007.30        67.37022
1007.69         67.9651
1008.07        68.39651
1008.45        68.55874
1008.83        68.47137
1009.21        68.51529
1009.59        69.42859
1009.97        71.16763
1010.35        73.18045
1010.73        74.82719
1011.11        75.72063
1011.49        75.98421
1011.86        75.44734
1012.24        74.00666
1012.62        75.19638
1013.00        75.91357
1013.38        75.80338
1013.76        73.26522
1014.14        77.76399
1014.52        84.49993
1014.90        75.77785
1015.28        77.05322
1015.66        78.70457
1016.04          74.904
1016.41        75.54166
1016.79        74.92046
1017.17        74.75759
1017.55        74.37712
1017.93        74.10275
1018.31        74.16199
1018.69        74.27595
1019.06        74.49816
1019.44        74.84071
1019.82        75.09109
1020.20        74.89314
1020.58        74.18346
1020.95        72.84512
1021.33         71.4132
1021.71        71.13321
1022.09        72.46893
1022.46        74.71072
1022.84        76.75251
1023.22        77.91518
1023.60        78.28448
1023.97        78.11841
1024.35        77.71454
1024.73        77.61924
