SpectraSmart Spectrum 2.9.0.0
--------- Device Information -----------
Spectrum Name :  反射率_0
Saving Time :  2024/04/21 00:06:08
Spectro-Module Model Name : SE2030-DUVN
Spectro-Module Serial Number : OS361AC55029948
Wavelength Start : 200
Wavelength End : 1025
Wavelength Unit : Wavelength(nm)
Spectrum Unit : Reflectance(%)
-----------Spectrum Setting ------------
Integration Time : 20ms
Average : 10
Boxcar : 0
Background removal :  enabled
linearity correction :  enabled
SC :  disabled
Intensity correction :  disabled
DWT denoise :  enabled
savitzky-golay :  disabled
FFT :  disabled
Running average :  disabled
Kalman :  disabled
High pass :  disabled
---------------BEGIN--------------------
Wavelength(nm)             Reflectance(%)
200.29               0
200.75       -30.80682
201.21        7.439726
201.67        31.14651
202.13        42.72267
202.58        47.66375
203.04        50.75727
203.50        51.98228
203.96        49.92816
204.42        44.37838
204.88        34.60012
205.34        24.49316
205.80        19.18816
206.26        19.53236
206.72        27.49509
207.18        35.88975
207.64        25.71873
208.10       -8.014102
208.55       -56.72739
209.01       -88.64626
209.47       -66.39742
209.93        -23.3677
210.39        12.94136
210.85        37.17661
211.31        49.69884
211.77        54.74805
212.23        55.67328
212.69        51.18838
213.14        37.57747
213.60        3.602504
214.06       -115.0426
214.52       -429.0054
214.98       -198.5113
215.44       -37.09153
215.90        19.71119
216.36        39.22662
216.81        41.79535
217.27        30.81135
217.73       -28.72418
218.19        701.1798
218.65        322.4597
219.11       -672.7543
219.57       -14.83399
220.02        27.34076
220.48        34.23425
220.94        29.05757
221.40        10.13767
221.86       -32.78087
222.32       -51.94163
222.77       -4.178785
223.23        32.54274
223.69        49.21978
224.15        52.65396
224.61        48.74285
225.06        40.67268
225.52        30.40958
225.98         21.1441
226.44         14.6946
226.90        9.324497
227.36         8.04624
227.81        15.05147
228.27        25.79429
228.73        36.06784
229.19        42.60084
229.65        43.88159
230.10        40.88864
230.56        34.94622
231.02        26.97766
231.48        21.13189
231.93        20.66947
232.39        24.25723
232.85        28.81139
233.31        31.55824
233.77        32.53436
234.22        33.04938
234.68        32.97067
235.14        31.94004
235.60        30.25198
236.05        27.21939
236.51        23.52449
236.97        26.48627
237.43        36.91267
237.88        44.40312
238.34        45.02422
238.80        65.82826
239.26        57.69374
239.71        56.43536
240.17        49.38869
240.63        41.62297
241.08        36.67341
241.54        36.81793
242.00        43.53192
242.46        49.98724
242.91        55.02144
243.37        60.61425
243.83        66.58086
244.28        70.15261
244.74        69.05421
245.20        63.33972
245.66        54.92381
246.11        45.71472
246.57        35.66773
247.03        24.89555
247.48        11.84575
247.94       -7.389179
248.40       -41.15908
248.85       -124.0136
249.31       -380.0112
249.77       -587.4855
250.22       -195.6085
250.68       -32.37102
251.14        21.15142
251.59        39.30299
252.05        44.85013
252.51        44.62454
252.96        38.34234
253.42        28.04107
253.88        18.67918
254.33        12.03462
254.79        13.70401
255.25        24.31715
255.70        37.32612
256.16        48.85891
256.62        56.51799
257.07        59.12666
257.53        58.70857
257.99         56.7713
258.44        54.43832
258.90        53.30086
259.35        52.81504
259.81        52.78032
260.27         52.5559
260.72        51.61568
261.18        50.39294
261.63        48.97097
262.09        47.73904
262.55        46.67488
263.00        45.67633
263.46        44.83565
263.91        43.98964
264.37        43.32063
264.83        42.74156
265.28        42.18677
265.74        41.67721
266.19        41.05332
266.65        40.34686
267.11        39.54525
267.56        38.65087
268.02         37.7583
268.47         36.8528
268.93        35.95935
269.38        35.05414
269.84        34.15789
270.30        33.27159
270.75        32.40547
271.21        31.61357
271.66         30.9084
272.12        30.31711
272.57        29.81228
273.03        29.37039
273.48        28.92283
273.94         28.4682
274.39        27.98174
274.85        27.51747
275.31        27.09482
275.76        26.70883
276.22        26.38476
276.67         26.0625
277.13        25.72666
277.58        25.34755
278.04         24.9674
278.49        24.60541
278.95           24.36
279.40        24.19456
279.86        24.09753
280.31        23.97034
280.77        23.75123
281.22         23.3972
281.68        22.99282
282.13         22.5474
282.59        22.14642
283.04        21.79098
283.50        21.48086
283.95        21.23665
284.41        21.11418
284.86          21.104
285.32        21.20414
285.77        21.32333
286.22        21.33791
286.68        21.24885
287.13        21.05831
287.59        20.90804
288.04        20.90973
288.50        21.05484
288.95        21.41876
289.41        21.92269
289.86        21.95672
290.32        21.41641
290.77        22.32457
291.22        21.43309
291.68        21.55815
292.13        21.76053
292.59        22.10528
293.04         22.5668
293.50        23.17766
293.95         23.9532
294.40        24.86632
294.86        25.89448
295.31        26.98535
295.77        28.11971
296.22        29.29317
296.68        30.51752
297.13        31.80903
297.58        33.18885
298.04        34.65446
298.49        36.21002
298.95        37.88152
299.40        39.64388
299.85        41.48594
300.31        43.36493
300.76        45.19466
301.21        46.96599
301.67        48.72441
302.12        50.49066
302.58        52.39928
303.03        54.45035
303.48        56.65526
303.94        58.97515
304.39        61.29391
304.84        63.58071
305.30        65.86272
305.75        68.12421
306.20        70.45335
306.66        72.84748
307.11        75.20843
307.57        77.48636
308.02        79.53805
308.47        81.36833
308.93        83.06326
309.38        84.63663
309.83        86.17419
310.29        87.75749
310.74        89.29087
311.19         90.7971
311.65        92.27393
312.10        93.69123
312.55        95.05843
313.00        96.32368
313.46        97.40532
313.91        98.27763
314.36        98.97933
314.82        99.59856
315.27        100.2651
315.72        101.0261
316.18        101.8522
316.63        102.6835
317.08        103.4218
317.53        104.0298
317.99        104.5242
318.44        104.9484
318.89        105.3566
319.35        105.7622
319.80         106.161
320.25         106.501
320.70        106.7081
321.16        106.7714
321.61        106.7439
322.06        106.7236
322.51        106.8715
322.97        107.2057
323.42        107.7131
323.87        108.2684
324.32         108.678
324.78        108.8662
325.23        108.9268
325.68        108.9267
326.13         109.013
326.59        109.2043
327.04        109.5035
327.49        109.8436
327.94        110.1519
328.39        110.4024
328.85        110.5973
329.30        110.8076
329.75        111.0053
330.20        111.1999
330.66        111.3496
331.11        111.5527
331.56        111.8356
332.01        112.2082
332.46        112.6549
332.92        113.0813
333.37         113.472
333.82        113.7598
334.27        113.9777
334.72        114.1738
335.17        114.4318
335.63          114.75
336.08        115.1634
336.53        115.6404
336.98        116.1775
337.43         116.757
337.88        117.3742
338.34        117.9503
338.79        118.4166
339.24        118.7277
339.69        118.9071
340.14        119.0259
340.59         119.208
341.05        119.4891
341.50        119.8446
341.95        120.2323
342.40        120.5825
342.85        120.8731
343.30        121.1339
343.75        121.3709
344.20        121.5932
344.66        121.8166
345.11        122.0111
345.56        122.2005
346.01        122.4273
346.46         122.696
346.91        122.9688
347.36         123.186
347.81        123.3275
348.26         123.397
348.72        123.1538
349.17        123.1269
349.62        123.0205
350.07        123.0039
350.52         123.023
350.97        123.0545
351.42        123.0522
351.87        122.9834
352.32        122.8639
352.77        122.6497
353.22          122.27
353.67        121.7252
354.13        121.0572
354.58        120.3281
355.03        119.6985
355.48        119.2106
355.93        118.8257
356.38        118.4831
356.83        118.0766
357.28        117.5691
357.73         116.989
358.18        116.3486
358.63        115.6767
359.08        114.9914
359.53        114.2792
359.98        113.5544
360.43         112.838
360.88        112.1271
361.33        111.4191
361.78        110.6878
362.23         109.889
362.68        109.0217
363.13        108.1071
363.58        107.1788
364.03        106.2877
364.48        105.4455
364.93        104.6345
365.38        103.8425
365.83        103.0503
366.28        102.2493
366.73        101.4454
367.18        100.6292
367.63        99.78823
368.08        98.92364
368.53        98.04083
368.98        97.15176
369.43         96.2635
369.88        95.37526
370.33        94.48936
370.78        93.60246
371.23         92.7263
371.68        91.88078
372.13        91.06808
372.58        90.32781
373.03        89.70325
373.48        89.18267
373.93        88.74722
374.38        88.30459
374.83        87.71489
375.28        86.96405
375.72        86.08831
376.17        85.23151
376.62        84.53259
377.07          84.007
377.52        83.58862
377.97        83.19975
378.42        82.72733
378.87        82.14834
379.32        81.51836
379.77        80.86214
380.22        80.19327
380.67         79.5141
381.11        78.81705
381.56        78.12834
382.01        77.52378
382.46        77.03388
382.91        76.65108
383.36          76.323
383.81        75.96036
384.26        75.53262
384.71        75.05054
385.15         74.5453
385.60         74.1312
386.05        73.80037
386.50        73.52633
386.95        73.23106
387.40        72.80489
387.85        72.25081
388.29        71.58363
388.74        71.00209
389.19         70.5892
389.64        70.35108
390.09        70.23142
390.54        70.14916
390.98        69.96371
391.43        69.68274
391.88        69.34134
392.33        68.98677
392.78        68.69871
393.23         68.4957
393.67        68.27337
394.12        68.09222
394.57        67.97842
395.02        67.86775
395.47         67.5415
395.91        67.07802
396.36        66.77475
396.81        66.69038
397.26        66.70859
397.71        66.70593
398.15        66.56615
398.60        66.34116
399.05        65.85531
399.50        65.33406
399.95        65.39422
400.39        65.89598
400.84        66.06941
401.29        65.78328
401.74        65.15161
402.18        64.38123
402.63        64.04969
403.08        64.13058
403.53        63.92596
403.97        63.43049
404.42        63.16937
404.87        63.14228
405.32        63.12762
405.76        63.10193
406.21        63.06235
406.66        63.01469
407.11        63.11288
407.55        63.28521
408.00        63.18925
408.45        62.85769
408.90        62.46999
409.34         62.1754
409.79        62.27848
410.24        62.65778
410.68         62.7949
411.13         62.6478
411.58        62.52001
412.03        62.46455
412.47        62.43726
412.92        62.43513
413.37        62.48452
413.81        62.54647
414.26        62.61388
414.71        62.66293
415.15        62.70821
415.60        62.73697
416.05        62.78221
416.49        62.84743
416.94        62.91027
417.39        62.94429
417.83        62.90806
418.28        62.79828
418.73        62.62283
419.17        62.42994
419.62        62.30995
420.07        62.29484
420.51        62.36475
420.96        62.47957
421.41        62.57541
421.85        62.61509
422.30        62.51991
422.74        62.37271
423.19        62.69621
423.64        63.37108
424.08         63.6721
424.53        63.50265
424.98        63.57124
425.42        63.92715
425.87        63.88502
426.31        63.58893
426.76        64.03117
427.21        65.00654
427.65        65.09196
428.10        64.35011
428.54        64.13918
428.99        64.53524
429.44        64.77584
429.88         64.7702
430.33        64.80849
430.77          64.828
431.22        64.79984
431.66        64.74763
432.11        64.93308
432.56        65.39214
433.00        65.46178
433.45        64.97523
433.89        65.41236
434.34        66.75454
434.78        65.44425
435.23        64.76252
435.67         66.0507
436.12        66.63808
436.57        67.16336
437.01        66.65503
437.46        66.35957
437.90          66.973
438.35         66.9977
438.79        66.86526
439.24        66.82543
439.68        66.97803
440.13        67.14734
440.57        67.28533
441.02        67.60478
441.46        67.96604
441.91        67.78791
442.35        67.26471
442.80        67.54463
443.24        68.44971
443.69        68.83087
444.13        68.58459
444.58        68.40733
445.02        68.36408
445.47        68.41244
445.91        68.52006
446.36        68.55486
446.80        68.51114
447.24        68.48351
447.69        68.51058
448.13        68.76198
448.58        68.98103
449.02         69.0037
449.47         68.8204
449.91        68.78852
450.36         68.9438
450.80        68.99814
451.25        68.96675
451.69        69.05074
452.13        69.19424
452.58        69.06246
453.02        68.71061
453.47        68.53133
453.91        68.54457
454.36        68.56236
454.80        68.53643
455.24        68.50991
455.69        68.49417
456.13        68.37238
456.58        68.20187
457.02         68.3032
457.46         68.2663
457.91        68.19587
458.35        68.09473
458.79        67.97912
459.24        67.89789
459.68         67.8121
460.13        67.79057
460.57        67.63433
461.01        67.31786
461.46        67.50924
461.90        67.50531
462.34        66.93066
462.79        67.25066
463.23        67.39688
463.68        67.70458
464.12        67.44344
464.56        66.79714
465.01        66.78121
465.45        67.21989
465.89        67.42733
466.34        67.39866
466.78        67.29735
467.22        67.07582
467.67        67.53168
468.11        66.71935
468.55        66.67027
468.99          66.768
469.44        66.71942
469.88        66.50863
470.32         66.3624
470.77        66.31451
471.21         66.2537
471.65        66.18135
472.10        66.13058
472.54        66.09307
472.98        66.08095
473.42        66.09547
473.87        66.12202
474.31        66.11207
474.75        66.14763
475.20        66.17944
475.64        66.04361
476.08        65.80747
476.52        65.67752
476.97        65.64162
477.41        65.78246
477.85        66.02235
478.29         65.7905
478.74        65.33003
479.18        65.65043
479.62        66.00298
480.06        66.22433
480.50        66.03522
480.95         66.1128
481.39        66.47282
481.83        65.92067
482.27        66.41304
482.72        66.31737
483.16        66.11461
483.60         66.4789
484.04        66.50906
484.48        66.34415
484.93        66.32092
485.37        66.11002
485.81        66.28319
486.25        65.85465
486.69        67.60835
487.14        67.63799
487.58        65.99538
488.02          65.899
488.46        65.97765
488.90        66.27146
489.34        66.20487
489.79        65.80571
490.23         65.8421
490.67        65.80209
491.11        65.92282
491.55        65.98725
491.99        65.97087
492.43         65.9366
492.88        65.87342
493.32        65.78537
493.76        65.64146
494.20        65.52689
494.64        65.48186
495.08        65.12022
495.52        65.00259
495.96        65.19363
496.41        65.70105
496.85        65.78644
497.29        65.42337
497.73        65.50057
498.17         65.6484
498.61        65.60974
499.05        65.30135
499.49        65.17105
499.93        65.24682
500.37        65.26009
500.82        65.20802
501.26        65.28178
501.70        65.50362
502.14        65.27827
502.58        65.24926
503.02        64.87093
503.46        65.14951
503.90        65.23038
504.34        65.29228
504.78        65.29677
505.22        65.24996
505.66        65.07826
506.10        64.82266
506.54        64.84074
506.98        65.20565
507.42        64.81194
507.86        65.39251
508.30        65.43377
508.74        65.30345
509.18        65.09575
509.62         64.8575
510.06        64.73981
510.50        64.74134
510.94        64.76391
511.38        64.76289
511.82        64.73862
512.26        64.67419
512.70        64.55032
513.14        64.40742
513.58        64.32735
514.02        64.32797
514.46        64.38658
514.90        64.45305
515.34        64.48143
515.78        64.45947
516.22        64.38351
516.66        64.14622
517.10        64.38332
517.54        64.29427
517.98        64.48354
518.42         64.6451
518.86        64.69537
519.30         64.6125
519.74         64.3954
520.18        64.15362
520.62        64.13633
521.06        64.32736
521.50        64.44968
521.93        64.45679
522.37        64.47927
522.81        64.50386
523.25        64.43348
523.69        64.30231
524.13        64.22173
524.57        64.21125
525.01        64.23651
525.45          64.286
525.89        64.34409
526.32        64.39733
526.76         64.4546
527.20        64.50778
527.64        64.54505
528.08        64.56218
528.52        64.55972
528.96        64.53493
529.40        64.48742
529.83        64.41457
530.27        64.33234
530.71        64.25072
531.15        64.19929
531.59        64.18433
532.03        64.19785
532.46        64.21786
532.90        64.22749
533.34        64.21477
533.78        64.18557
534.22        64.14997
534.66         64.1241
535.09        64.10326
535.53        64.10368
535.97        64.10508
536.41        64.09422
536.85        64.06915
537.28        64.03481
537.72        64.00643
538.16        64.00941
538.60        64.04499
539.04        64.10278
539.47        64.14586
539.91        64.17272
540.35        64.16214
540.79        64.12656
541.22        64.07579
541.66        64.04076
542.10        64.02505
542.54        64.01707
542.97        64.01337
543.41        64.04185
543.85        64.09741
544.29        64.18658
544.72        64.26564
545.16        64.32294
545.60        64.34188
546.04        64.25115
546.47        64.12495
546.91        64.24326
547.35        64.52804
547.79        64.61459
548.22        64.46899
548.66        64.28266
549.10        64.13701
549.53        64.14751
549.97        64.28968
550.41        64.30672
550.84         64.1688
551.28        64.09474
551.72        64.12993
552.15        64.10365
552.59        64.00229
553.03        64.43584
553.46        64.30853
553.90        64.39306
554.34        64.37154
554.77        64.27621
555.21        64.16938
555.65        64.15469
556.08        64.25153
556.52        64.41001
556.96        64.56551
557.39        64.69074
557.83        64.74965
558.27        64.61536
558.70        64.36324
559.14        64.24683
559.57        64.28437
560.01        64.40901
560.45        64.52503
560.88        64.50807
561.32        64.40812
561.75        64.21738
562.19         64.0479
562.63         64.1468
563.06        64.41689
563.50         64.3485
563.93        63.98983
564.37        63.89951
564.80        64.07365
565.24        64.26022
565.68        64.39339
566.11        64.48494
566.55        64.53728
566.98        64.52726
567.42        64.50938
567.85        64.51765
568.29        64.58498
568.72        64.62958
569.16        64.71501
569.60        64.70814
570.03        64.90478
570.47        65.03675
570.90        65.13802
571.34        65.15421
571.77        65.42127
572.21        65.25082
572.64         65.1148
573.08        65.01762
573.51        64.88139
573.95        65.42963
574.38        65.45702
574.82        66.15002
575.25        66.07807
575.69        65.77627
576.12        65.58553
576.56        65.21255
576.99        65.64561
577.42        65.47903
577.86        65.48619
578.29        66.28916
578.73        66.24837
579.16        66.00589
579.60        65.22694
580.03        65.36185
580.47        65.33048
580.90        65.61275
581.33        65.75924
581.77        65.98064
582.20        66.35258
582.64        66.49012
583.07        65.83595
583.51           65.57
583.94        65.38479
584.37        65.12729
584.81        64.95406
585.24        65.04348
585.68        65.76499
586.11        65.56642
586.54        65.52487
586.98        65.36729
587.41         65.3157
587.85        65.67389
588.28        65.80147
588.71        65.48912
589.15        65.24127
589.58        65.30987
590.01         64.8574
590.45        64.47939
590.88        65.07679
591.31        64.77323
591.75        64.69072
592.18        64.61591
592.61        64.73622
593.05        65.28256
593.48        65.15917
593.91        65.35711
594.35        65.38686
594.78        65.62273
595.21        65.20769
595.65        65.13192
596.08        65.14392
596.51        65.43469
596.94        65.36048
597.38        65.29218
597.81        65.05836
598.24        65.33128
598.68         64.6365
599.11        64.98172
599.54        65.49377
599.97        65.32746
600.41        65.16994
600.84        65.45624
601.27        65.48796
601.70        65.37122
602.14        64.99027
602.57        64.98716
603.00        65.37505
603.43        65.42481
603.87        65.58817
604.30        65.56584
604.73        65.47834
605.16        65.23127
605.60        65.38834
606.03        65.40012
606.46        65.71967
606.89          65.646
607.32        65.20927
607.76        65.54332
608.19        65.62244
608.62          65.179
609.05        65.79866
609.48        65.31284
609.92        65.45644
610.35        65.33066
610.78        65.58546
611.21        65.52831
611.64        65.54381
612.07        65.48522
612.50        65.44553
612.94         65.5283
613.37         65.2718
613.80        65.57804
614.23        65.42283
614.66        65.38927
615.09         65.4519
615.52        65.42371
615.96        65.36057
616.39        65.31045
616.82        65.30365
617.25        65.06538
617.68        65.02679
618.11        64.97449
618.54        64.92027
618.97        64.88274
619.40        64.79081
619.84        65.01149
620.27        64.90516
620.70        64.94724
621.13        64.94144
621.56        64.93194
621.99        64.93979
622.42        64.96425
622.85        64.94761
623.28        65.06326
623.71        64.89977
624.14        64.97442
624.57        64.94212
625.00          65.528
625.43        64.94028
625.86        65.04963
626.29        65.38181
626.72        64.94405
627.15        65.06832
627.58        64.92197
628.01        64.99432
628.44         64.6342
628.87        64.45986
629.30        64.98024
629.73        64.58221
630.16        64.66125
630.59        64.44592
631.02        64.75233
631.45        64.54843
631.88        64.58583
632.31        64.61645
632.74        64.33031
633.17         64.3991
633.60        64.28265
634.03        64.19361
634.46        64.16916
634.89        64.12994
635.32         64.1736
635.75        64.25639
636.18        64.40786
636.61        64.58536
637.04        64.56673
637.47        64.58662
637.89        64.46957
638.32        64.32961
638.75        64.25537
639.18        64.27204
639.61        64.35114
640.04        64.44733
640.47        64.49377
640.90        64.46987
641.33         64.3971
641.76        64.30659
642.18        64.25377
642.61        64.23969
643.04        64.25691
643.47        64.28061
643.90        64.27633
644.33        64.23649
644.76        64.16299
645.18        64.08903
645.61        64.08537
646.04        64.15092
646.47        64.21355
646.90        64.25286
647.33        64.29316
647.75        64.31973
648.18        64.31088
648.61        64.30121
649.04        64.34341
649.47         64.4002
649.89        64.66096
650.32        64.43384
650.75        64.55692
651.18        64.77522
651.61        64.69593
652.03        64.38934
652.46        64.37676
652.89        64.67506
653.32        64.74348
653.74         64.5512
654.17        64.55759
654.60        64.61449
655.03        64.09442
655.46        64.09502
655.88        64.91847
656.31        66.07533
656.74        70.81034
657.16         69.1947
657.59        67.30658
658.02        65.20962
658.45        64.98817
658.87        64.69994
659.30        64.51912
659.73        64.73993
660.15        64.18897
660.58        64.54959
661.01        64.76906
661.44        65.12386
661.86        65.17505
662.29        64.90784
662.72        64.58098
663.14        64.31805
663.57        64.29786
664.00        64.49098
664.42        64.58566
664.85        64.57095
665.27        64.54415
665.70        64.70995
666.13        64.78452
666.55         64.8241
666.98        64.84524
667.41        64.84211
667.83        64.81686
668.26        64.78506
668.69        64.68816
669.11        64.54192
669.54        64.60021
669.96        64.92214
670.39        64.58035
670.82        65.08858
671.24        65.10445
671.67         65.0661
672.09        65.00608
672.52        64.97225
672.94        64.89069
673.37        64.78764
673.80        64.76917
674.22        64.83104
674.65        64.84185
675.07        64.81174
675.50        64.79182
675.92        64.79851
676.35        64.81267
676.77        64.83576
677.20        64.88417
677.62        64.96483
678.05        65.01594
678.47        65.01746
678.90        65.21984
679.32        65.17944
679.75        65.25172
680.17        65.29887
680.60        65.36824
681.02        65.43188
681.45         65.3632
681.87        65.20843
682.30        65.15384
682.72        65.22399
683.15        65.26244
683.57        65.24483
684.00        65.34964
684.42        65.25929
684.85        65.27444
685.27        65.28959
685.70         65.2887
686.12        65.24927
686.54        65.19934
686.97         65.1371
687.39        65.07563
687.82        65.03719
688.24        65.05638
688.66        65.10213
689.09        65.36684
689.51        65.34333
689.94        65.48816
690.36         65.6245
690.78        65.70325
691.21        65.72648
691.63         65.6547
692.06        65.51527
692.48        65.65791
692.90        65.57141
693.33        65.61803
693.75        65.65492
694.17        65.67673
694.60        65.67302
695.02        65.85719
695.44        65.92378
695.87        65.92914
696.29        65.82484
696.71        65.74046
697.14        65.71281
697.56        65.81886
697.98        65.99485
698.41        66.04545
698.83        65.97488
699.25        65.87151
699.68        65.76756
700.10        65.67266
700.52        65.60242
700.94        65.56013
701.37        65.53408
701.79        65.55196
702.21        65.59605
702.64        65.65448
703.06        65.71404
703.48        65.80086
703.90        65.91936
704.33        65.90435
704.75        66.01762
705.17         66.0038
705.59        65.94331
706.01        65.83947
706.44        65.73976
706.86         65.7369
707.28        65.83259
707.70        66.00356
708.12        66.19906
708.55         66.3299
708.97        66.36668
709.39        66.34384
709.81        66.28788
710.23        66.25146
710.66        66.25476
711.08        66.28919
711.50         66.3268
711.92        66.34425
712.34         66.3354
712.76        66.31137
713.19        66.27412
713.61        66.27213
714.03        66.29019
714.45        66.33591
714.87        66.40369
715.29        66.43977
715.71        66.43077
716.13        66.55903
716.56        66.50603
716.98        66.58099
717.40         66.6752
717.82        66.78323
718.24        66.87846
718.66        66.92751
719.08        66.93102
719.50        66.88756
719.92        66.81646
720.34        66.79174
720.76        66.83575
721.19        66.74563
721.61        66.85819
722.03        66.90971
722.45        66.99151
722.87         67.0976
723.29        67.21245
723.71         67.3019
724.13        67.35168
724.55        67.37196
724.97        67.40235
725.39        67.43082
725.81        67.44883
726.23        67.59867
726.65        67.88151
727.07        67.51246
727.49        67.74384
727.91        67.57265
728.33        67.41727
728.75         67.3474
729.17        67.37946
729.59        67.41531
730.01        67.43089
730.43        67.47575
730.85        67.53808
731.27        67.58463
731.69        67.62772
732.10        67.63022
732.52        67.81361
732.94        67.77098
733.36        67.60249
733.78        67.58855
734.20        67.76606
734.62        67.70705
735.04        67.85098
735.46        67.95298
735.88        67.92481
736.30        67.93824
736.72        67.92477
737.13        67.89504
737.55        67.81075
737.97        67.68923
738.39        67.58619
738.81        67.60881
739.23        67.75887
739.65        67.95841
740.06        68.09134
740.48        68.16138
740.90        68.11825
741.32        67.94875
741.74        67.73612
742.16        67.65218
742.57         67.7487
742.99        67.95423
743.41        68.18138
743.83        68.27074
744.25        68.18533
744.67        67.97312
745.08        67.74751
745.50        67.64918
745.92        67.73695
746.34        67.96609
746.75        68.23376
747.17         68.3735
747.59        68.34641
748.01        68.16581
748.42        67.95499
748.84        67.94817
749.26        68.14898
749.68        68.40472
750.09        68.59965
750.51        68.54298
750.93        68.28517
751.35        68.16828
751.76        68.22128
752.18        68.19447
752.60        68.09864
753.01        68.13279
753.43        68.22588
753.85        68.21165
754.27        68.07384
754.68        67.86384
755.10        67.67896
755.52        67.64892
755.93        67.79688
756.35        68.07166
756.77        68.36809
757.18        68.53838
757.60        68.54987
758.02        68.40342
758.43        68.16678
758.85        68.11835
759.26        68.27016
759.68        68.25153
760.10        68.03879
760.51        68.08274
760.93        68.90728
761.34        67.99503
761.76        68.42772
762.18        68.46686
762.59        68.83861
763.01        69.04028
763.42        68.19202
763.84        68.18803
764.26        68.44521
764.67        68.67518
765.09        68.75985
765.50        69.00076
765.92        69.31419
766.33         69.3298
766.75        69.04225
767.16        68.71194
767.58        68.43697
768.00        68.55318
768.41         68.9933
768.83        69.08857
769.24        68.79224
769.66        68.88196
770.07        68.63797
770.49         68.7662
770.90        68.99276
771.32        69.02066
771.73        68.86214
772.15        68.84885
772.56        69.01414
772.97        69.09388
773.39        69.05939
773.80        69.18592
774.22        69.37606
774.63        69.29945
775.05         69.0005
775.46        68.89768
775.88        69.00494
776.29         69.1367
776.70        69.22397
777.12        69.25629
777.53          69.232
777.95        69.15005
778.36        69.05244
778.77        68.99739
779.19        69.00574
779.60        69.07015
780.02        69.16624
780.43        69.29855
780.84        69.47205
781.26        69.57182
781.67        69.62058
782.09        69.87293
782.50        70.27869
782.91        69.99857
783.33        69.96436
783.74        69.94059
784.15        69.92574
784.57        69.95028
784.98         69.9384
785.39        69.93856
785.81        69.93951
786.22        69.94375
786.63        69.95829
787.04        69.98666
787.46         70.0432
787.87        70.10326
788.28        70.17266
788.70        70.24709
789.11        70.30499
789.52        70.36165
789.93         70.4211
790.35        70.47766
790.76        70.54034
791.17        70.60921
791.58        70.68249
792.00        70.70534
792.41        70.69705
792.82        70.76253
793.23        70.91206
793.65        70.84961
794.06        70.70937
794.47        71.15088
794.88        71.97713
795.29        72.10471
795.71        72.00211
796.12        71.63082
796.53        71.27355
796.94        71.09088
797.35        71.11782
797.76        71.12933
798.18        71.07809
798.59        71.08529
799.00        71.12666
799.41        71.10729
799.82        71.04347
800.23         71.0222
800.64        71.05311
801.06        71.08363
801.47        71.11931
801.88        71.10205
802.29        71.02104
802.70        70.88466
803.11         70.7561
803.52        70.73956
803.93        70.87246
804.34          71.137
804.75        71.43104
805.17        71.64947
805.58        71.79781
805.99        71.66095
806.40        71.39091
806.81        71.79708
807.22        72.65192
807.63        72.64083
808.04        71.87099
808.45        71.64788
808.86        72.05311
809.27        72.32129
809.68        72.36272
810.09        72.38569
810.50        72.37083
810.91        72.28043
811.32        72.12589
811.73        71.92662
812.14        71.70374
812.55        71.45826
812.96         71.2839
813.37        71.32565
813.78        71.59794
814.19        72.05595
814.60        72.51912
815.01        72.70522
815.42        72.55582
815.83        72.14166
816.24        71.63811
816.65        71.38448
817.05         71.4998
817.46         71.8555
817.87        72.32008
818.28        72.64842
818.69        72.77222
819.10        72.76414
819.51        72.70393
819.92        72.72565
820.33        72.86615
820.74        73.05937
821.14        73.23751
821.55         73.3306
821.96        73.30678
822.37         73.2019
822.78        73.04727
823.19        72.89181
823.60         72.7615
824.00        72.66174
824.41        72.56521
824.82        72.50048
825.23        72.47144
825.64        72.49065
826.04        72.55379
826.45        72.60738
826.86        72.65355
827.27         72.6942
827.68         72.7579
828.08        72.92319
828.49        73.12096
828.90        73.36488
829.31        73.60615
829.72         73.6954
830.12         73.6195
830.53        73.69472
830.94        73.39593
831.35         73.2028
831.75        72.99678
832.16        72.75467
832.57        72.58087
832.97        72.62911
833.38        72.90831
833.79        73.36758
834.20        73.84853
834.60        74.11252
835.01        74.10545
835.42         73.8816
835.82        73.58608
836.23        73.42291
836.64        73.47668
837.04        73.70156
837.45         73.9482
837.86        74.03614
838.26        73.93176
838.67        73.68547
839.08        73.43255
839.48        73.37066
839.89        73.53397
840.29        73.85368
840.70        74.21075
841.11        74.41533
841.51        74.42872
841.92        74.27998
842.33        74.05849
842.73        73.90632
843.14        73.83184
843.54        73.83186
843.95        73.88622
844.35        73.99351
844.76        74.12822
845.17        74.29163
845.57        74.48335
845.98        74.65678
846.38        74.82413
846.79          74.966
847.19         75.0739
847.60        75.05905
848.00        74.95483
848.41         74.7455
848.81        74.57482
849.22        74.60577
849.62         74.9072
850.03        75.37518
850.43        75.88534
850.84        76.13308
851.24        76.10163
851.65        75.80408
852.05        75.41372
852.46        75.13476
852.86        75.05814
853.27        75.16274
853.67        75.29323
854.07        75.38756
854.48        75.38348
854.88        75.33279
855.29        75.24963
855.69        75.33499
856.10        75.51884
856.50        75.83788
856.90        76.08518
857.31        75.97905
857.71        75.52812
858.12         74.7607
858.52        73.92847
858.92        73.37534
859.33        73.19994
859.73        73.37463
860.13        73.71093
860.54         73.8866
860.94        73.86313
861.34        73.67112
861.75        73.42377
862.15        73.39247
862.55        73.59288
862.96        73.92532
863.36        74.22279
863.76        74.17164
864.17        73.71131
864.57        72.98567
864.97        72.21895
865.38        71.76743
865.78        71.78886
866.18        72.17015
866.58        72.77893
866.99        73.33166
867.39        73.73421
867.79        74.02834
868.19        74.21256
868.60        74.20219
869.00        74.05709
869.40        73.90565
869.80        73.73616
870.21        73.40781
870.61        73.00682
871.01        72.64014
871.41        72.31533
871.81        71.94052
872.22        71.52014
872.62        71.09978
873.02        70.76236
873.42        70.79261
873.82        71.07085
874.22         71.1226
874.63        71.07864
875.03         71.2321
875.43        71.57935
875.83        72.69766
876.23        72.45614
876.63         72.0974
877.03        71.42587
877.44        69.97325
877.84        153.2578
878.24        70.98235
878.64        71.60841
879.04        72.74212
879.44        73.06752
879.84        70.43246
880.24        74.18932
880.64        74.22986
881.04        72.24712
881.44         70.6736
881.84        69.96831
882.24          70.247
882.65        71.00641
883.05        71.12325
883.45        70.35683
883.85        69.40598
884.25        68.67696
884.65        68.47668
885.05        68.89993
885.45        69.76532
885.85        70.69642
886.25        71.17582
886.65        71.09302
887.05        70.61734
887.45        69.98722
887.85        69.60707
888.25        69.61232
888.65        69.86673
889.04         70.2756
889.44        70.68604
889.84        71.00979
890.24        71.28876
890.64        71.48113
891.04         71.5163
891.44        71.40302
891.84        71.16724
892.24         70.8728
892.64         70.6486
893.04        70.54631
893.44         70.5368
893.83        70.64753
894.23        70.88316
894.63        71.23063
895.03        71.68676
895.43        72.12804
895.83        72.34633
896.23         72.3012
896.63        72.04267
897.02        71.71959
897.42         71.6307
897.82        71.79948
898.22        72.14429
898.62        72.50143
899.01        72.61301
899.41        72.39388
899.81        71.94751
900.21         71.4169
900.61        71.03362
901.00          70.856
901.40         70.8736
901.80        71.00342
902.20        71.00873
902.59        70.83389
902.99        70.76579
903.39        70.96309
903.79        70.30373
904.18        70.97269
904.58         71.1694
904.98        71.41514
905.38         71.4842
905.77         71.3306
906.17        71.03556
906.57        70.68409
906.96        70.50375
907.36        70.55419
907.76        70.80839
908.15         71.1816
908.55        71.38007
908.95        71.38875
909.34        71.22472
909.74        71.11132
910.14        71.36456
910.53        72.01643
910.93        72.93187
911.33        73.75182
911.72        73.91299
912.12        73.33739
912.52        72.24271
912.91        71.01373
913.31        70.34077
913.70        70.37158
914.10        70.88941
914.49        71.67401
914.89        72.24673
915.29         72.4684
915.68        72.47997
916.08        72.34135
916.47        72.09525
916.87        71.82458
917.26        71.48309
917.66        71.19815
918.05         71.2168
918.45        71.55333
918.84        72.16183
919.24        72.83195
919.64        73.26327
920.03        73.37108
920.42         73.2109
920.82        72.89954
921.21        72.65381
921.61          72.562
922.00        72.61813
922.40        72.79609
922.79        72.94589
923.19        72.75477
923.58         72.9468
923.98        73.89114
924.37        73.81319
924.77        71.64941
925.16        77.98834
925.55        73.48159
925.95        73.97263
926.34        73.97107
926.74        73.39621
927.13        72.24179
927.52        71.41541
927.92        71.33759
928.31        71.50851
928.70        71.86903
929.10        72.25959
929.49        72.63522
929.89         73.0561
930.28        73.40192
930.67         73.3476
931.07        72.86561
931.46        71.96218
931.85        71.00775
932.24        70.99914
932.64        72.08318
933.03        73.49257
933.42        74.46387
933.82        76.46536
934.21        75.28555
934.60        74.23527
934.99        73.12197
935.39         72.8732
935.78         73.5494
936.17        75.36459
936.56        80.39607
936.96        75.22201
937.35        77.92344
937.74        75.16069
938.13        73.04269
938.53        71.51328
938.92         71.2455
939.31        72.51243
939.70        74.20608
940.09        75.22314
940.49        75.30878
940.88        74.87015
941.27        74.15282
941.66         73.6144
942.05        73.47569
942.44        73.54678
942.84        73.71824
943.23        73.93867
943.62        74.14292
944.01        74.35063
944.40        74.61035
944.79        74.96168
945.18        75.37792
945.57          75.827
945.97        76.07143
946.36        75.87022
946.75        75.15344
947.14        74.00165
947.53        72.79181
947.92        72.17972
948.31        72.33603
948.70        73.08558
949.09        73.98828
949.48        74.34281
949.87        73.99507
950.26        73.16799
950.65        72.23183
951.04         71.7956
951.43        72.03025
951.82        72.72662
952.21        73.61485
952.60        74.23886
952.99        74.42941
953.38        74.33005
953.77         74.0775
954.16        73.85841
954.55        73.74071
954.94         73.6647
955.33        73.59196
955.72        73.48267
956.11        73.32479
956.50        73.13772
956.89        73.00126
957.28        73.01386
957.66        73.22116
958.05        73.54592
958.44        73.82617
958.83        73.80262
959.22        73.42636
959.61        72.72765
960.00         71.9912
960.39        71.76596
960.78        72.18048
961.16        73.07732
961.55        73.94765
961.94         74.1797
962.33        73.67218
962.72        72.58994
963.11        71.34007
963.49        70.78085
963.88        71.17517
964.27        72.21484
964.66        73.41962
965.04        74.14751
965.43        74.19682
965.82         73.8203
966.21         73.2059
966.60        72.68251
966.98        72.39977
967.37        72.23323
967.76        72.19871
968.15        72.32752
968.53        72.62207
968.92        73.08375
969.31        73.58626
969.69        73.88683
970.08        73.88713
970.47        73.61083
970.86        73.25151
971.24        73.17302
971.63        73.43178
972.02        73.92666
972.40        74.37946
972.79        74.29316
973.17        73.64078
973.56        72.57613
973.95        71.46841
974.33        70.97042
974.72        71.25385
975.11        72.09482
975.49        73.23023
975.88        74.13794
976.26        74.70972
976.65        75.03365
977.04         75.1358
977.42        75.02048
977.81        74.68475
978.19        74.05061
978.58        73.53177
978.96        73.82106
979.35        74.96161
979.74        76.64407
980.12        78.23721
980.51        78.79475
980.89        78.31519
981.28        76.95762
981.66        75.16216
982.05        74.04774
982.43        74.08313
982.82        74.97643
983.20        76.25507
983.59        77.13804
983.97        77.44029
984.35        77.36301
984.74        76.98932
985.12        76.56367
985.51        76.17055
985.89        75.79181
986.28        75.44273
986.66         75.2037
987.04        75.12842
987.43        75.15385
987.81        75.11755
988.20        75.82965
988.58        77.36736
988.96        77.63455
989.35         76.0825
989.73        80.68541
990.12        78.08786
990.50        78.47927
990.88        78.29886
991.27        78.05068
991.65        77.70913
992.03         77.4068
992.42        77.21639
992.80        76.85548
993.18        76.30562
993.56        75.69679
993.95        75.18256
994.33        74.96606
994.71        75.09422
995.10        75.45413
995.48        75.94658
995.86        76.38912
996.24        76.69649
996.63        76.84836
997.01        76.88972
997.39        76.70083
997.77        76.28593
998.15        75.67487
998.54         75.0719
998.92        74.70208
999.30        74.68002
999.68        75.01085
1000.06        75.52567
1000.45        75.80273
1000.83        75.81599
1001.21        75.65234
1001.59        75.58354
1001.97        76.01714
1002.35        76.94308
1002.73        78.08636
1003.12        79.19861
1003.50        80.04603
1003.88        80.57099
1004.26        80.88828
1004.64        80.93301
1005.02        80.57286
1005.40        79.80981
1005.78        78.66834
1006.16        77.48382
1006.54        76.79852
1006.92        76.76598
1007.30        77.33453
1007.69        78.07871
1008.07        78.42242
1008.45        78.21812
1008.83        77.60281
1009.21         77.0341
1009.59        77.43201
1009.97        78.87007
1010.35        80.73163
1010.73          82.411
1011.11        83.50375
1011.49        84.07726
1011.86        84.14919
1012.24        83.49754
1012.62        84.08404
1013.00        83.95004
1013.38        82.92915
1013.76        80.17892
1014.14        83.34081
1014.52        88.75767
1014.90        83.67516
1015.28         85.8946
1015.66        87.39878
1016.04        84.46957
1016.41        83.39797
1016.79        81.33822
1017.17        80.45156
1017.55        80.49368
1017.93        81.33531
1018.31        82.91997
1018.69        84.59579
1019.06          86.063
1019.44        87.40417
1019.82        88.16829
1020.20        87.68626
1020.58        85.82189
1020.95        82.30491
1021.33        77.92856
1021.71        75.67515
1022.09        77.05085
1022.46        80.72395
1022.84        84.47954
1023.22        86.60201
1023.60        87.13228
1023.97        86.66692
1024.35        85.67115
1024.73        85.04773
