SpectraSmart Spectrum 2.9.0.0
--------- Device Information -----------
Spectrum Name :  反射率_0
Saving Time :  2024/04/21 00:20:36
Spectro-Module Model Name : SE2030-DUVN
Spectro-Module Serial Number : OS361AC55029948
Wavelength Start : 200
Wavelength End : 1025
Wavelength Unit : Wavelength(nm)
Spectrum Unit : Reflectance(%)
-----------Spectrum Setting ------------
Integration Time : 20ms
Average : 10
Boxcar : 0
Background removal :  enabled
linearity correction :  enabled
SC :  disabled
Intensity correction :  disabled
DWT denoise :  enabled
savitzky-golay :  disabled
FFT :  disabled
Running average :  disabled
Kalman :  disabled
High pass :  disabled
---------------BEGIN--------------------
Wavelength(nm)             Reflectance(%)
200.29               0
200.75       -49.68763
201.21       -22.02347
201.67       -5.477634
202.13        4.747373
202.58        12.39524
203.04        20.68513
203.50        28.42705
203.96        29.88486
204.42        22.54544
204.88        8.029791
205.34       -8.362232
205.80       -20.71716
206.26       -27.52412
206.72       -25.97484
207.18       -19.81697
207.64       -21.01575
208.10       -32.48772
208.55        -51.0955
209.01       -54.92023
209.47         -22.885
209.93        16.32178
210.39         45.7166
210.85        63.31544
211.31        69.86874
211.77        67.97959
212.23        57.71082
212.69         34.1315
213.14       -8.916445
213.60       -83.52614
214.06       -281.8182
214.52       -707.9182
214.98       -312.2163
215.44       -84.61201
215.90       -8.887919
216.36        16.17184
216.81        19.02383
217.27        4.173187
217.73        -76.0267
218.19        894.9623
218.65        375.0253
219.11       -798.7657
219.57       -29.52924
220.02        19.43724
220.48        28.54337
220.94        25.11574
221.40        9.089729
221.86       -29.67517
222.32       -52.75622
222.77       -15.33882
223.23        15.79383
223.69         30.9996
224.15        35.65419
224.61        34.72382
225.06        31.03734
225.52        25.57234
225.98         19.4731
226.44        13.60916
226.90        6.775333
227.36        2.078912
227.81        5.150265
228.27        13.09235
228.73        21.76972
229.19        27.41468
229.65        27.80948
230.10        23.71471
230.56        16.71768
231.02        8.099061
231.48        2.642713
231.93        3.768414
232.39        9.496451
232.85         15.9706
233.31         20.0053
233.77        21.82481
234.22        22.97367
234.68        23.39901
235.14        22.85588
235.60        21.69348
236.05        19.06893
236.51        15.79358
236.97        19.92311
237.43        32.14618
237.88        41.18179
238.34        42.84264
238.80        64.60547
239.26         55.2513
239.71        51.72342
240.17        40.81478
240.63        29.35789
241.08        22.78615
241.54        24.87486
242.00        36.00957
242.46        44.74656
242.91        48.35688
243.37        48.74438
243.83        47.50334
244.28        49.20934
244.74        55.17056
245.20        61.32716
245.66        64.20002
246.11        60.82124
246.57        51.17368
247.03        36.79284
247.48        19.18424
247.94       0.3633826
248.40       -22.75208
248.85        -69.8513
249.31       -197.8642
249.77       -265.4548
250.22       -59.09815
250.68        16.51123
251.14        39.00115
251.59        45.47803
252.05        46.07354
252.51        43.33463
252.96        35.91546
253.42        24.85056
253.88        15.42513
254.33        10.65441
254.79        15.64959
255.25        30.09275
255.70        46.39803
256.16        60.21496
256.62        69.60622
257.07        73.81298
257.53        74.94744
257.99        74.38302
258.44        72.79178
258.90        71.51825
259.35        70.12618
259.81        68.84835
260.27        67.50588
260.72        66.05946
261.18        64.92052
261.63         63.7973
262.09        62.77119
262.55        61.38133
263.00         59.5704
263.46         57.7067
263.91        55.90388
264.37        54.79813
264.83        54.30103
265.28        54.12717
265.74        54.05739
266.19        53.56936
266.65        52.66127
267.11        51.42142
267.56        50.01066
268.02        48.77836
268.47        47.74839
268.93        46.85564
269.38        45.92145
269.84        44.74899
270.30        43.29982
270.75        41.68196
271.21        40.10486
271.66        38.80011
272.12        37.85877
272.57        37.17772
273.03        36.64748
273.48        36.05204
273.94        35.36404
274.39        34.61261
274.85          33.896
275.31        33.28617
275.76        32.78672
276.22          32.385
276.67        32.02045
277.13        31.70339
277.58        31.37868
278.04        31.08563
278.49        30.75831
278.95        30.39567
279.40         29.9492
279.86        29.45576
280.31         28.9183
280.77        28.43988
281.22        28.00009
281.68        27.64336
282.13        27.27511
282.59        26.83709
283.04        26.30933
283.50        25.76196
283.95        25.30999
284.41        25.15506
284.86        25.30806
285.32        25.70576
285.77        26.17574
286.22        26.49417
286.68         26.6256
287.13         26.5846
287.59        26.53463
288.04        26.61486
288.50        26.83372
288.95        27.24698
289.41        27.75613
289.86        27.74903
290.32        27.14679
290.77        27.86231
291.22        26.96414
291.68        27.18049
292.13        27.66035
292.59        28.43577
293.04        29.41882
293.50        30.53769
293.95        31.76895
294.40        33.10865
294.86        34.56079
295.31         36.1183
295.77        37.76662
296.22        39.46264
296.68        41.18866
297.13        42.92249
297.58        44.67427
298.04        46.44918
298.49        48.26129
298.95        50.15406
299.40         52.1086
299.85        54.12287
300.31        56.14636
300.76        58.06594
301.21        59.88469
301.67        61.66885
302.12        63.47943
302.58        65.53253
303.03        67.81751
303.48        70.30274
303.94        72.88488
304.39        75.33959
304.84        77.60781
305.30          79.755
305.75        81.76948
306.20        83.76637
306.66        85.77925
307.11        87.71313
307.57        89.57981
308.02        91.30461
308.47        92.90788
308.93        94.44706
309.38        95.89289
309.83        97.28872
310.29        98.66113
310.74        99.96097
311.19        101.1926
311.65        102.3406
312.10        103.3835
312.55        104.3374
313.00        105.2115
313.46        106.0247
313.91        106.7665
314.36        107.4458
314.82        108.0784
315.27        108.6714
315.72        109.2448
316.18        109.8108
316.63        110.3604
317.08        110.8791
317.53        111.3611
317.99        111.7968
318.44        112.2212
318.89        112.6751
319.35        113.1558
319.80        113.6566
320.25        114.1026
320.70        114.3814
321.16        114.4666
321.61        114.4126
322.06        114.3182
322.51        114.3541
322.97        114.5463
323.42        114.8875
323.87         115.271
324.32        115.5331
324.78        115.6119
325.23        115.6083
325.68        115.5807
326.13         115.657
326.59        115.8475
327.04        116.1604
327.49        116.5352
327.94        116.9151
328.39        117.2688
328.85        117.5779
329.30        117.8891
329.75        118.1306
330.20        118.2999
330.66        118.3692
331.11        118.4535
331.56        118.6007
332.01        118.8376
332.46        119.1467
332.92        119.4633
333.37        119.8261
333.82        120.1739
334.27        120.5319
334.72        120.8923
335.17         121.241
335.63        121.5485
336.08        121.8735
336.53         122.239
336.98        122.7424
337.43        123.3911
337.88        124.1453
338.34        124.8718
338.79        125.4172
339.24        125.7086
339.69        125.8024
340.14        125.8063
340.59        125.8968
341.05        126.1335
341.50        126.4865
341.95        126.9072
342.40        127.3149
342.85        127.6816
343.30        128.0315
343.75        128.3844
344.20        128.7728
344.66        129.1972
345.11        129.5979
345.56        129.9354
346.01        130.1578
346.46        130.2657
346.91          130.27
347.36        130.1669
347.81        130.0444
348.26        129.9427
348.72        129.5102
349.17        129.4543
349.62        129.4269
350.07        129.6264
350.52        129.9793
350.97        130.3222
351.42        130.3742
351.87        130.0607
352.32        129.4705
352.77        128.7492
353.22        128.1218
353.67        127.6551
354.13        127.3055
354.58        126.9749
355.03        126.5625
355.48        126.0417
355.93        125.4561
356.38        124.8699
356.83        124.3678
357.28        123.9514
357.73        123.5708
358.18         123.136
358.63        122.5182
359.08        121.6977
359.53        120.7315
359.98        119.7051
360.43         118.741
360.88        117.8736
361.33        117.0691
361.78        116.3006
362.23        115.5243
362.68        114.7258
363.13        113.9252
363.58        113.1127
364.03        112.2678
364.48        111.3838
364.93        110.4532
365.38        109.5049
365.83        108.5932
366.28        107.7316
366.73        106.9133
367.18        106.0968
367.63        105.2133
368.08          104.26
368.53        103.2718
368.98        102.3032
369.43        101.4261
369.88        100.6451
370.33        99.91965
370.78        99.21438
371.23        98.48698
371.68        97.72813
372.13        96.96166
372.58        96.18314
373.03        95.36902
373.48        94.51902
373.93        93.64291
374.38        92.78907
374.83        92.04803
375.28        91.44789
375.72        90.94608
376.17         90.5218
376.62        90.06223
377.07        89.52209
377.52        88.90182
377.97        88.22851
378.42        87.57259
378.87        86.96688
379.32        86.40675
379.77        85.83974
380.22        85.17043
380.67        84.37935
381.11        83.50477
381.56        82.63684
382.01        81.95177
382.46        81.50636
382.91        81.25557
383.36        81.08593
383.81        80.81826
384.26        80.40056
384.71        79.87344
385.15        79.30878
385.60        78.88767
386.05        78.61428
386.50         78.4305
386.95        78.23076
387.40        77.86341
387.85        77.31879
388.29        76.63132
388.74        76.00721
389.19        75.52009
389.64        75.18517
390.09        74.95219
390.54        74.77346
390.98        74.56015
391.43        74.32137
391.88        74.06947
392.33        73.81298
392.78        73.52846
393.23        73.21389
393.67         72.9252
394.12         72.7273
394.57          72.332
395.02        71.82902
395.47        71.70932
395.91        71.88908
396.36        71.74665
396.81        71.26974
397.26         70.8366
397.71        70.48342
398.15        70.12683
398.60        69.86417
399.05        69.51125
399.50        69.18753
399.95        69.31782
400.39        69.75027
400.84        69.85938
401.29        69.55886
401.74        68.92031
402.18        68.17844
402.63        67.99229
403.08        68.27336
403.53        68.14211
403.97        67.56008
404.42         67.1274
404.87        66.91414
405.32        66.76724
405.76        66.68542
406.21        66.71615
406.66        66.78553
407.11         66.7744
407.55        66.66743
408.00        66.48114
408.45        66.26207
408.90        65.98463
409.34        65.71354
409.79        65.64713
410.24        65.72454
410.68        65.69299
411.13        65.53192
411.58        65.37693
412.03        65.25089
412.47        65.15313
412.92         65.0742
413.37        65.02485
413.81        64.99391
414.26         65.0182
414.71        65.07518
415.15        65.16786
415.60        65.23634
416.05        65.23592
416.49        65.15643
416.94         65.0062
417.39        64.82168
417.83        64.65157
418.28        64.51544
418.73        64.39868
419.17        64.29874
419.62         64.2206
420.07        64.16476
420.51        64.13021
420.96        64.12564
421.41        64.12582
421.85        64.10194
422.30        64.05802
422.74        63.99426
423.19        64.10188
423.64        64.32833
424.08        64.46946
424.53        64.44459
424.98        64.44915
425.42        64.49552
425.87        64.39133
426.31        64.21773
426.76        64.25348
427.21        64.47124
427.65        64.62242
428.10         64.6057
428.54        64.51068
428.99        64.37418
429.44        64.13153
429.88        63.84053
430.33         63.7417
430.77        63.79296
431.22        63.92802
431.66        64.10535
432.11         64.4053
432.56        64.76266
433.00        64.79741
433.45         64.3513
433.89        64.02848
434.34        64.07648
434.78         63.1861
435.23        63.65849
435.67         64.0489
436.12        64.79536
436.57         64.8558
437.01         64.3407
437.46        64.08154
437.90        64.82653
438.35        64.51538
438.79        64.79377
439.24        64.71349
439.68        64.73035
440.13        64.66505
440.57        64.55268
441.02        64.69104
441.46        64.95613
441.91        64.83651
442.35        64.41508
442.80        64.52876
443.24        65.04805
443.69        65.23563
444.13         65.0271
444.58        64.89706
445.02        64.74497
445.47        64.84282
445.91        65.05356
446.36        65.07069
446.80        64.87097
447.24        64.60267
447.69        64.38959
448.13        64.51987
448.58         64.7785
449.02        64.96191
449.47        64.97346
449.91        65.01402
450.36        65.08398
450.80          64.956
451.25        64.70946
451.69        64.63392
452.13          64.703
452.58        64.56548
453.02        64.24384
453.47        64.06239
453.91        64.02676
454.36        63.98353
454.80        63.89337
455.24        63.79146
455.69        63.69341
456.13        63.48476
456.58        63.26535
457.02        63.23962
457.46        63.48415
457.91        63.27989
458.35        62.86057
458.79        62.67085
459.24        62.78448
459.68        62.84643
460.13        62.82563
460.57        62.80418
461.01        62.79973
461.46         62.5314
461.90        62.41365
462.34        62.38987
462.79        61.70387
463.23        61.81713
463.68        62.32122
464.12        62.19222
464.56        61.54575
465.01        61.75656
465.45        62.53569
465.89        62.51442
466.34        61.84868
466.78        61.56936
467.22        61.67849
467.67        62.01163
468.11        61.49151
468.55        61.31607
468.99        61.19004
469.44        61.03574
469.88        60.85048
470.32        60.64596
470.77        60.46111
471.21        60.34417
471.65        60.30714
472.10        60.33468
472.54        60.37232
472.98        60.37896
473.42        60.35286
473.87        60.24495
474.31        60.07314
474.75        60.14459
475.20        60.42595
475.64        60.24938
476.08        60.32208
476.52        60.19178
476.97        60.01684
477.41        60.08708
477.85         60.0787
478.29        59.57329
478.74        59.59115
479.18        59.82115
479.62        59.71398
480.06        59.80296
480.50        59.82116
480.95        59.86769
481.39        59.88632
481.83        59.95827
482.27        59.88528
482.72        60.06182
483.16        59.82632
483.60        60.12688
484.04        60.02029
484.48        59.87982
484.93        60.15181
485.37         59.6856
485.81        60.49583
486.25        59.77822
486.69        61.51408
487.14        61.70942
487.58        60.10815
488.02        60.04402
488.46        59.62291
488.90        59.11325
489.34         59.3826
489.79        59.02982
490.23         59.6528
490.67        59.60799
491.11        59.33479
491.55        59.17516
491.99        59.17305
492.43        59.12084
492.88        59.01704
493.32        59.02906
493.76        59.09204
494.20        59.13425
494.64        59.17089
495.08        58.86951
495.52        58.81905
495.96        58.85097
496.41        59.04597
496.85        58.84248
497.29        58.33212
497.73        58.46804
498.17        58.85715
498.61        58.99268
499.05        58.71723
499.49        58.55302
499.93        58.42787
500.37         58.4506
500.82        58.54465
501.26        58.73021
501.70        58.92835
502.14        58.66838
502.58        58.48314
503.02        58.32237
503.46        58.30286
503.90        58.26914
504.34        58.19643
504.78          58.172
505.22         58.2113
505.66        58.21815
506.10        58.18026
506.54        58.26463
506.98        58.50089
507.42        57.95663
507.86        58.57613
508.30        58.02979
508.74        58.25137
509.18         58.0885
509.62         57.9773
510.06        57.92888
510.50        57.92379
510.94        57.88838
511.38        57.80734
511.82        57.75845
512.26        57.73836
512.70        57.70624
513.14        57.65808
513.58        57.60638
514.02        57.55215
514.46        57.49219
514.90         57.4235
515.34        57.38534
515.78        57.38845
516.22        57.38408
516.66        57.21955
517.10        57.51715
517.54        57.31244
517.98        57.35332
518.42        57.36462
518.86        57.38574
519.30        57.41499
519.74        57.41743
520.18        57.40113
520.62        57.44624
521.06        57.50986
521.50        57.38749
521.93        57.13467
522.37        57.02292
522.81        57.07785
523.25        57.16357
523.69        57.22282
524.13        57.21877
524.57        57.13663
525.01        56.99349
525.45        56.84691
525.89        56.78732
526.32        56.83301
526.76        56.95848
527.20         57.1111
527.64        57.20995
528.08        57.23084
528.52        57.19964
528.96        57.14715
529.40        57.11412
529.83        57.11041
530.27        57.14637
530.71        57.18842
531.15        57.18414
531.59        57.12556
532.03        57.03782
532.46        56.94353
532.90         56.8884
533.34        56.87897
533.78        56.90198
534.22        56.93463
534.66        56.94242
535.09        56.90865
535.53        56.86296
535.97        56.81023
536.41        56.77361
536.85        56.75925
537.28        56.75871
537.72        56.76425
538.16        56.76532
538.60        56.75785
539.04        56.74833
539.47        56.72591
539.91        56.72056
540.35        56.71972
540.79        56.72024
541.22         56.7197
541.66        56.72773
542.10        56.73903
542.54        56.75038
542.97        56.74859
543.41        56.74105
543.85        56.72334
544.29        56.70995
544.72        56.68941
545.16        56.67696
545.60        56.66054
546.04         56.6185
546.47         56.5911
546.91        56.64588
547.35         56.7601
547.79        56.94147
548.22        57.08785
548.66        56.93528
549.10        56.58494
549.53        56.50912
549.97        56.70265
550.41         56.7256
550.84        56.55901
551.28        56.49593
551.72        56.54955
552.15         56.5365
552.59        56.44137
553.03        56.58189
553.46        56.50634
553.90        56.47581
554.34        56.33108
554.77        56.50032
555.21        56.29443
555.65        56.34233
556.08         56.4321
556.52        56.55047
556.96        56.66039
557.39        56.78154
557.83        56.89761
558.27        56.87934
558.70        56.75476
559.14        56.69746
559.57         56.7132
560.01        56.72635
560.45         56.7114
560.88        56.71339
561.32        56.74445
561.75        56.64054
562.19        56.48347
562.63        56.49522
563.06        56.63988
563.50        56.65894
563.93        56.53979
564.37        56.48224
564.80        56.48554
565.24        56.54301
565.68        56.62882
566.11        56.65831
566.55        56.64373
566.98        56.63459
567.42        56.78101
567.85        56.65004
568.29        56.41618
568.72        56.52265
569.16        56.96456
569.60        57.08658
570.03        57.12646
570.47        57.18901
570.90        57.34334
571.34        57.24607
571.77        57.61462
572.21        57.50109
572.64        57.38974
573.08        57.43111
573.51        57.33422
573.95        57.80664
574.38        57.79305
574.82        58.11075
575.25        57.87133
575.69        58.07916
576.12        57.52551
576.56        57.45321
576.99        57.61395
577.42        57.74327
577.86        58.07935
578.29        58.48165
578.73        58.73369
579.16         58.2122
579.60        57.64199
580.03        57.77678
580.47        57.85149
580.90         57.8397
581.33        57.80996
581.77         57.9465
582.20         58.6338
582.64        58.76769
583.07        58.26817
583.51        57.78665
583.94        57.57833
584.37        57.39642
584.81        57.03899
585.24        57.18354
585.68        57.96978
586.11        57.81403
586.54        58.07817
586.98        57.83846
587.41        57.39378
587.85        57.90495
588.28        58.00637
588.71        57.95607
589.15        57.76859
589.58        57.33559
590.01        57.05632
590.45        56.96065
590.88        57.27126
591.31        57.01779
591.75        56.90566
592.18        56.80191
592.61        56.91413
593.05         57.4014
593.48        57.37233
593.91        57.87151
594.35        57.61866
594.78        57.76433
595.21        57.29583
595.65        57.20493
596.08        57.27644
596.51        57.19239
596.94        57.18501
597.38        57.05708
597.81        56.87304
598.24        57.38601
598.68        57.14511
599.11        57.11962
599.54        57.52378
599.97        57.34827
600.41        57.38111
600.84        57.61656
601.27        57.51164
601.70        57.28373
602.14        57.13118
602.57        57.04322
603.00        57.16671
603.43        57.12792
603.87        57.45327
604.30         57.3901
604.73        57.55617
605.16        57.10793
605.60         57.0227
606.03        57.12024
606.46        57.68137
606.89         56.9619
607.32        56.76524
607.76        57.55701
608.19        57.08472
608.62        57.07817
609.05        57.67275
609.48        57.15342
609.92        57.22912
610.35        57.15623
610.78          57.263
611.21        57.29872
611.64        57.29881
612.07        56.89065
612.50        57.06624
612.94        56.94387
613.37        56.81691
613.80        56.96293
614.23        56.90209
614.66        56.90091
615.09        56.77588
615.52        56.92794
615.96        56.83459
616.39        56.77029
616.82        56.56007
617.25        56.75455
617.68        56.42346
618.11        56.42374
618.54        56.59549
618.97        56.53391
619.40        56.31059
619.84        56.20904
620.27        56.40777
620.70        56.38186
621.13        56.20581
621.56        56.19331
621.99         56.3621
622.42          56.488
622.85        56.49743
623.28        56.57545
623.71        56.67162
624.14        56.62654
624.57        56.52083
625.00        57.06342
625.43        56.46855
625.86        56.57494
626.29        56.85815
626.72         56.4179
627.15        56.55413
627.58        56.35143
628.01        56.26783
628.44          56.175
628.87        56.02423
629.30          56.335
629.73        56.30678
630.16        56.23569
630.59        56.32424
631.02        56.47763
631.45        56.07122
631.88        55.98814
632.31        56.02193
632.74        55.93012
633.17        55.94525
633.60        55.87848
634.03        55.80964
634.46        55.77922
634.89        55.71101
635.32        55.69648
635.75        55.70823
636.18         55.7425
636.61        55.78953
637.04        55.83616
637.47        55.87606
637.89        55.91621
638.32        55.93744
638.75        55.93335
639.18        55.90476
639.61        55.85652
640.04        55.80498
640.47        55.77757
640.90        55.78076
641.33        55.80597
641.76        55.84296
642.18        55.87947
642.61        55.89561
643.04        55.90296
643.47        55.89794
643.90        55.87516
644.33        55.82837
644.76        55.76889
645.18        55.72272
645.61        55.67345
646.04        55.59516
646.47        55.75888
646.90        55.56794
647.33        55.56197
647.75        55.55953
648.18        55.55114
648.61        55.55266
649.04        55.57932
649.47         55.6075
649.89        55.85284
650.32        55.71436
650.75        55.83443
651.18        55.99617
651.61        55.96923
652.03        55.79565
652.46        55.74353
652.89        55.84413
653.32        55.86105
653.74        55.81988
654.17        55.65527
654.60        55.88168
655.03        55.36384
655.46        55.74554
655.88        56.17435
656.31        57.77992
656.74        62.02351
657.16        61.20055
657.59        59.65351
658.02        57.04116
658.45        56.63313
658.87        56.30209
659.30        56.22508
659.73        55.85759
660.15        55.70321
660.58        55.86865
661.01        56.12616
661.44        56.35888
661.86        56.29625
662.29        55.97085
662.72        55.74496
663.14        55.70326
663.57         55.7504
664.00        55.84902
664.42        55.91425
664.85        55.93439
665.27        55.87071
665.70        55.91463
666.13        55.91009
666.55        55.91726
666.98        55.92589
667.41         55.9204
667.83        55.88561
668.26        55.83212
668.69        55.72075
669.11        55.57686
669.54         55.6389
669.96        55.95935
670.39        55.71778
670.82        56.21005
671.24        56.27794
671.67        56.27971
672.09        56.22314
672.52        56.15555
672.94        56.01046
673.37        55.84305
673.80        55.83228
674.22        55.95896
674.65        55.99113
675.07        55.92786
675.50        55.88448
675.92        55.88198
676.35        55.88034
676.77        55.88084
677.20        55.91233
677.62        55.98345
678.05        56.01932
678.47        55.99988
678.90        56.23862
679.32        56.18105
679.75        56.28875
680.17        56.39036
680.60        56.49514
681.02        56.56809
681.45        56.55824
681.87        56.46955
682.30        56.31177
682.72        56.15883
683.15        56.08861
683.57        56.09964
684.00        56.29975
684.42        56.25986
684.85        56.34735
685.27        56.41758
685.70        56.45749
686.12         56.4415
686.54        56.38512
686.97        56.29009
687.39        56.17778
687.82        56.08773
688.24        56.06147
688.66        56.09284
689.09        56.38798
689.51        56.47645
689.94        56.65547
690.36        56.75681
690.78        56.74942
691.21        56.66197
691.63        56.54377
692.06        56.45923
692.48        56.49286
692.90        56.60312
693.33        56.62007
693.75        56.54135
694.17        56.41935
694.60        56.28887
695.02        56.38697
695.44        56.46888
695.87        56.52347
696.29        56.50962
696.71        56.61295
697.14        56.79285
697.56        56.93722
697.98        57.03083
698.41         56.8422
698.83        56.94127
699.25        56.81215
699.68         56.6535
700.10         56.5416
700.52        56.49751
700.94          56.499
701.37        56.50467
701.79         56.4983
702.21        56.45178
702.64        56.38515
703.06         56.3218
703.48        56.30001
703.90        56.33292
704.33        56.40831
704.75        56.49846
705.17        56.54017
705.59        56.51884
706.01        56.44667
706.44        56.38507
706.86        56.42997
707.28        56.58076
707.70        56.86156
708.12        57.17435
708.55        57.22014
708.97        57.03142
709.39        56.98895
709.81        57.10217
710.23        57.08777
710.66         56.9512
711.08        56.88839
711.50        56.89555
711.92        56.88832
712.34        56.86439
712.76        56.84842
713.19         56.8407
713.61        56.87933
714.03        56.94442
714.45        57.03672
714.87         57.1315
715.29        57.15627
715.71        57.09608
716.13        57.11444
716.56         56.9669
716.98        56.96894
717.40         57.0443
717.82         57.1809
718.24        57.33145
718.66        57.42188
719.08        57.43628
719.50        57.39411
719.92         57.3419
720.34        57.35255
720.76        57.44104
721.19         57.5727
721.61        57.71877
722.03        57.80612
722.45         57.8163
722.87        57.77471
723.29        57.71028
723.71        57.66895
724.13        57.66774
724.55        57.69164
724.97        57.73846
725.39        57.80187
725.81        57.87308
726.23        57.96698
726.65        58.03658
727.07        58.07675
727.49        58.07573
727.91        58.02786
728.33        57.95352
728.75        57.92884
729.17        57.95119
729.59        57.92503
730.01        57.87141
730.43        57.90202
730.85        58.01857
731.27        58.14222
731.69        58.24969
732.10        58.29689
732.52        58.44401
732.94        58.29019
733.36        57.95911
733.78          57.806
734.20        57.88124
734.62        57.81921
735.04        57.92307
735.46        57.96548
735.88        58.04016
736.30        58.15057
736.72        58.23915
737.13        58.28414
737.55        58.25394
737.97        57.96247
738.39        57.57981
738.81        57.88416
739.23         58.7018
739.65        58.76607
740.06         58.1028
740.48        57.89637
740.90        58.14151
741.32           58.18
741.74        58.01544
742.16        58.00377
742.57        58.17115
742.99        58.40289
743.41        58.61192
743.83        58.64466
744.25        58.47389
744.67        58.15229
745.08        57.83539
745.50        57.73636
745.92        57.92063
746.34        58.32101
746.75        58.76681
747.17        58.97709
747.59        58.88733
748.01        58.55486
748.42        58.14935
748.84        57.97895
749.26        58.08265
749.68        58.29606
750.09        58.50661
750.51        58.52654
750.93        58.38391
751.35        58.38705
751.76        58.53201
752.18        58.55188
752.60        58.44699
753.01        58.39334
753.43        58.38348
753.85        58.37213
754.27        58.36237
754.68        58.36874
755.10        58.39524
755.52        58.41996
755.93         58.4353
756.35        58.45279
756.77        58.48407
757.18        58.48042
757.60         58.4216
758.02        58.45929
758.43        58.63697
758.85        58.29454
759.26        58.42761
759.68          58.687
760.10        58.60736
760.51        58.40436
760.93        58.60105
761.34        58.59943
761.76        58.66713
762.18        58.83221
762.59        59.01332
763.01        59.01028
763.42        58.13317
763.84        58.24903
764.26        58.70192
764.67        59.05302
765.09        59.10094
765.50        59.37349
765.92        59.75012
766.33         59.4612
766.75        58.63472
767.16        58.42773
767.58         58.4789
768.00        58.83977
768.41        59.24364
768.83        59.14289
769.24         58.5883
769.66        58.88942
770.07         58.9727
770.49        59.04251
770.90        58.80017
771.32        58.65574
771.73        58.66366
772.15        58.70373
772.56        58.80107
772.97        58.99401
773.39        59.19991
773.80         59.3298
774.22         59.3252
774.63        59.22993
775.05        59.07936
775.46        58.98264
775.88        58.95052
776.29        58.97647
776.70        59.01266
777.12        58.99275
777.53        58.92062
777.95        58.82085
778.36        58.73043
778.77        58.69813
779.19        58.73343
779.60        58.81855
780.02        58.93648
780.43        59.06929
780.84        59.20099
781.26        59.35041
781.67        59.51268
782.09        59.54323
782.50        59.46767
782.91        59.48862
783.33        59.59119
783.74         59.6582
784.15        59.65351
784.57        59.68552
784.98        59.76081
785.39        59.81215
785.81        59.83564
786.22        59.84845
786.63        59.85839
787.04        59.88061
787.46        59.92964
787.87        59.97413
788.28        60.01423
788.70        60.04719
789.11        60.04681
789.52        60.01483
789.93        59.96636
790.35        59.91639
790.76        59.89406
791.17        59.91802
791.58        59.94346
792.00        59.92722
792.41         59.9025
792.82        59.72372
793.23        59.54121
793.65        59.93736
794.06        60.78947
794.47        61.21577
794.88        61.14402
795.29        61.24924
795.71        61.34831
796.12        61.18873
796.53        60.77866
796.94        60.58931
797.35        60.63097
797.76        60.54028
798.18        60.33969
798.59        60.29837
799.00        60.41645
799.41        60.55608
799.82        60.64994
800.23        60.65309
800.64        60.54737
801.06        60.32468
801.47        60.10141
801.88        60.00766
802.29        60.07829
802.70        60.26856
803.11        60.51377
803.52        60.69811
803.93        60.78738
804.34        60.82153
804.75        60.81485
805.17        60.82167
805.58        60.89291
805.99        60.87114
806.40         60.8056
806.81        61.08443
807.22        61.56343
807.63        61.54613
808.04        61.11671
808.45        61.02056
808.86        61.30854
809.27        61.55025
809.68        61.65986
810.09        61.69182
810.50        61.62265
810.91         61.4494
811.32        61.23025
811.73        61.06104
812.14        60.97457
812.55        60.94799
812.96        60.98015
813.37        61.05847
813.78        61.16688
814.19        61.31355
814.60        61.44455
815.01        61.47315
815.42        61.38689
815.83        61.20129
816.24        60.99604
816.65        60.92677
817.05        61.04331
817.46        61.27603
817.87        61.55551
818.28         61.7353
818.69        61.78164
819.10        61.73923
819.51        61.67142
819.92        61.68896
820.33        61.82183
820.74        62.01875
821.14        62.22878
821.55        62.40268
821.96        62.50631
822.37        62.55593
822.78         62.5453
823.19        62.46347
823.60        62.31551
824.00         62.1189
824.41        61.87594
824.82        61.65237
825.23        61.47669
825.64        61.36096
826.04        61.31406
826.45        61.30157
826.86         61.3264
827.27         61.3888
827.68         61.5044
828.08        61.71713
828.49        61.94932
828.90        62.22369
829.31          62.489
829.72        62.56367
830.12        62.42521
830.53        62.53112
830.94        62.13447
831.35        61.94258
831.75        61.76982
832.16        61.59794
832.57        61.49739
832.97        61.57417
833.38        61.82705
833.79        62.21358
834.20        62.60468
834.60        62.80584
835.01        62.77296
835.42        62.55508
835.82         62.2693
836.23        62.08279
836.64        62.07266
837.04        62.21043
837.45        62.39703
837.86        62.52329
838.26        62.56595
838.67        62.54651
839.08         62.5449
839.48        62.67149
839.89        62.93615
840.29        63.29081
840.70         63.6419
841.11        63.83756
841.51        63.85167
841.92        63.69796
842.33         63.4713
842.73        63.32916
843.14        63.27912
843.54        63.30999
843.95        63.36818
844.35        63.38587
844.76         63.3349
845.17        63.25032
845.57        63.17425
845.98        63.13366
846.38        63.16924
846.79        63.24849
847.19        63.37125
847.60        63.46698
848.00        63.54925
848.41        63.59114
848.81        63.66866
849.22        63.84538
849.62        64.15346
850.03        64.51797
850.43        64.85001
850.84        64.91456
851.24        64.71747
851.65        64.26266
852.05        63.74615
852.46        63.43416
852.86         63.4217
853.27        63.67581
853.67        63.97268
854.07        64.12851
854.48         64.0646
854.88        63.84342
855.29        63.56956
855.69        63.58332
856.10        63.87202
856.50        64.42854
856.90        64.93306
857.31        64.90347
857.71        64.29575
858.12         63.2125
858.52        62.05544
858.92        61.44772
859.33        61.55403
859.73        62.23546
860.13        63.15302
860.54        63.72815
860.94        63.84001
861.34        63.62064
861.75        63.22095
862.15        62.97582
862.55        62.94905
862.96        62.98862
863.36        63.06759
863.76        63.11145
864.17        63.08835
864.57         63.1004
864.97        63.05205
865.38        62.74295
865.78        62.20081
866.18        61.46103
866.58        60.84369
866.99         60.8972
867.39        61.73304
867.79        63.09652
868.19        64.50719
868.60        65.23264
869.00        65.21177
869.40        64.82139
869.80        64.19316
870.21        63.40997
870.61        62.68991
871.01        62.09608
871.41        61.66399
871.81        61.33223
872.22        61.10232
872.62        61.02638
873.02        61.07413
873.42         61.3421
873.82        61.59364
874.22        61.27208
874.63        60.67799
875.03        60.44444
875.43        60.66342
875.83        62.08541
876.23        61.70401
876.63        61.16153
877.03        60.15557
877.44        58.07414
877.84        174.4194
878.24        59.46648
878.64        60.40541
879.04        62.08374
879.44        62.64001
879.84        59.07552
880.24        64.33522
880.64        64.43981
881.04        61.78597
881.44        59.81152
881.84        59.15666
882.24        59.92657
882.65        61.35681
883.05        61.78986
883.45        60.90478
883.85        59.66275
884.25        58.63255
884.65        58.28454
885.05        58.77219
885.45        59.83496
885.85        60.99778
886.25        61.61003
886.65        61.52191
887.05        60.95161
887.45        60.16093
887.85        59.58816
888.25         59.3959
888.65        59.44135
889.04        59.66073
889.44        59.96168
889.84        60.26507
890.24        60.59763
890.64        60.88495
891.04        61.00237
891.44        60.93937
891.84        60.73225
892.24        60.43607
892.64        60.17112
893.04        59.99221
893.44        59.87151
893.83        59.87493
894.23        60.05582
894.63        60.42315
895.03        60.98196
895.43         61.5666
895.83        61.89474
896.23        61.90595
896.63        61.64984
897.02        61.36409
897.42        61.47356
897.82        62.00726
898.22        62.82866
898.62          63.604
899.01        63.79971
899.41        63.28326
899.81        62.25784
900.21        61.07035
900.61        60.28764
901.00        60.07053
901.40        60.32271
901.80        60.83583
902.20        61.12767
902.59        61.05091
902.99        61.02081
903.39        61.26847
903.79        60.33598
904.18         61.1606
904.58         61.3399
904.98        61.51829
905.38        61.31635
905.77        60.70239
906.17        59.81455
906.57        58.94601
906.96        58.67187
907.36         59.1116
907.76        60.11346
908.15        61.32974
908.55        62.02724
908.95         62.0489
909.34        61.53647
909.74        60.87375
910.14        60.64532
910.53        60.99192
910.93        61.70556
911.33        62.42113
911.72        62.57165
912.12        62.05021
912.52        61.07753
912.91         59.9977
913.31        59.41423
913.70        59.44991
914.10        59.91618
914.49        60.56327
914.89        60.89389
915.29        60.78643
915.68        60.39001
916.08        59.90825
916.47        59.60171
916.87        59.58792
917.26        59.77005
917.66        60.06308
918.05        60.36123
918.45        60.60032
918.84        60.82252
919.24         61.0586
919.64        61.40706
920.03        61.86976
920.42        62.36776
920.82        62.76594
921.21        62.88401
921.61        62.71602
922.00        62.38985
922.40        62.10256
922.79        62.02091
923.19        61.80413
923.58        62.33433
923.98         63.9231
924.37        63.81892
924.77        60.48103
925.16        68.87041
925.55        61.92055
925.95        62.29544
926.34         62.2798
926.74        61.66003
927.13         60.3525
927.52        59.53052
927.92        59.70207
928.31        60.19604
928.70        60.89036
929.10        61.52445
929.49        62.03656
929.89         62.5176
930.28        62.85569
930.67        62.76467
931.07        62.23649
931.46        61.22812
931.85        60.14794
932.24        60.17558
932.64        61.48604
933.03        63.09523
933.42        64.03178
933.82        66.51688
934.21         64.6088
934.60        62.98563
934.99         61.3693
935.39        61.07523
935.78        62.16571
936.17        64.92762
936.56        72.25105
936.96         65.1296
937.35        69.05777
937.74        65.24162
938.13        62.23339
938.53        59.92583
938.92        59.27307
939.31        60.74965
939.70        62.78695
940.09        63.76102
940.49        63.32627
940.88        62.06236
941.27        60.56748
941.66        59.94744
942.05        60.56981
942.44        61.93131
942.84        63.44691
943.23        64.44533
943.62        64.71689
944.01        64.48135
944.40        64.01485
944.79        63.76205
945.18         63.8641
945.57        64.17007
945.97        64.42048
946.36        64.34135
946.75        63.82446
947.14        62.99112
947.53        62.12447
947.92        61.68596
948.31        61.79758
948.70        62.31762
949.09        62.91433
949.48        63.07644
949.87        62.69672
950.26        61.94276
950.65        61.11761
951.04        60.71552
951.43        60.87469
951.82        61.43342
952.21        62.15578
952.60        62.64293
952.99        62.74402
953.38        62.56668
953.77        62.25665
954.16        62.01337
954.55        61.90651
954.94        61.90749
955.33        61.90787
955.72        61.73552
956.11        61.37019
956.50        60.86772
956.89        60.51202
957.28        60.72911
957.66        61.59388
958.05        62.87458
958.44        64.11964
958.83        64.65366
959.22        64.33057
959.61        63.29746
960.00        61.99406
960.39        61.29227
960.78        61.47218
961.16        62.30205
961.55        63.20438
961.94        63.49323
962.33        63.02765
962.72        62.00552
963.11        60.82191
963.49        60.27791
963.88        60.63884
964.27        61.60835
964.66        62.68979
965.04        63.22591
965.43        63.02405
965.82        62.34059
966.21        61.48624
966.60        61.00282
966.98        61.07044
967.37        61.50168
967.76        62.09492
968.15        62.52867
968.53        62.71441
968.92         62.7545
969.31        62.71648
969.69         62.6866
970.08         62.6782
970.47        62.62466
970.86        62.60414
971.24        62.77626
971.63        63.12732
972.02        63.62077
972.40        64.05582
972.79        64.02779
973.17        63.54386
973.56        62.74165
973.95        61.91451
974.33        61.59365
974.72        61.91927
975.11        62.67043
975.49        63.72178
975.88        64.78147
976.26        65.76277
976.65        66.66928
977.04        67.27371
977.42        67.19933
977.81        66.38159
978.19        64.84497
978.58        63.30801
978.96        63.07525
979.35         64.3869
979.74        66.68485
980.12        69.04334
980.51        70.14941
980.89        69.93595
981.28        68.68158
981.66        66.79754
982.05        65.39613
982.43        64.97489
982.82        65.27979
983.20        65.99435
983.59        66.58183
983.97        66.89429
984.35        67.06781
984.74        67.11788
985.12        67.10505
985.51        67.03246
985.89        66.95287
986.28        66.77438
986.66        66.45634
987.04        66.06098
987.43        65.48643
987.81        64.75906
988.20         65.5742
988.58        68.11766
988.96        69.24136
989.35        67.90063
989.73        74.15717
990.12        70.03039
990.50        69.36408
990.88          67.721
991.27        66.50642
991.65        65.93044
992.03        66.03545
992.42        66.65488
992.80        66.76399
993.18        66.15216
993.56        65.17639
993.95        64.21111
994.33        63.79739
994.71         64.0994
995.10        64.85847
995.48        65.88555
995.86        66.88987
996.24        67.71784
996.63         68.3823
997.01        68.89199
997.39        69.05874
997.77        68.87262
998.15        68.35422
998.54         67.7742
998.92        67.47627
999.30        67.61338
999.68         68.1909
1000.06        68.95604
1000.45        69.30469
1000.83        69.15807
1001.21        68.68156
1001.59        68.32462
1001.97        68.75175
1002.35        69.96394
1002.73         71.5527
1003.12        73.10233
1003.50        74.18716
1003.88        74.70257
1004.26        74.83407
1004.64        74.55595
1005.02        73.82938
1005.40        72.73438
1005.78        71.29124
1006.16         69.9076
1006.54        69.22789
1006.92        69.41902
1007.30        70.39987
1007.69        71.63157
1008.07        72.39436
1008.45        72.47231
1008.83        71.97575
1009.21        71.38662
1009.59        71.68495
1009.97        73.00575
1010.35        74.80779
1010.73        76.34353
1011.11        77.05551
1011.49        77.02705
1011.86        76.11037
1012.24        74.44238
1012.62        75.98602
1013.00        77.68593
1013.38        79.00999
1013.76         78.2597
1014.14         82.3985
1014.52        87.47859
1014.90        79.24352
1015.28         78.8539
1015.66         79.5118
1016.04        75.85995
1016.41        77.25596
1016.79        77.69537
1017.17        77.91424
1017.55        77.09217
1017.93        75.74955
1018.31         74.6356
1018.69        74.41939
1019.06        75.35438
1019.44        77.06039
1019.82        78.71128
1020.20        79.23182
1020.58        78.40707
1020.95        76.24129
1021.33        73.53434
1021.71         72.5981
1022.09        74.41829
1022.46        77.75003
1022.84        80.84805
1023.22        82.52539
1023.60        82.88564
1023.97        82.39447
1024.35        81.48927
1024.73        81.00907
