SpectraSmart Spectrum 2.9.0.0
--------- Device Information -----------
Spectrum Name :  反射率_0
Saving Time :  2024/04/21 00:26:29
Spectro-Module Model Name : SE2030-DUVN
Spectro-Module Serial Number : OS361AC55029948
Wavelength Start : 200
Wavelength End : 1025
Wavelength Unit : Wavelength(nm)
Spectrum Unit : Reflectance(%)
-----------Spectrum Setting ------------
Integration Time : 20ms
Average : 10
Boxcar : 0
Background removal :  enabled
linearity correction :  enabled
SC :  disabled
Intensity correction :  disabled
DWT denoise :  enabled
savitzky-golay :  disabled
FFT :  disabled
Running average :  disabled
Kalman :  disabled
High pass :  disabled
---------------BEGIN--------------------
Wavelength(nm)             Reflectance(%)
200.29               0
200.75        77.48164
201.21        73.42377
201.67        68.46668
202.13        65.50925
202.58        63.85935
203.04        62.83619
203.50        62.91343
203.96        65.53313
204.42        70.32466
204.88        75.83128
205.34        81.22242
205.80        85.73969
206.26        89.34316
206.72        92.66335
207.18        91.86765
207.64        79.49501
208.10        54.88505
208.55        22.35649
209.01        1.178561
209.47        14.21944
209.93        40.44412
210.39        63.09803
210.85        77.81249
211.31         83.7551
211.77        82.97039
212.23         76.0013
212.69         59.5107
213.14        30.32978
213.60       -19.32344
214.06         -152.62
214.52       -438.0569
214.98       -166.9913
215.44       -13.65792
215.90        37.05571
216.36        53.06136
216.81        52.51242
217.27        36.56217
217.73       -41.75712
218.19        897.5718
218.65        397.7549
219.11       -770.2331
219.57       -3.306521
220.02        45.69456
220.48        55.59977
220.94        53.45732
221.40        39.79417
221.86        5.120541
222.32       -18.40703
222.77        11.84028
223.23        38.72666
223.69        51.71518
224.15        54.61846
224.61        51.78291
225.06        45.83354
225.52        38.39391
225.98        31.88109
226.44          27.516
226.90        23.76212
227.36        22.29522
227.81        25.68013
228.27        31.43595
228.73        37.35189
229.19        40.91201
229.65         40.4353
230.10        36.34201
230.56        29.62214
231.02        21.40577
231.48        16.25987
231.93        17.31533
232.39        22.80472
232.85        28.70324
233.31        31.57272
233.77        31.62128
234.22        30.34325
234.68        28.33221
235.14        26.72088
235.60         26.3272
236.05         26.1081
236.51        25.99479
236.97        31.30765
237.43        41.88849
237.88        48.63017
238.34        48.28576
238.80        67.35499
239.26        59.56635
239.71        58.71712
240.17        52.68829
240.63        46.08852
241.08        41.90886
241.54        42.48753
242.00        48.46295
242.46        52.04351
242.91        51.34744
243.37        47.39857
243.83        41.75171
244.28        39.86172
244.74        44.30592
245.20        51.00695
245.66        56.48026
246.11        57.87059
246.57        54.96615
247.03        49.27221
247.48         40.8913
247.94        29.60982
248.40        12.00969
248.85       -29.94852
249.31       -154.5267
249.77        -236.112
250.22       -38.48867
250.68        38.54748
251.14        62.69637
251.59        70.45188
252.05        72.43886
252.51        71.06733
252.96        65.50544
253.42        56.76317
253.88        48.11932
254.33        41.27268
254.79         39.9814
255.25        44.01165
255.70        49.63258
256.16        54.97775
256.62        58.58989
257.07        59.67985
257.53        59.38765
257.99        58.33249
258.44        56.72657
258.90        55.41945
259.35        54.00702
259.81        52.69246
260.27        51.43561
260.72        50.32035
261.18         49.5893
261.63        48.93779
262.09        48.24873
262.55        47.01804
263.00        45.25048
263.46        43.33284
263.91        41.51294
264.37        40.49586
264.83        40.21465
265.28        40.33963
265.74        40.57436
266.19        40.37294
266.65        39.70469
267.11        38.70606
267.56        37.53078
268.02        36.49255
268.47        35.63419
268.93         34.8921
269.38        34.16845
269.84        33.38046
270.30        32.49951
270.75        31.58323
271.21        30.71765
271.66        29.95607
272.12        29.33753
272.57        28.81306
273.03        28.35306
273.48        27.88554
273.94        27.40679
274.39        26.90452
274.85        26.41696
275.31        25.94013
275.76        25.47023
276.22        25.03447
276.67        24.61665
277.13         24.2608
277.58        23.93903
278.04        23.66698
278.49        23.39902
278.95        23.13732
279.40        22.84083
279.86        22.53775
280.31        22.20632
280.77        21.89028
281.22        21.56983
281.68        21.29213
282.13        21.01153
282.59        20.72941
283.04         20.4306
283.50        20.13932
283.95        19.91633
284.41         19.8738
284.86        20.00812
285.32        20.28432
285.77        20.57059
286.22        20.68804
286.68        20.62625
287.13         20.4088
287.59        20.20374
288.04        20.16199
288.50        20.28893
288.95        20.65566
289.41        21.17428
289.86         21.2173
290.32        20.67742
290.77        21.60348
291.22        20.72976
291.68        20.91554
292.13         21.2132
292.59        21.67854
293.04        22.26188
293.50        22.95996
293.95        23.77774
294.40        24.69378
294.86        25.70602
295.31        26.79688
295.77        27.95344
296.22        29.15852
296.68        30.39799
297.13        31.65018
297.58        32.92727
298.04        34.23737
298.49        35.61314
298.95        37.12486
299.40        38.76065
299.85        40.50288
300.31        42.27944
300.76        43.95758
301.21        45.52648
301.67        47.05526
302.12        48.61027
302.58        50.38917
303.03        52.40017
303.48        54.62227
303.94        56.97512
304.39        59.28348
304.84        61.49609
305.30        63.65659
305.75        65.76099
306.20        67.91251
306.66        70.12104
307.11        72.29419
307.57        74.39416
308.02        76.29908
308.47        78.01957
308.93        79.64196
309.38        81.18119
309.83        82.71253
310.29        84.32022
310.74        85.89317
311.19        87.44597
311.65        88.96059
312.10        90.40073
312.55        91.77859
313.00        93.03425
313.46        94.07609
313.91        94.88366
314.36        95.50172
314.82        96.04836
315.27         96.7013
315.72        97.51384
316.18        98.44132
316.63        99.39029
317.08         100.205
317.53        100.8345
317.99        101.3166
318.44        101.7125
318.89        102.1071
319.35        102.5258
319.80         102.949
320.25        103.3376
320.70        103.6386
321.16        103.8375
321.61        103.9814
322.06        104.1235
322.51        104.3496
322.97        104.6668
323.42        105.0855
323.87        105.5372
324.32        105.9262
324.78         106.203
325.23        106.4273
325.68        106.6272
326.13        106.8852
326.59        107.1937
327.04        107.5743
327.49        107.9558
327.94        108.2587
328.39         108.464
328.85        108.5753
329.30        108.6965
329.75        108.8616
330.20        109.0961
330.66        109.3456
331.11        109.6788
331.56        110.0674
332.01        110.5041
332.46        110.9934
332.92        111.4457
333.37        111.8543
333.82        112.1598
334.27        112.3841
334.72        112.6047
335.17        112.9575
335.63        113.4462
336.08        114.0914
336.53        114.7944
336.98        115.4381
337.43        115.9767
337.88        116.4332
338.34        116.8098
338.79        117.1767
339.24        117.5283
339.69        117.8539
340.14        118.1512
340.59        118.4235
341.05         118.684
341.50        118.9581
341.95        119.2754
342.40        119.6786
342.85        120.1726
343.30        120.7368
343.75        121.3262
344.20        121.8752
344.66        122.3638
345.11        122.7757
345.56        123.1246
346.01        123.4384
346.46        123.7322
346.91        123.9814
347.36        124.1565
347.81        124.2925
348.26        124.4085
348.72        124.2334
349.17        124.3299
349.62        124.3945
350.07        124.5951
350.52        124.8797
350.97        125.1538
351.42        125.2532
351.87          125.13
352.32        124.8376
352.77         124.456
353.22        124.1071
353.67        123.8305
354.13        123.6134
354.58         123.392
355.03        123.1194
355.48        122.7841
355.93        122.4079
356.38        122.0387
356.83        121.7413
357.28         121.513
357.73        121.3132
358.18        121.0592
358.63        120.6295
359.08        120.0015
359.53        119.2217
359.98        118.3657
360.43         117.545
360.88        116.7924
361.33        116.0802
361.78        115.3828
362.23        114.6585
362.68        113.8985
363.13        113.1276
363.58        112.3528
364.03         111.577
364.48        110.8012
364.93        110.0176
365.38        109.2357
365.83        108.4776
366.28        107.7454
366.73        107.0301
367.18        106.3131
367.63        105.5664
368.08        104.7853
368.53        103.9842
368.98        103.1684
369.43        102.3345
369.88        101.4821
370.33        100.6131
370.78         99.7468
371.23        98.93301
371.68        98.19821
372.13        97.53561
372.58         96.9427
373.03        96.39908
373.48        95.87882
373.93        95.37431
374.38        94.84709
374.83        94.24677
375.28        93.57541
375.72        92.84047
376.17        92.11684
376.62        91.43085
377.07        90.78574
377.52        90.16149
377.97        89.56785
378.42        89.03562
378.87        88.57694
379.32        88.19128
379.77        87.83054
380.22        87.40984
380.67        86.89947
381.11         86.3134
381.56        85.68813
382.01        85.11935
382.46        84.64462
382.91        84.24889
383.36        83.87244
383.81         83.4184
384.26        82.86716
384.71        82.25056
385.15        81.63549
385.60         81.1881
386.05        80.90862
386.50        80.75015
386.95        80.60637
387.40        80.31946
387.85        79.86767
388.29        79.26464
388.74        78.71342
389.19        78.28668
389.64         77.9944
390.09        77.78316
390.54        77.58752
390.98        77.29222
391.43        76.91944
391.88        76.50806
392.33        76.10397
392.78        75.74979
393.23        75.45699
393.67        75.21215
394.12         75.0803
394.57        74.87651
395.02        74.63383
395.47        74.59328
395.91         74.6937
396.36        74.59107
396.81        74.27145
397.26        73.92747
397.71        73.61113
398.15         73.2713
398.60        72.99409
399.05        72.77744
399.50        72.63596
399.95        72.41458
400.39         72.1543
400.84        72.26723
401.29        72.60491
401.74        72.18852
402.18        71.19256
402.63        70.89681
403.08         71.2696
403.53        71.21937
403.97        70.71008
404.42        70.39731
404.87        70.31248
405.32        70.23955
405.76        70.16065
406.21        70.13499
406.66        70.12202
407.11        70.03071
407.55        69.85859
408.00        69.70169
408.45         69.5687
408.90        69.16447
409.34        68.63499
409.79        68.61991
410.24        68.98642
410.68        69.07429
411.13        68.85266
411.58        68.59367
412.03        68.33229
412.47        68.53881
412.92        68.33472
413.37        68.43588
413.81        68.53745
414.26        68.65679
414.71        68.75572
415.15        68.85973
415.60        68.92117
416.05        68.89736
416.49        68.79102
416.94        68.61137
417.39        68.41523
417.83        68.28469
418.28        68.24209
418.73        68.25739
419.17        68.30454
419.62        68.34693
420.07        68.36954
420.51        68.38293
420.96        68.39108
421.41        68.36631
421.85        68.28963
422.30        68.15698
422.74        68.00628
423.19         68.1304
423.64         68.4636
424.08        68.69039
424.53        68.70958
424.98        68.76428
425.42        68.85646
425.87        68.78873
426.31        68.63561
426.76        68.60156
427.21        68.71053
427.65        68.92979
428.10        69.13362
428.54        69.19099
428.99        69.11651
429.44        68.93597
429.88        68.71841
430.33         68.6572
430.77        68.69202
431.22        68.85973
431.66        69.07053
432.11         69.1146
432.56        69.08186
433.00        69.12702
433.45        69.04715
433.89        69.20591
434.34         69.7749
434.78        68.36522
435.23         68.7443
435.67        69.66405
436.12        70.00925
436.57        70.09512
437.01        69.47408
437.46        69.19743
437.90        70.07034
438.35        69.79499
438.79        70.29597
439.24        70.26138
439.68        70.22382
440.13        69.99546
440.57        69.72472
441.02        69.90846
441.46        70.40849
441.91        70.62165
442.35        70.47649
442.80        70.56551
443.24        70.81808
443.69        70.93484
444.13         70.8773
444.58        70.69492
445.02        70.46561
445.47        70.56299
445.91        70.91428
446.36        71.08286
446.80        71.03194
447.24        70.97832
447.69        70.96261
448.13         71.0871
448.58        71.15921
449.02        71.03523
449.47        70.76582
449.91        70.68198
450.36        70.81531
450.80        71.03299
451.25        71.23665
451.69        71.12445
452.13        70.76202
452.58        70.55973
453.02        70.52983
453.47        70.40303
453.91        70.18148
454.36         70.0677
454.80        70.04868
455.24        70.00951
455.69        69.95896
456.13        69.90228
456.58        69.80706
457.02        69.86093
457.46        69.85809
457.91        69.81377
458.35         69.7821
458.79        69.68791
459.24        69.56716
459.68        69.44176
460.13         69.4025
460.57         69.1828
461.01        68.74915
461.46         69.1768
461.90        69.00585
462.34        68.51305
462.79          68.438
463.23        68.58474
463.68        69.10878
464.12        68.98727
464.56        68.35781
465.01        68.37528
465.45        68.86121
465.89        68.96096
466.34         68.6866
466.78        68.46927
467.22        68.37167
467.67         68.3157
468.11        68.05457
468.55        68.05846
468.99        68.17506
469.44        68.14021
469.88        67.92915
470.32         67.6627
470.77        67.41664
471.21        67.25256
471.65        67.19935
472.10        67.25277
472.54        67.32596
472.98        67.31995
473.42        67.21955
473.87        67.02097
474.31        66.79308
474.75        66.85629
475.20        67.15527
475.64        67.31518
476.08        67.28916
476.52        67.25786
476.97        67.18769
477.41        67.08459
477.85        66.97248
478.29        66.55611
478.74        66.33923
479.18        66.41788
479.62        66.93713
480.06        67.13319
480.50        66.97754
480.95        66.91302
481.39        66.98225
481.83        66.80101
482.27        66.92255
482.72        67.22298
483.16        67.02911
483.60        67.33352
484.04        67.09255
484.48        66.77247
484.93        66.80392
485.37        66.74998
485.81        66.85887
486.25        66.46117
486.69        68.05476
487.14        68.71313
487.58        67.46005
488.02        67.25929
488.46        66.69973
488.90        66.37421
489.34        66.51695
489.79        66.07536
490.23        66.57488
490.67        66.58045
491.11        66.49919
491.55        66.26888
491.99        65.99481
492.43        65.87083
492.88        65.91598
493.32        66.08468
493.76        66.26907
494.20         66.3944
494.64        66.43414
495.08        66.17789
495.52        66.15649
495.96        66.03962
496.41        65.97002
496.85        66.16891
497.29        66.43988
497.73        66.34555
498.17        65.64368
498.61        65.56223
499.05        65.96944
499.49        65.98377
499.93        65.64768
500.37        65.60563
500.82        65.85058
501.26        66.06717
501.70        66.24176
502.14        66.04976
502.58        65.59665
503.02        65.40611
503.46         65.4584
503.90        65.53405
504.34        65.54756
504.78        65.53039
505.22        65.47635
505.66        65.34185
506.10        65.21213
506.54        65.23385
506.98         65.4149
507.42        65.35693
507.86        66.18559
508.30        65.47968
508.74        66.01514
509.18        65.79333
509.62        65.59489
510.06        65.45627
510.50         65.3902
510.94        65.28197
511.38        65.13541
511.82        65.08437
512.26        65.12082
512.70        65.24267
513.14         65.2915
513.58        65.27276
514.02        65.13818
514.46        64.92112
514.90        64.66431
515.34        64.47415
515.78         64.3884
516.22        64.36276
516.66        64.23582
517.10        64.55344
517.54        64.49065
517.98        64.67581
518.42        64.83652
518.86        64.93869
519.30        64.96516
519.74        64.88258
520.18        64.75732
520.62        64.78168
521.06        64.92672
521.50        64.93729
521.93        64.79923
522.37        64.69481
522.81        64.63228
523.25        64.50478
523.69        64.34556
524.13        64.26242
524.57        64.26781
525.01         64.3264
525.45        64.41602
525.89        64.50056
526.32        64.56145
526.76        64.61501
527.20        64.64946
527.64        64.64964
528.08          64.616
528.52        64.55169
528.96        64.48495
529.40        64.45461
529.83        64.46509
530.27        64.53606
530.71        64.61739
531.15        64.62426
531.59        64.54448
532.03         64.4134
532.46        64.27081
532.90        64.19509
533.34        64.19794
533.78        64.24973
534.22        64.32039
534.66         64.3645
535.09        64.35755
535.53        64.33865
535.97        64.29166
536.41        64.20808
536.85        64.09471
537.28        63.95401
537.72        63.82558
538.16        63.77726
538.60        63.81783
539.04        63.92575
539.47        64.03367
539.91        64.09073
540.35         64.0638
540.79        63.97923
541.22        63.86707
541.66        63.79182
542.10        63.76727
542.54        63.77165
542.97        63.79017
543.41        63.83249
543.85        63.88983
544.29        63.97886
544.72        64.06335
545.16         64.1376
545.60        64.18385
546.04        64.13396
546.47         64.0599
546.91        64.20284
547.35          64.493
547.79        64.65403
548.22        64.61206
548.66        64.39513
549.10        64.10403
549.53        64.01196
549.97         64.1131
550.41        64.09232
550.84        63.95504
551.28        63.88332
551.72        63.88025
552.15        63.96086
552.59        64.15914
553.03        63.97218
553.46        64.28631
553.90        64.27097
554.34        64.16123
554.77        64.07968
555.21        64.15421
555.65        63.80325
556.08         64.2031
556.52        64.41676
556.96        64.67083
557.39        64.66016
557.83        64.43636
558.27        64.28555
558.70        64.24594
559.14        64.18027
559.57        64.08907
560.01         64.1656
560.45        64.32856
560.88        64.28551
561.32        64.12038
561.75        64.04131
562.19        64.09042
562.63        64.19826
563.06        64.28748
563.50        64.13048
563.93        63.80214
564.37        63.72725
564.80        63.89611
565.24        64.10429
565.68        64.27619
566.11         64.3776
566.55        64.40674
566.98        64.40042
567.42        64.39124
567.85        64.31559
568.29        64.27342
568.72          64.334
569.16        64.49132
569.60        64.78965
570.03        64.75748
570.47        64.85914
570.90        64.92294
571.34        65.04589
571.77        65.33623
572.21        65.31194
572.64        65.33215
573.08         65.5526
573.51        65.07652
573.95        65.56743
574.38        65.59593
574.82        66.09596
575.25        65.82135
575.69        65.72307
576.12         64.9266
576.56        65.31656
576.99        65.47292
577.42         65.5499
577.86        65.93821
578.29        66.41235
578.73        66.63189
579.16        66.21822
579.60        65.44024
580.03        65.65283
580.47        65.76295
580.90        65.64137
581.33        65.90887
581.77        66.26166
582.20        66.93082
582.64         67.0145
583.07        66.60352
583.51        66.13698
583.94        65.51821
584.37        65.23479
584.81        64.87849
585.24        65.09234
585.68        65.96571
586.11        65.73334
586.54        66.00908
586.98        65.56439
587.41          65.174
587.85        65.64581
588.28        66.09459
588.71        65.89149
589.15         65.8726
589.58        65.21227
590.01        65.14878
590.45         64.5174
590.88        65.22976
591.31         64.8375
591.75        64.57561
592.18        64.51354
592.61        64.90787
593.05        65.11951
593.48        65.23449
593.91         65.7382
594.35        65.32042
594.78        65.38727
595.21        64.80865
595.65        64.94651
596.08        65.37209
596.51        65.60182
596.94        65.07537
597.38        64.88345
597.81        64.90347
598.24        65.26228
598.68        64.88815
599.11        64.91574
599.54        65.34081
599.97        65.27486
600.41        65.17564
600.84         65.2663
601.27        65.20383
601.70         65.3368
602.14         64.8875
602.57        64.83537
603.00        64.96474
603.43        65.41702
603.87        65.67792
604.30        65.68803
604.73        65.53945
605.16        65.28302
605.60        65.08569
606.03        65.19709
606.46        65.60581
606.89        65.24885
607.32        64.63461
607.76        65.43082
608.19        65.22602
608.62        64.97166
609.05        65.73859
609.48          65.272
609.92        65.30667
610.35        65.12736
610.78        65.39225
611.21        65.38642
611.64        65.27376
612.07        65.20163
612.50        65.19112
612.94        65.13404
613.37        65.04993
613.80        65.01193
614.23        64.91654
614.66        64.87567
615.09        64.87148
615.52         64.8354
615.96        64.74801
616.39        64.77044
616.82         64.9436
617.25        64.59193
617.68        64.76471
618.11        64.79163
618.54        64.95287
618.97        64.79053
619.40        64.37716
619.84        64.45712
620.27        64.50878
620.70        64.63916
621.13        64.70245
621.56        64.40745
621.99        64.32175
622.42        64.63252
622.85        64.78761
623.28        64.55321
623.71         64.7124
624.14        64.74429
624.57        64.65162
625.00        64.99383
625.43        64.59609
625.86        64.74915
626.29        64.77148
626.72        64.78185
627.15        64.61022
627.58        64.41877
628.01        64.24142
628.44        64.22683
628.87        63.87902
629.30        64.25536
629.73        64.16274
630.16        64.09235
630.59        64.10152
631.02        64.35787
631.45        64.06869
631.88        64.09417
632.31        64.19698
632.74        63.98631
633.17        64.10152
633.60        64.01528
634.03        63.93134
634.46        63.88896
634.89        63.80895
635.32         63.8031
635.75        63.83772
636.18        63.91295
636.61        63.99999
637.04        64.05203
637.47        64.05167
637.89        64.03024
638.32        64.00095
638.75         63.9561
639.18        63.89285
639.61          64.035
640.04         63.9589
640.47        63.95717
640.90        63.90424
641.33        63.82391
641.76         63.7387
642.18        63.69857
642.61        63.70353
643.04        63.74143
643.47        63.79078
643.90        63.82244
644.33        63.82327
644.76        63.78568
645.18        63.72673
645.61        63.69544
646.04        63.69581
646.47        63.67119
646.90        63.61628
647.33        63.61503
647.75        63.67322
648.18        63.65085
648.61        63.60539
649.04        63.87267
649.47        64.28785
649.89        64.46851
650.32        63.80608
650.75        63.75368
651.18        64.09528
651.61        64.14131
652.03        63.90435
652.46        63.81311
652.89        63.90504
653.32        64.03698
653.74        64.20116
654.17        64.15693
654.60        63.84446
655.03        63.91967
655.46        63.71857
655.88        64.27049
656.31         66.0277
656.74        70.94698
657.16        69.92957
657.59        68.46897
658.02        65.38127
658.45        64.04057
658.87        64.28734
659.30        64.67388
659.73         63.6351
660.15        64.01643
660.58        64.15957
661.01        64.53447
661.44        64.62677
661.86        64.45967
662.29         64.0956
662.72        63.84343
663.14        63.79041
663.57        63.76352
664.00        63.75629
664.42        63.80913
664.85         63.9173
665.27        63.95621
665.70        64.10264
666.13         64.1508
666.55        64.15807
666.98        64.11497
667.41        64.05624
667.83        64.05697
668.26        64.13766
668.69        64.21265
669.11        64.24511
669.54        64.38789
669.96        64.67808
670.39        64.26711
670.82         64.6811
671.24        64.54069
671.67        64.35326
672.09        64.28928
672.52        64.37804
672.94        64.47433
673.37        64.51606
673.80        64.41505
674.22        64.21851
674.65         64.1111
675.07         64.1329
675.50         64.1412
675.92        64.13184
676.35        64.14572
676.77        64.17863
677.20        64.23484
677.62        64.31999
678.05        64.36617
678.47        64.35431
678.90        64.54519
679.32        64.49655
679.75         64.5782
680.17        64.64463
680.60        64.75455
681.02        64.87294
681.45        64.78683
681.87        64.55746
682.30        64.56633
682.72        64.77969
683.15        64.69278
683.57        64.33829
684.00        64.32686
684.42        64.34673
684.85        64.40527
685.27        64.39089
685.70        64.46204
686.12        64.57718
686.54        64.64545
686.97        64.64721
687.39        64.63207
687.82        64.61835
688.24         64.6097
688.66        64.59204
689.09        64.81675
689.51        64.77734
689.94           64.87
690.36          64.927
690.78        64.92928
691.21        64.88756
691.63          64.795
692.06        64.71269
692.48        64.77005
692.90        64.92532
693.33        64.97578
693.75        64.90976
694.17        64.79607
694.60        64.68126
695.02        64.76083
695.44        64.77104
695.87        64.94719
696.29        65.15362
696.71        65.09501
697.14        64.83498
697.56        64.94048
697.98        65.36356
698.41         65.3405
698.83        65.31845
699.25        65.21047
699.68        65.16336
700.10        65.06435
700.52        64.92498
700.94        64.77474
701.37        64.64153
701.79        64.62717
702.21        64.72374
702.64        64.90544
703.06        65.10271
703.48          65.216
703.90        65.22284
704.33         65.1471
704.75        65.03673
705.17        64.95306
705.59        64.92188
706.01        64.92281
706.44        64.95858
706.86        65.05244
707.28        65.18436
707.70        65.34898
708.12        65.51735
708.55        65.63281
708.97        65.67429
709.39        65.66134
709.81         65.6098
710.23        65.55735
710.66         65.5223
711.08        65.50986
711.50        65.49915
711.92         65.4733
712.34        65.43078
712.76        65.37894
713.19        65.33221
713.61        65.35945
714.03        65.44289
714.45        65.57781
714.87        65.72659
715.29        65.78717
715.71        65.73732
716.13        65.77416
716.56        65.60848
716.98        65.59168
717.40        65.63456
717.82        65.72035
718.24        65.82392
718.66        65.90812
719.08        65.96387
719.50         66.0074
719.92        66.03797
720.34        66.05113
720.76        66.05111
721.19        66.02431
721.61        66.02047
722.03        66.09252
722.45        66.24687
722.87        66.46697
723.29        66.68726
723.71        66.79943
724.13        66.77838
724.55        66.65179
724.97        66.49417
725.39        66.43137
725.81        66.49544
726.23        66.64861
726.65        66.82153
727.07        66.90755
727.49        66.88294
727.91         66.7757
728.33        66.64314
728.75        66.60911
729.17        66.68534
729.59        66.76593
730.01        66.83754
730.43        66.93719
730.85        67.04864
731.27        67.14101
731.69        67.20251
732.10        67.15475
732.52        67.21246
732.94        67.00754
733.36        66.69437
733.78         66.5806
734.20        66.70838
734.62        66.90026
735.04        67.08929
735.46        67.30825
735.88        67.39368
736.30          67.477
736.72        67.48805
737.13        67.41786
737.55        67.24151
737.97        66.92788
738.39        66.61009
738.81        66.63854
739.23        66.98787
739.65        67.26558
740.06        67.34322
740.48        67.45595
740.90        67.54808
741.32        67.45953
741.74        67.25045
742.16        67.14074
742.57        67.18535
742.99        67.30021
743.41        67.43374
743.83        67.48576
744.25         67.4305
744.67        67.30036
745.08        67.17822
745.50        67.15026
745.92        67.25292
746.34        67.45204
746.75        67.65376
747.17        67.70667
747.59        67.58629
748.01        67.31183
748.42        67.00533
748.84        66.91689
749.26        67.06063
749.68        67.23145
750.09        67.35629
750.51        67.43285
750.93        67.44875
751.35        67.44289
751.76        67.43398
752.18        67.40466
752.60        67.36449
753.01        67.34975
753.43        67.33004
753.85        67.28558
754.27        67.21848
754.68        67.15094
755.10        67.09725
755.52        67.04855
755.93        67.00653
756.35        66.98129
756.77        67.01747
757.18        67.09686
757.60        67.19079
758.02        67.46715
758.43         67.8955
758.85        67.55937
759.26        67.59553
759.68        67.70052
760.10        67.41914
760.51        67.01917
760.93         67.1488
761.34        67.32102
761.76        67.70818
762.18        67.87833
762.59         67.7762
763.01        67.84441
763.42        67.23798
763.84        67.29971
764.26         67.4648
764.67        67.67271
765.09        67.83365
765.50        68.27424
765.92        68.83154
766.33        68.91035
766.75        68.49348
767.16         67.9707
767.58        67.50415
768.00        67.55676
768.41        68.06103
768.83        68.06751
769.24        67.56525
769.66           67.79
770.07        67.88738
770.49        67.95454
770.90        67.77479
771.32        67.73193
771.73        67.84737
772.15        67.93394
772.56        68.00849
772.97        68.14926
773.39        68.28442
773.80        68.34428
774.22        68.27295
774.63        68.09169
775.05        67.85818
775.46        67.75033
775.88          67.783
776.29        67.92027
776.70        68.08513
777.12         68.1736
777.53        68.17252
777.95        68.10696
778.36        68.02254
778.77        67.98373
779.19        68.01359
779.60         68.0974
780.02        68.21533
780.43        68.37109
780.84        68.55553
781.26        68.70687
781.67         68.8529
782.09        69.06561
782.50        69.27559
782.91        69.29552
783.33         69.1316
783.74        69.03772
784.15        69.00112
784.57        68.97102
784.98        68.95177
785.39        68.84479
785.81         68.7198
786.22        68.87305
786.63        69.23557
787.04        69.42517
787.46        69.41831
787.87        69.38821
788.28        69.38367
788.70        69.37832
789.11        69.36641
789.52        69.40121
789.93        69.46486
790.35        69.43638
790.76        69.35954
791.17        69.43297
791.58        69.63552
792.00        69.71927
792.41        69.69037
792.82        69.73248
793.23        69.87912
793.65        69.86837
794.06        69.78429
794.47        70.16912
794.88        70.89034
795.29        70.74763
795.71        70.77243
796.12        70.43819
796.53        70.13786
796.94        69.80926
797.35        69.54552
797.76        69.50928
798.18        69.64658
798.59        69.72371
799.00        69.70137
799.41        69.71342
799.82        69.75364
800.23        69.75757
800.64        69.72552
801.06        69.64259
801.47        69.58808
801.88        69.62666
802.29         69.7698
802.70        69.98426
803.11        70.21613
803.52        70.37379
803.93        70.43583
804.34        70.43327
804.75        70.38496
805.17        70.36638
805.58        70.43576
805.99        70.39764
806.40        70.30297
806.81        70.62217
807.22        71.17011
807.63        71.06808
808.04        70.43166
808.45        70.23693
808.86        70.55868
809.27        70.83111
809.68        70.96699
810.09         71.0756
810.50        71.12502
810.91        71.09969
811.32        71.00138
811.73        70.83285
812.14         70.6139
812.55         70.3512
812.96        70.13762
813.37        70.12302
813.78        70.33127
814.19        70.71744
814.60        71.13654
815.01        71.36108
815.42        71.33693
815.83        71.11831
816.24        70.81796
816.65        70.65508
817.05        70.71288
817.46         70.9014
817.87        71.15316
818.28        71.32212
818.69        71.37086
819.10        71.34517
819.51        71.31371
819.92        71.38856
820.33        71.58944
820.74        71.85614
821.14        72.09904
821.55        72.21243
821.96         72.1553
822.37        71.96449
822.78        71.69006
823.19        71.42152
823.60        71.20327
824.00        71.04045
824.41        70.89815
824.82        70.78407
825.23         70.7021
825.64        70.67751
826.04        70.73168
826.45        70.84887
826.86        71.03472
827.27        71.27307
827.68        71.55306
828.08        71.88386
828.49        72.16964
828.90        72.43598
829.31        72.65562
829.72        72.71871
830.12        72.62344
830.53        72.68193
830.94        72.34483
831.35        72.10475
831.75        71.83772
832.16        71.54084
832.57        71.30466
832.97        71.25616
833.38        71.40818
833.79        71.71626
834.20        72.08039
834.60        72.34881
835.01        72.47611
835.42        72.49197
835.82        72.44575
836.23        72.37954
836.64        72.33462
837.04        72.30447
837.45        72.25677
837.86        72.20342
838.26        72.15989
838.67        72.12781
839.08        72.12532
839.48        72.15768
839.89        72.21812
840.29        72.30398
840.70        72.42189
841.11        72.58477
841.51         72.8022
841.92        73.02769
842.33        73.23251
842.73        73.37051
843.14         73.3819
843.54        73.30903
843.95        73.19105
844.35        73.12267
844.76        73.12171
845.17        73.17753
845.57        73.26387
845.98        73.29505
846.38        73.28423
846.79        73.23339
847.19        73.21439
847.60        73.25944
848.00        73.41012
848.41        73.60271
848.81        73.83756
849.22        74.03555
849.62        74.20635
850.03        74.32816
850.43        74.41407
850.84        74.37936
851.24        74.27573
851.65        74.05398
852.05        73.85656
852.46        73.82253
852.86        73.98879
853.27        74.34753
853.67        74.68461
854.07        74.85484
854.48        74.79286
854.88        74.56103
855.29        74.24792
855.69        74.20563
856.10         74.4096
856.50        74.85395
856.90        75.26369
857.31        75.22803
857.71        74.72218
858.12        73.83786
858.52        72.84835
858.92        72.13662
859.33         71.8256
859.73        71.84825
860.13        72.10618
860.54        72.42802
860.94        72.78299
861.34        73.17189
861.75        73.47003
862.15         73.5479
862.55        73.34891
862.96        72.89342
863.36        72.34821
863.76        71.95229
864.17        71.78031
864.57        71.81122
864.97        71.95918
865.38        72.04978
865.78        72.06779
866.18        72.04489
866.58        72.03553
866.99        72.11166
867.39        72.32062
867.79        72.59293
868.19        72.83817
868.60         72.8495
869.00        72.65591
869.40        72.46169
869.80        72.28252
870.21         71.9911
870.61        71.68451
871.01        71.44717
871.41        71.29053
871.81         71.1517
872.22        71.03062
872.62        70.94847
873.02        70.93477
873.42        71.17268
873.82        71.50618
874.22        71.49848
874.63        71.29464
875.03        71.22079
875.43        71.30848
875.83        72.15316
876.23        71.64375
876.63        71.11575
877.03        70.38689
877.44        68.98167
877.84        154.7487
878.24        70.20619
878.64        70.74285
879.04        71.72163
879.44         71.8959
879.84        69.17014
880.24        73.30876
880.64        73.71293
881.04        72.12408
881.44        70.87875
881.84        70.34325
882.24        70.64113
882.65        71.35137
883.05        71.49657
883.45        70.86972
883.85        70.12443
884.25        69.55783
884.65        69.31596
885.05         69.4744
885.45         69.9232
885.85        70.43628
886.25        70.71075
886.65        70.66641
887.05        70.39269
887.45        69.99547
887.85        69.65192
888.25        69.44383
888.65        69.33792
889.04        69.32086
889.44        69.37576
889.84          69.481
890.24        69.62566
890.64        69.83223
891.04        70.13287
891.44        70.51323
891.84        70.95668
892.24        71.31798
892.64        71.35947
893.04        71.04989
893.44        70.47972
893.83        69.90579
894.23        69.69059
894.63        69.92391
895.03        70.50657
895.43        71.22365
895.83        71.70408
896.23         71.8396
896.63        71.73021
897.02        71.52342
897.42        71.51347
897.82        71.71995
898.22         72.0283
898.62        72.29185
899.01        72.29673
899.41        71.97216
899.81        71.43862
900.21        70.79688
900.61        70.19699
901.00        69.71164
901.40        69.38567
901.80        69.26696
902.20          69.309
902.59        69.47836
902.99        69.98029
903.39        70.82847
903.79        70.67786
904.18        71.60937
904.58        71.90218
904.98        72.06385
905.38        71.87387
905.77        71.33038
906.17        70.52637
906.57        69.68711
906.96        69.27489
907.36        69.39639
907.76        69.96357
908.15        70.74387
908.55        71.17176
908.95        71.15039
909.34        70.78398
909.74        70.36733
910.14        70.33977
910.53        70.78771
910.93        71.52422
911.33        72.23516
911.72         72.4399
912.12        72.04295
912.52        71.22488
912.91        70.24416
913.31        69.57815
913.70        69.34103
914.10        69.40781
914.49        69.65231
914.89        69.77011
915.29        69.70158
915.68        69.53072
916.08        69.39306
916.47        69.43904
916.87        69.72814
917.26        70.17999
917.66        70.65996
918.05         70.9901
918.45        71.09872
918.84        71.04364
919.24        70.93217
919.64        71.00519
920.03        71.30771
920.42        71.73218
920.82        72.09919
921.21        72.14185
921.61        71.83113
922.00        71.33945
922.40        70.86998
922.79        70.62753
923.19        70.38052
923.58        70.77925
923.98        72.10705
924.37        72.31159
924.77        70.25381
925.16        77.07516
925.55        72.54627
925.95        73.11375
926.34        73.06788
926.74        72.31702
927.13         70.9604
927.52        70.15672
927.92        70.38151
928.31        71.03814
928.70        71.87745
929.10        72.47198
929.49        72.73492
929.89        72.81036
930.28        72.73284
930.67        72.44797
931.07        72.01343
931.46        71.35165
931.85        70.70865
932.24        70.87431
932.64        71.92391
933.03        73.15327
933.42        73.87325
933.82        75.71952
934.21        74.39068
934.60        73.26794
934.99        72.07691
935.39        71.65176
935.78        72.05251
936.17        73.59232
936.56        78.71463
936.96        73.02223
937.35        76.16586
937.74        73.60928
938.13        71.84081
938.53        70.47004
938.92        70.06077
939.31        71.00252
939.70        72.28188
940.09         72.9018
940.49        72.63361
940.88        71.85171
941.27        70.88457
941.66        70.35034
942.05        70.49087
942.44        71.05122
942.84        71.74471
943.23        72.26871
943.62        72.50668
944.01         72.5418
944.40        72.53272
944.79        72.72624
945.18        73.15926
945.57        73.72827
945.97        74.14374
946.36        74.07903
946.75        73.44427
947.14        72.38412
947.53          71.254
947.92         70.6642
948.31        70.78372
948.70        71.41207
949.09        72.24254
949.48         72.7933
949.87        72.92159
950.26        72.78387
950.65        72.47298
951.04        72.13519
951.43        71.85336
951.82        71.56988
952.21        71.36195
952.60        71.39174
952.99          71.659
953.38        72.08852
953.77        72.55241
954.16        72.84683
954.55        72.92445
954.94        72.87038
955.33        72.64335
955.72        72.19677
956.11        71.57737
956.50         70.7912
956.89        70.14346
957.28        70.11181
957.66        70.78162
958.05        71.94049
958.44        73.11683
958.83        73.57762
959.22        73.16408
959.61        72.04443
960.00        70.66341
960.39        69.91029
960.78        70.07827
961.16        70.91373
961.55        71.87743
961.94        72.32925
962.33        72.12963
962.72        71.46042
963.11        70.63979
963.49        70.30619
963.88        70.64773
964.27        71.42539
964.66        72.23131
965.04        72.53686
965.43        72.18596
965.82        71.39421
966.21        70.46361
966.60        69.91626
966.98        69.93095
967.37        70.34889
967.76        70.93629
968.15        71.30652
968.53         71.3616
968.92         71.1935
969.31        70.97243
969.69        70.95946
970.08         71.1852
970.47        71.53461
970.86        71.88759
971.24        72.06964
971.63        72.00562
972.02        71.78966
972.40        71.47381
972.79        71.02256
973.17        70.52726
973.56          70.027
973.95        69.65312
974.33        69.63903
974.72        70.01513
975.11        70.65108
975.49        71.54726
975.88        72.61247
976.26        73.80601
976.65         75.0364
977.04        75.96339
977.42         76.0724
977.81        75.24905
978.19        73.55457
978.58        71.74362
978.96        71.23667
979.35         72.3485
979.74        74.53655
980.12        76.78869
980.51        77.68405
980.89        77.12324
981.28        75.37995
981.66        73.05621
982.05        71.64359
982.43        71.76329
982.82        73.01221
983.20         74.6681
983.59        75.58809
983.97        75.53199
984.35        74.85003
984.74        73.90516
985.12        73.40649
985.51        73.53968
985.89        74.06831
986.28        74.75528
986.66         75.3639
987.04        75.85027
987.43        76.24615
987.81        76.34816
988.20        76.84621
988.58        77.87478
988.96        77.43652
989.35        75.06886
989.73        79.43178
990.12        76.48277
990.50        77.02237
990.88        77.05334
991.27        76.72811
991.65         75.9092
992.03        74.81352
992.42        73.90231
992.80        73.50603
993.18        73.75147
993.56        74.57114
993.95        75.57218
994.33        76.07687
994.71        75.92471
995.10        75.28716
995.48        74.56052
995.86        74.39176
996.24        74.93083
996.63        75.86122
997.01        76.95205
997.39        77.65189
997.77         77.7949
998.15        77.56071
998.54        77.13312
998.92        76.68314
999.30          76.348
999.68        76.10146
1000.06        75.94833
1000.45        75.87351
1000.83        75.98703
1001.21        76.27145
1001.59        76.78672
1001.97        77.59138
1002.35        78.58466
1002.73         79.6151
1003.12        80.48915
1003.50        81.02573
1003.88        81.19791
1004.26        81.08371
1004.64        80.69586
1005.02        80.09802
1005.40        79.36805
1005.78        78.50496
1006.16        77.73277
1006.54         77.3684
1006.92        77.49447
1007.30        78.12133
1007.69        78.86249
1008.07        79.21796
1008.45        79.06258
1008.83        78.47028
1009.21        77.94579
1009.59        78.49777
1009.97        80.17735
1010.35        82.33642
1010.73        84.20279
1011.11        85.14993
1011.49        85.21732
1011.86        84.46376
1012.24        82.85242
1012.62        83.00751
1013.00        83.08899
1013.38         82.7498
1013.76         80.9017
1014.14        84.40289
1014.52        89.53917
1014.90         84.5924
1015.28        86.39429
1015.66        87.96547
1016.04        85.90353
1016.41        85.89252
1016.79         84.8131
1017.17        83.86659
1017.55        82.77442
1017.93        81.72318
1018.31        81.16534
1018.69        81.39031
1019.06        82.46809
1019.44        84.14283
1019.82        85.86777
1020.20        86.96088
1020.58         87.3269
1020.95        87.03158
1021.33        86.27136
1021.71        85.64581
1022.09        85.53906
1022.46        85.70989
1022.84        85.95856
1023.22        86.12332
1023.60        86.20075
1023.97        86.36707
1024.35        86.54354
1024.73        86.52619
