SpectraSmart Spectrum 2.9.0.0
--------- Device Information -----------
Spectrum Name :  反射率_0
Saving Time :  2024/04/21 00:55:12
Spectro-Module Model Name : SE2030-DUVN
Spectro-Module Serial Number : OS361AC55029948
Wavelength Start : 200
Wavelength End : 1025
Wavelength Unit : Wavelength(nm)
Spectrum Unit : Reflectance(%)
-----------Spectrum Setting ------------
Integration Time : 20ms
Average : 10
Boxcar : 0
Background removal :  enabled
linearity correction :  enabled
SC :  disabled
Intensity correction :  disabled
DWT denoise :  enabled
savitzky-golay :  disabled
FFT :  disabled
Running average :  disabled
Kalman :  disabled
High pass :  disabled
---------------BEGIN--------------------
Wavelength(nm)             Reflectance(%)
200.29               0
200.75       -72.16678
201.21       -13.73836
201.67        18.42599
202.13        32.98261
202.58        38.31918
203.04         39.6259
203.50        37.15873
203.96        30.71443
204.42        21.53134
204.88        9.626927
205.34       -1.523534
205.80       -8.131413
206.26       -9.413005
206.72       -2.393075
207.18        8.427875
207.64        8.961815
208.10       -5.341898
208.55       -30.06337
209.01       -44.88618
209.47       -25.92413
209.93        4.135546
210.39        27.96821
210.85        43.11049
211.31        50.00961
211.77        51.23483
212.23        48.75768
212.69        39.54543
213.14        15.69131
213.60        -41.4019
214.06       -233.3528
214.52       -712.2466
214.98       -319.9486
215.44       -67.72848
215.90        17.30481
216.36        45.05331
216.81        46.62514
217.27        25.59485
217.73       -80.61707
218.19        1210.313
218.65        539.7189
219.11       -1219.266
219.57       -58.11548
220.02          16.711
220.48         31.0265
220.94        26.00836
221.40        2.058928
221.86       -57.31254
222.32       -98.03795
222.77       -46.55725
223.23      -0.8175013
223.69        22.43746
224.15        30.50714
224.61        30.74417
225.06        27.57135
225.52        22.27301
225.98        16.20247
226.44        10.38171
226.90        3.272635
227.36       -1.388713
227.81        3.027599
228.27        12.94381
228.73        23.45557
229.19        30.22599
229.65        30.85287
230.10        26.26956
230.56        18.05895
231.02        7.935167
231.48        2.216886
231.93        4.882256
232.39        13.01551
232.85        21.59169
233.31        26.69499
233.77        28.67784
234.22        29.33765
234.68         29.0193
235.14        28.22263
235.60        27.52311
236.05        25.91517
236.51        23.81854
236.97        27.88668
237.43        38.54046
237.88        45.92999
238.34        46.14719
238.80        65.74592
239.26        55.85731
239.71        51.87707
240.17         40.9739
240.63        30.08847
241.08        24.66655
241.54        28.57007
242.00        41.02702
242.46        49.13734
242.91        49.40528
243.37        42.91209
243.83        31.64501
244.28        25.00511
244.74        28.82874
245.20         37.5722
245.66        45.64804
246.11        48.13615
246.57         44.4509
247.03         36.6243
247.48        25.91356
247.94        14.26292
248.40      -0.2043835
248.85       -31.40415
249.31       -122.7679
249.77       -198.2806
250.22       -61.22072
250.68       -3.157266
251.14         15.6805
251.59        20.79027
252.05        20.21975
252.51        16.77201
252.96        9.747564
253.42        1.913462
253.88       -1.863835
254.33       -1.032936
254.79        7.157086
255.25        21.72433
255.70        36.49987
256.16        48.28146
256.62        55.89863
257.07        58.96894
257.53        59.37524
257.99         58.4079
258.44         56.6491
258.90        55.21981
259.35        53.78776
259.81        52.50891
260.27        51.34755
260.72        50.38364
261.18         49.8418
261.63        49.40982
262.09        48.94593
262.55        47.92426
263.00        46.34551
263.46        44.59349
263.91         42.9224
264.37        42.05521
264.83        41.90883
265.28          42.137
265.74        42.42096
266.19        42.17169
266.65        41.37457
267.11        40.20725
267.56        38.85084
268.02        37.66259
268.47        36.70379
268.93        35.88923
269.38        35.16547
269.84          34.519
270.30        33.90549
270.75        33.34589
271.21        32.79052
271.66        32.08116
272.12        31.23553
272.57        30.29409
273.03        29.37915
273.48           28.64
273.94        28.12619
274.39        27.74779
274.85        27.48009
275.31        27.22104
275.76        26.92003
276.22         26.6282
276.67        26.29941
277.13        25.93937
277.58         25.5199
278.04        25.06773
278.49        24.58638
278.95        24.15757
279.40        23.75628
279.86        23.39919
280.31        23.02532
280.77        22.61896
281.22         22.1544
281.68        21.70448
282.13        21.26868
282.59        20.91396
283.04        20.62587
283.50        20.39043
283.95        20.21687
284.41        20.14479
284.86        20.15394
285.32        20.23942
285.77        20.29196
286.22        20.16285
286.68        19.85964
287.13        19.40506
287.59        18.98621
288.04         18.7845
288.50        18.80672
288.95        19.11692
289.41        19.60522
289.86        19.60074
290.32        18.97711
290.77        19.82951
291.22        18.80782
291.68        18.82375
292.13        18.90228
292.59        19.08944
293.04        19.34535
293.50         19.6897
293.95        20.12896
294.40        20.63088
294.86        21.16572
295.31        21.67465
295.77        22.14359
296.22        22.58356
296.68        23.01749
297.13        23.47627
297.58        23.98703
298.04        24.55093
298.49        25.19294
298.95          25.966
299.40        26.86228
299.85        27.87246
300.31        28.93092
300.76        29.92826
301.21        30.84027
301.67        31.70264
302.12        32.57432
302.58        33.61548
303.03         34.8404
303.48        36.25572
303.94        37.76043
304.39        39.16446
304.84        40.45078
305.30        41.69765
305.75        43.05176
306.20        44.80041
306.66        46.96741
307.11        49.41277
307.57        51.92636
308.02        54.16403
308.47        56.07016
308.93        57.79773
309.38        59.48733
309.83        61.35271
310.29        63.58749
310.74        65.97946
311.19        68.45614
311.65        70.84074
312.10        73.06557
312.55        75.18644
313.00        77.25134
313.46        79.33556
313.91        81.43241
314.36        83.49447
314.82        85.48784
315.27        87.37806
315.72        89.16114
316.18        90.85201
316.63        92.44835
317.08        93.94394
317.53        95.33186
317.99        96.60306
318.44        97.76825
318.89        98.83462
319.35        99.80968
319.80        100.7119
320.25        101.5369
320.70        102.2782
321.16        102.9336
321.61        103.5261
322.06        104.0935
322.51        104.7034
322.97        105.3521
323.42        106.0561
323.87         106.735
324.32          107.27
324.78        107.6132
325.23        107.8399
325.68        108.0078
326.13        108.2468
326.59        108.5711
327.04        109.0001
327.49        109.4643
327.94          109.88
328.39        110.2207
328.85         110.487
329.30         110.768
329.75        111.0691
330.20        111.4054
330.66        111.7257
331.11        112.0976
331.56        112.4951
332.01         112.916
332.46        113.3615
332.92        113.7712
333.37        114.1898
333.82        114.5692
334.27        114.9281
334.72        115.2915
335.17        115.7038
335.63        116.1483
336.08        116.6685
336.53        117.2437
336.98        117.8902
337.43        118.5919
337.88        119.3317
338.34        120.0136
338.79        120.5433
339.24        120.8757
339.69        121.0598
340.14        121.1842
340.59        121.3978
341.05        121.7501
341.50        122.2081
341.95        122.7589
342.40        123.3759
342.85          124.03
343.30        124.7265
343.75        125.3847
344.20        125.8815
344.66        126.2003
345.11        126.3385
345.56        126.4075
346.01        126.5947
346.46        126.9457
346.91        127.3885
347.36        127.7856
347.81        128.0078
348.26         128.045
348.72        127.6504
349.17        127.5517
349.62        127.5259
350.07        127.8017
350.52        128.2713
350.97        128.8047
351.42        129.1807
351.87        129.3111
352.32        129.2546
352.77        129.0563
353.22        128.7869
353.67         128.483
354.13        128.1477
354.58         127.756
355.03        127.3317
355.48        126.8905
355.93        126.4409
356.38        126.0314
356.83        125.7225
357.28        125.5004
357.73        125.3245
358.18        125.0851
358.63        124.6133
359.08        123.8818
359.53        122.9604
359.98          121.95
360.43        121.0028
360.88        120.1689
361.33        119.4091
361.78        118.7173
362.23        118.0801
362.68        117.4807
363.13        116.9255
363.58        116.3615
364.03        115.6971
364.48        114.9108
364.93        114.0173
365.38        113.0741
365.83        112.1877
366.28        111.3851
366.73        110.6327
367.18        109.8937
367.63        109.1064
368.08        108.2617
368.53        107.4047
368.98        106.5377
369.43        105.6459
369.88        104.7327
370.33         103.791
370.78        102.8919
371.23        102.1759
371.68        101.6726
372.13        101.3359
372.58         101.047
373.03        100.6059
373.48        99.95414
373.93        99.14497
374.38        98.25376
374.83        97.42239
375.28        96.71107
375.72        96.06593
376.17        95.50144
376.62         94.9504
377.07        94.37967
377.52        93.79327
377.97          93.199
378.42        92.62051
378.87        92.07692
379.32        91.57438
379.77        91.07529
380.22        90.51145
380.67        89.86623
381.11        89.15953
381.56        88.46101
382.01        87.91801
382.46        87.57014
382.91        87.37535
383.36        87.22093
383.81        86.92965
384.26        86.45921
384.71        85.86262
385.15        85.22134
385.60         84.7319
386.05        84.40892
386.50        84.19505
386.95        84.00592
387.40        83.72046
387.85        83.31653
388.29        82.79299
388.74        82.31741
389.19        81.89933
389.64        81.54298
390.09        81.22052
390.54        80.89737
390.98        80.51013
391.43        80.09743
391.88        79.67582
392.33        79.29031
392.78        78.96761
393.23        78.70776
393.67        78.53997
394.12        78.48936
394.57        78.21651
395.02        77.78655
395.47        77.65459
395.91        77.77686
396.36         77.6469
396.81        77.26167
397.26        76.93673
397.71        76.66534
398.15        76.30223
398.60        75.95224
399.05        75.50311
399.50        75.09122
399.95        75.10816
400.39        75.45995
400.84        75.59867
401.29        75.44604
401.74        75.13038
402.18        74.75948
402.63        74.59782
403.08        74.60597
403.53          74.382
403.97        73.92479
404.42         73.5449
404.87        73.29462
405.32        73.15627
405.76        73.13086
406.21        73.15479
406.66        73.16292
407.11        73.24313
407.55        73.29688
408.00        72.88731
408.45        72.14781
408.90         71.6544
409.34        71.51302
409.79        71.54792
410.24        71.64749
410.68        71.67667
411.13        71.59592
411.58        71.46159
412.03        71.31137
412.47        71.29786
412.92        71.24855
413.37        71.29009
413.81        71.31956
414.26        71.32169
414.71        71.26676
415.15        71.18412
415.60        71.07624
416.05        71.00484
416.49        70.98791
416.94        71.00173
417.39        71.01324
417.83        70.96187
418.28        70.84274
418.73        70.67522
419.17        70.50027
419.62        70.39476
420.07        70.37328
420.51        70.39779
420.96        70.45977
421.41        70.48605
421.85        70.43114
422.30        70.38492
422.74        70.31989
423.19        70.25488
423.64        70.19666
424.08        70.26933
424.53        70.38711
424.98         70.4368
425.42        70.41712
425.87        70.33468
426.31        70.25467
426.76        70.33952
427.21        70.56807
427.65        70.71732
428.10        70.68577
428.54        70.74018
428.99        70.57135
429.44        70.40953
429.88        70.18725
430.33        70.03142
430.77        69.91556
431.22        70.01755
431.66        70.26527
432.11        70.34927
432.56        70.29239
433.00        70.40701
433.45        70.46957
433.89        70.33932
434.34        70.21959
434.78        69.57822
435.23        69.44671
435.67         70.8236
436.12        70.32514
436.57        70.45187
437.01         70.2442
437.46        70.00299
437.90        70.48016
438.35        70.38982
438.79        70.53194
439.24        70.50297
439.68         70.4764
440.13        70.49062
440.57         70.5092
441.02        70.38445
441.46        70.17606
441.91        70.18165
442.35        70.31915
442.80        70.67777
443.24        71.08211
443.69        71.08876
444.13        70.72919
444.58        70.45769
445.02        70.35086
445.47        70.45242
445.91        70.65878
446.36        70.71058
446.80        70.57537
447.24        70.36468
447.69        70.18485
448.13        70.33336
448.58        70.57096
449.02        70.68176
449.47        70.59755
449.91         70.6004
450.36        70.70287
450.80        70.63715
451.25        70.45957
451.69        70.43685
452.13        70.52636
452.58        70.36506
453.02        69.98151
453.47        69.73264
453.91        69.62917
454.36        69.50535
454.80        69.34471
455.24        69.19765
455.69         69.0726
456.13         68.9438
456.58        68.88359
457.02        68.81264
457.46        68.79356
457.91        68.97464
458.35        68.76005
458.79        68.68543
459.24        68.61933
459.68        68.44855
460.13        68.20412
460.57        68.05127
461.01        68.05742
461.46        67.40297
461.90        67.66315
462.34        67.27182
462.79        67.28272
463.23        67.35146
463.68        67.53905
464.12        67.21739
464.56        66.54774
465.01        66.59981
465.45        67.13927
465.89        67.21891
466.34        66.89468
466.78        66.67853
467.22        66.59276
467.67        66.89247
468.11        66.55663
468.55        66.35213
468.99        66.03535
469.44        65.81654
469.88        65.70995
470.32        65.60262
470.77        65.49933
471.21        65.43117
471.65        65.39394
472.10        65.38949
472.54        65.36495
472.98        65.27766
473.42        65.12856
473.87        64.89413
474.31         64.6347
474.75        64.65402
475.20        64.88585
475.64        64.99644
476.08        64.96141
476.52        64.90295
476.97        64.77702
477.41        64.94756
477.85        64.67451
478.29        64.42091
478.74        64.53282
479.18        64.36424
479.62        64.64639
480.06        64.58527
480.50        64.72794
480.95        64.72434
481.39        64.59718
481.83        64.78558
482.27        65.17552
482.72        64.31226
483.16          64.786
483.60        64.76856
484.04        64.87877
484.48        64.50649
484.93        64.32875
485.37        64.39866
485.81        64.96096
486.25        64.47826
486.69        65.73972
487.14        66.39407
487.58        65.30791
488.02        64.44907
488.46        64.35376
488.90        64.17719
489.34        64.17703
489.79        63.42887
490.23        63.75953
490.67        63.74411
491.11        63.86397
491.55        63.81763
491.99        63.65131
492.43        63.61252
492.88        63.70011
493.32        63.81784
493.76         63.8662
494.20        63.86899
494.64        63.84072
495.08        63.41082
495.52        63.20101
495.96        63.28313
496.41        63.69509
496.85        63.77623
497.29        63.47437
497.73        63.46861
498.17        63.42031
498.61        63.38957
499.05        63.25748
499.49        63.03025
499.93        62.81037
500.37        62.82685
500.82        63.04081
501.26        63.26927
501.70        63.52863
502.14        63.21837
502.58        62.93496
503.02        62.75389
503.46        62.79704
503.90        62.84652
504.34        62.83509
504.78         62.8129
505.22        62.78703
505.66        62.67543
506.10         62.4975
506.54        62.49681
506.98        62.72548
507.42        62.13919
507.86        62.81255
508.30        62.36534
508.74        62.64506
509.18        62.58985
509.62        62.57051
510.06        62.54973
510.50        62.49598
510.94        62.34704
511.38        62.13469
511.82        62.01567
512.26        62.00557
512.70        62.04005
513.14        62.08108
513.58        62.08483
514.02        62.03489
514.46        61.94678
514.90        61.83748
515.34        61.77105
515.78        61.76534
516.22        61.77485
516.66        61.63255
517.10        61.90211
517.54        61.71007
517.98        61.73846
518.42        61.73797
518.86        61.74089
519.30        61.74804
519.74        61.71815
520.18        61.68102
520.62        61.76065
521.06        61.91303
521.50        61.90673
521.93        61.75494
522.37        61.67561
522.81        61.68358
523.25        61.65743
523.69        61.59018
524.13        61.53045
524.57        61.47902
525.01        61.41862
525.45        61.37358
525.89         61.3814
526.32        61.44637
526.76        61.56784
527.20        61.68579
527.64        61.72969
528.08        61.68908
528.52         61.5197
528.96        61.31374
529.40         61.3683
529.83        61.62405
530.27        61.70669
530.71        61.58962
531.15        61.54162
531.59        61.55988
532.03        61.47362
532.46        61.30692
532.90        61.20566
533.34        61.18349
533.78        61.20128
534.22        61.23573
534.66        61.25177
535.09        61.22998
535.53        61.20446
535.97        61.17856
536.41        61.17041
536.85        61.18447
537.28        61.21376
537.72        61.24474
538.16        61.25842
538.60        61.24984
539.04        61.22711
539.47        61.19011
539.91        61.18966
540.35        61.21405
540.79         61.2533
541.22        61.28855
541.66        61.30394
542.10        61.28858
542.54        61.24821
542.97        61.18374
543.41        61.12861
543.85        61.08435
544.29        61.05569
544.72        61.02646
545.16        61.01134
545.60        61.00089
546.04        60.96577
546.47        60.93689
546.91        61.02672
547.35        61.19674
547.79        61.29811
548.22        61.28834
548.66        61.22477
549.10        61.14078
549.53        61.09222
549.97        61.07691
550.41        60.99908
550.84        60.86454
551.28        60.72289
551.72        60.60935
552.15        60.60417
552.59        60.71857
553.03        60.73701
553.46        60.83768
553.90        60.84468
554.34        60.79963
554.77         60.6656
555.21        60.53206
555.65        60.51919
556.08        60.62967
556.52        60.90039
556.96          61.198
557.39         61.1908
557.83        60.92986
558.27        60.77502
558.70        60.77162
559.14        60.73111
559.57        60.66129
560.01        60.73622
560.45        60.87901
560.88        60.91829
561.32        60.88458
561.75        60.69957
562.19        60.48218
562.63         60.5949
563.06        60.92986
563.50        60.84602
563.93         60.4049
564.37         60.2926
564.80        60.49741
565.24        60.66155
565.68        60.74385
566.11         60.8195
566.55         60.8856
566.98        60.96072
567.42        61.09214
567.85        60.91687
568.29         61.1242
568.72        61.09209
569.16        61.09279
569.60        61.11982
570.03        61.22066
570.47        61.40689
570.90        61.61515
571.34        61.51537
571.77        61.79189
572.21        61.66266
572.64        61.53437
573.08        61.63301
573.51         61.5577
573.95        62.04015
574.38        62.13546
574.82         62.6617
575.25        62.16036
575.69        62.24946
576.12         61.6659
576.56        61.99526
576.99        61.81666
577.42        62.06026
577.86        62.41425
578.29        62.55222
578.73        62.82805
579.16        62.50067
579.60        61.57643
580.03        62.14711
580.47         62.0153
580.90         62.1647
581.33        62.29555
581.77        62.63359
582.20        63.09903
582.64        63.27076
583.07        62.93349
583.51        62.54583
583.94        62.08744
584.37         61.7319
584.81        61.31731
585.24        61.46989
585.68        62.35092
586.11        62.02761
586.54        62.37179
586.98        61.81272
587.41        61.80707
587.85        61.97144
588.28        61.99148
588.71        62.10958
589.15         61.6797
589.58        61.43796
590.01        61.36662
590.45        60.97429
590.88        61.52061
591.31        61.28466
591.75        61.22418
592.18        61.16928
592.61        61.34876
593.05         61.4819
593.48        61.69017
593.91        61.99619
594.35        62.00468
594.78        61.98397
595.21        61.33418
595.65        61.20335
596.08        61.42518
596.51         61.5355
596.94        61.53949
597.38        61.29394
597.81          61.266
598.24        61.35604
598.68        60.99262
599.11        61.04976
599.54        61.55659
599.97        61.73084
600.41        61.55084
600.84        61.56948
601.27        61.77311
601.70        61.61109
602.14        61.22023
602.57        61.01147
603.00        61.25681
603.43        61.26066
603.87        61.54782
604.30        61.67394
604.73        61.28409
605.16        60.88893
605.60        61.07161
606.03        61.15723
606.46        61.30202
606.89         61.0854
607.32        60.69519
607.76        61.15858
608.19        61.19741
608.62        60.88587
609.05        61.57899
609.48         61.1128
609.92        61.33204
610.35        60.94909
610.78        60.93013
611.21        61.13204
611.64        60.88398
612.07        60.93778
612.50        61.02873
612.94        61.04978
613.37        60.98556
613.80        61.05661
614.23        61.12452
614.66         60.7953
615.09        60.67445
615.52        60.49277
615.96        60.46978
616.39        60.43651
616.82        60.39215
617.25        60.60918
617.68        60.77918
618.11        60.73328
618.54        60.58419
618.97         60.4014
619.40        60.29884
619.84        60.25333
620.27        60.16778
620.70         60.2755
621.13        60.54687
621.56        60.14912
621.99        60.29701
622.42        60.32507
622.85        60.56779
623.28        60.38259
623.71         60.3793
624.14        60.39529
624.57        60.53769
625.00        60.67089
625.43        60.32196
625.86        60.29383
626.29         60.4799
626.72        60.08167
627.15         60.1391
627.58        60.01486
628.01        60.08173
628.44        59.85718
628.87        59.65667
629.30        60.23688
629.73        60.03205
630.16        60.02422
630.59        60.01468
631.02        60.19967
631.45        59.97173
631.88        59.97628
632.31        60.04649
632.74        59.83968
633.17        59.94731
633.60        59.84124
634.03        59.70919
634.46        59.60105
634.89        59.46835
635.32        59.45622
635.75        59.53915
636.18        59.69989
636.61        59.87875
637.04        59.98302
637.47        59.98766
637.89        59.92252
638.32        59.81425
638.75        59.73406
639.18        59.70381
639.61        59.70673
640.04        59.73016
640.47          59.734
640.90        59.70547
641.33        59.69489
641.76         59.7243
642.18        59.62734
642.61        59.71788
643.04        59.73463
643.47        59.75566
643.90        59.74939
644.33        59.71382
644.76        59.64228
645.18        59.55939
645.61        59.53414
646.04        59.56381
646.47        59.57789
646.90          59.568
647.33        59.57199
647.75        59.57467
648.18         59.5713
648.61        59.58931
649.04        59.58438
649.47         59.5383
649.89        59.84622
650.32        59.81495
650.75        59.80711
651.18        59.64817
651.61        59.55488
652.03        59.56207
652.46        59.48944
652.89        59.37289
653.32        59.47882
653.74        59.81035
654.17        59.67233
654.60        59.38313
655.03        59.46368
655.46         59.5069
655.88        59.84512
656.31        61.48825
656.74        66.37702
657.16        65.44105
657.59        64.10396
658.02        60.93542
658.45        60.12954
658.87        60.00486
659.30        60.02445
659.73        59.83431
660.15        58.80551
660.58        59.76013
661.01        59.99995
661.44        60.18162
661.86        59.98314
662.29        59.50099
662.72        59.23451
663.14        59.24349
663.57        59.30209
664.00        59.36107
664.42        59.43036
664.85        59.49689
665.27        59.46491
665.70        59.52539
666.13        59.51958
666.55        59.51067
666.98         59.4812
667.41        59.44608
667.83        59.44285
668.26        59.48859
668.69        59.52394
669.11        59.52187
669.54        59.64923
669.96        59.94519
670.39        59.56042
670.82        59.93368
671.24        59.92659
671.67        59.94983
672.09        59.95232
672.52        59.94487
672.94        59.92704
673.37        59.75141
673.80        59.72226
674.22        59.78807
674.65        59.77971
675.07         59.7083
675.50        59.66503
675.92        59.65583
676.35        59.62247
676.77        59.56432
677.20        59.51333
677.62        59.51199
678.05        59.54361
678.47        59.59542
678.90         59.9368
679.32        60.00468
679.75        60.13804
680.17        60.16461
680.60        60.11958
681.02        60.02645
681.45        59.93781
681.87        59.88375
682.30        59.81399
682.72        59.75898
683.15        59.79187
683.57        59.86356
684.00        59.94995
684.42        59.71122
684.85        59.69859
685.27        59.80272
685.70        59.90039
686.12        59.95018
686.54        59.98464
686.97        59.99023
687.39        59.98475
687.82        59.97818
688.24        59.96101
688.66         59.9175
689.09        60.08156
689.51        60.00662
689.94        60.06984
690.36        60.12225
690.78        60.13094
691.21        60.09803
691.63        60.01647
692.06        59.93884
692.48        59.97324
692.90        60.09908
693.33        60.16959
693.75        60.18281
694.17        60.17458
694.60        60.14111
695.02        60.26484
695.44        60.27069
695.87        60.20263
696.29         60.0565
696.71        60.02557
697.14        60.11776
697.56        60.34348
697.98        60.64226
698.41        60.56777
698.83        60.70273
699.25        60.60632
699.68         60.4864
700.10        60.35543
700.52        60.23217
700.94        60.19631
701.37         60.0773
701.79        60.06111
702.21        60.08184
702.64        60.14516
703.06        60.21901
703.48         60.2573
703.90        60.25538
704.33        60.22278
704.75        60.18449
705.17        60.16456
705.59        60.17323
706.01        60.19419
706.44          60.241
706.86        60.35411
707.28        60.51445
707.70         60.7061
708.12        60.87534
708.55        60.93068
708.97        60.85052
709.39        60.67249
709.81        60.45042
710.23        60.28716
710.66        60.22394
711.08        60.24782
711.50         60.3171
711.92        60.37838
712.34        60.41258
712.76        60.43254
713.19         60.4436
713.61        60.49673
714.03         60.5736
714.45        60.67132
714.87        60.76348
715.29         60.7732
715.71        60.68613
716.13        60.68015
716.56        60.49843
716.98        60.47822
717.40        60.53994
717.82        60.67121
718.24        60.82014
718.66        60.90522
719.08        60.90776
719.50        60.84773
719.92        60.77532
720.34        60.76927
720.76        60.84608
721.19        60.97054
721.61        61.10921
722.03        61.17929
722.45        61.16362
722.87        61.09439
723.29        61.01347
723.71        60.98777
724.13        61.03749
724.55        61.13459
724.97        61.26663
725.39        61.41441
725.81        61.56016
726.23        61.70658
726.65        61.81973
727.07        61.85095
727.49         61.7983
727.91        61.66491
728.33         61.5053
728.75        61.44955
729.17        61.50786
729.59        61.57362
730.01        61.63336
730.43        61.72929
730.85        61.84511
731.27        61.93443
731.69        61.98744
732.10        61.96128
732.52        62.03976
732.94        61.83108
733.36        61.48671
733.78        61.33595
734.20        61.42892
734.62        61.60642
735.04        61.78213
735.46        61.90271
735.88        61.94186
736.30        61.85249
736.72         61.6967
737.13        61.77322
737.55        61.99794
737.97        61.93966
738.39        61.65054
738.81        61.61656
739.23        61.83754
739.65        61.95732
740.06        61.90523
740.48        61.89468
740.90        61.89037
741.32        61.81095
741.74        61.69548
742.16         61.6529
742.57         61.7141
742.99        61.83423
743.41        61.97207
743.83        62.03921
744.25        62.01461
744.67        61.91976
745.08        61.82708
745.50        61.81588
745.92         61.9193
746.34        62.10647
746.75        62.29564
747.17        62.35455
747.59        62.26085
748.01         62.0275
748.42        61.76122
748.84         61.6851
749.26        61.81287
749.68        61.95747
750.09        62.05011
750.51        62.10726
750.93        62.10997
751.35        62.04356
751.76          61.967
752.18        61.97049
752.60        62.07239
753.01        62.26644
753.43        62.44258
753.85        62.46324
754.27        62.30059
754.68         61.9985
755.10         61.6893
755.52        61.55597
755.93        61.64059
756.35        61.90056
756.77        62.22659
757.18        62.37754
757.60        62.28631
758.02        62.13871
758.43        62.09507
758.85        61.72358
759.26        62.07688
759.68        62.49583
760.10        62.43074
760.51        62.28855
760.93        62.61021
761.34        62.42474
761.76        62.44967
762.18        62.50289
762.59        62.63917
763.01        62.71935
763.42        61.97431
763.84        62.04141
764.26        62.31102
764.67        62.74663
765.09        63.09035
765.50        63.24097
765.92        63.19197
766.33        62.97688
766.75         62.6706
767.16        62.47356
767.58        62.37724
768.00        62.47089
768.41        62.70523
768.83         62.5577
769.24        62.08284
769.66        62.44558
770.07        62.60968
770.49        62.66786
770.90        62.37204
771.32        62.28165
771.73        62.42429
772.15        62.49045
772.56        62.49636
772.97        62.59122
773.39        62.72248
773.80        62.79753
774.22        62.77085
774.63        62.69762
775.05        62.59428
775.46        62.53706
775.88        62.52579
776.29        62.55685
776.70        62.59851
777.12        62.61787
777.53        62.61715
777.95        62.59544
778.36        62.55838
778.77        62.50799
779.19        62.45827
779.60        62.42582
780.02         62.4071
780.43        62.45974
780.84          62.596
781.26         62.6432
781.67        62.66874
782.09        63.05204
782.50        63.61108
782.91        63.63388
783.33        63.16274
783.74        62.96922
784.15        63.07909
784.57        63.09138
784.98        63.01512
785.39        62.97235
785.81        62.99796
786.22        63.19234
786.63        63.47858
787.04        63.60039
787.46         63.5405
787.87        63.40145
788.28        63.26839
788.70         63.2159
789.11        63.24981
789.52        63.37438
789.93        63.53764
790.35        63.59472
790.76         63.5601
791.17        63.58392
791.58        63.66082
792.00         63.6689
792.41        63.63968
792.82        63.59766
793.23        63.60406
793.65        63.74818
794.06        64.00784
794.47        64.27818
794.88        64.51989
795.29        64.43863
795.71        64.63686
796.12        64.56564
796.53        64.42624
796.94        64.33532
797.35        64.30536
797.76        64.23389
798.18        64.12211
798.59        64.05081
799.00        64.01994
799.41        63.99632
799.82         63.9729
800.23        63.95347
800.64        63.93383
801.06        63.89286
801.47        63.86633
801.88        63.83923
802.29         63.8151
802.70        63.79863
803.11          63.796
803.52        63.81519
803.93        63.85665
804.34        63.91727
804.75        64.00362
805.17         64.0952
805.58        64.20937
805.99        64.39108
806.40        64.60914
806.81        64.66824
807.22        64.61658
807.63         64.7746
808.04        65.12315
808.45        65.32936
808.86        65.35854
809.27        65.40499
809.68        65.45628
810.09        65.39538
810.50        65.22326
810.91        64.98298
811.32        64.72712
811.73        64.53999
812.14        64.44769
812.55         64.4273
812.96        64.45616
813.37        64.48967
813.78        64.50859
814.19        64.53114
814.60        64.54052
815.01        64.50876
815.42        64.43996
815.83        64.33868
816.24        64.26066
816.65         64.3132
817.05        64.51928
817.46        64.80451
817.87        65.12001
818.28        65.35516
818.69        65.48006
819.10        65.52855
819.51        65.50748
819.92        65.43448
820.33        65.33064
820.74        65.18764
821.14        65.06126
821.55        65.05847
821.96        65.18432
822.37        65.42316
822.78        65.68006
823.19        65.78082
823.60        65.67554
824.00        65.41708
824.41        65.08579
824.82        64.89008
825.23        64.88768
825.64        65.03255
826.04        65.23635
826.45         65.3173
826.86        65.24741
827.27        65.08361
827.68        64.92463
828.08        64.96047
828.49        65.16323
828.90        65.50584
829.31        65.90231
829.72        66.12429
830.12        66.12418
830.53        66.33242
830.94        66.04226
831.35         65.8235
831.75        65.50794
832.16        65.08675
832.57        64.71851
832.97        64.66262
833.38        64.95503
833.79        65.51255
834.20        66.11974
834.60         66.4445
835.01        66.41087
835.42        66.11115
835.82        65.71346
836.23        65.47123
836.64        65.48586
837.04        65.68394
837.45         65.9427
837.86        66.12273
838.26        66.18444
838.67        66.17051
839.08        66.12936
839.48        66.11417
839.89        66.14192
840.29        66.19392
840.70        66.27147
841.11        66.38158
841.51        66.53563
841.92        66.69827
842.33        66.87442
842.73         67.0647
843.14        67.21588
843.54        67.35134
843.95        67.44097
844.35        67.46626
844.76        67.42005
845.17        67.31562
845.57        67.20329
845.98        67.13299
846.38        67.14471
846.79        67.19569
847.19         67.2796
847.60          67.302
848.00         67.2759
848.41        67.20171
848.81        67.12776
849.22        67.06671
849.62        67.06602
850.03        67.07105
850.43        67.12727
850.84        67.20287
851.24          67.338
851.65        67.48248
852.05        67.63636
852.46         67.6945
852.86        67.64186
853.27        67.54995
853.67        67.41101
854.07        67.35763
854.48        67.37859
854.88        67.45635
855.29        67.54123
855.69        67.70408
856.10        67.84346
856.50        68.03955
856.90        68.14846
857.31        67.97939
857.71        67.56551
858.12        66.91333
858.52        66.23471
858.92        65.82394
859.33        65.76014
859.73        66.02645
860.13        66.44733
860.54        66.71912
860.94        66.80225
861.34        66.71125
861.75        66.55206
862.15        66.58557
862.55        66.82201
862.96        67.16397
863.36        67.43482
863.76        67.30759
864.17        66.72733
864.57         65.8482
864.97        64.91821
865.38        64.32932
865.78        64.25218
866.18        64.58253
866.58         65.2009
866.99        65.82995
867.39        66.36427
867.79        66.83749
868.19        67.22482
868.60        67.41116
869.00        67.46117
869.40        67.53603
869.80        67.58489
870.21        67.35268
870.61        66.89565
871.01        66.38557
871.41        65.88049
871.81        65.34406
872.22        64.81892
872.62        64.34055
873.02        64.00722
873.42        64.16213
873.82        64.63306
874.22        64.81573
874.63        64.85606
875.03        65.08247
875.43        65.47692
875.83        66.76228
876.23        66.29613
876.63         65.4973
877.03        64.12141
877.44        61.59592
877.84         169.255
878.24        62.04939
878.64        63.13458
879.04        65.20109
879.44        66.34782
879.84        63.71166
880.24        68.69841
880.64        69.00828
881.04        66.79522
881.44        65.01758
881.84        64.22775
882.24        64.49223
882.65        65.34537
883.05        65.63752
883.45        65.11827
883.85         64.5977
884.25        64.25523
884.65        63.96436
885.05        63.78083
885.45        63.67707
885.85        63.65387
886.25        63.75341
886.65        63.95565
887.05        64.24407
887.45        64.50391
887.85         64.5397
888.25        64.31497
888.65         63.8846
889.04        63.41852
889.44        63.21403
889.84        63.33471
890.24        63.67724
890.64        64.08707
891.04        64.33406
891.44        64.36751
891.84        64.28004
892.24        64.12785
892.64        64.00636
893.04        63.95842
893.44        63.93298
893.83        63.99793
894.23        64.23385
894.63        64.64937
895.03        65.23971
895.43        65.82352
895.83        66.08995
896.23         65.9868
896.63         65.5983
897.02         65.1798
897.42        65.18324
897.82         65.6424
898.22        66.39759
898.62        67.15308
899.01        67.43617
899.41        67.10896
899.81        66.36027
900.21        65.40391
900.61        64.59111
901.00        64.05083
901.40        63.75538
901.80        63.70372
902.20        63.74686
902.59        63.82035
902.99        64.23866
903.39        65.01417
903.79        64.51435
904.18        65.28326
904.58        65.24357
904.98        65.15281
905.38        64.95306
905.77        64.66024
906.17        64.30383
906.57        63.93195
906.96         63.7271
907.36        63.72662
907.76        63.91216
908.15        64.21843
908.55        64.38169
908.95         64.3812
909.34        64.22277
909.74        64.05853
910.14        64.08925
910.53        64.35608
910.93        64.79765
911.33        65.18517
911.72        65.16077
912.12        64.67986
912.52        63.85865
912.91        63.02444
913.31        62.77311
913.70        63.19526
914.10        64.11539
914.49        65.15613
914.89        65.59248
915.29        65.26466
915.68        64.37933
916.08        63.35152
916.47        62.78728
916.87        62.88391
917.26        63.45353
917.66        64.20972
918.05        64.71174
918.45        64.81165
918.84        64.66005
919.24        64.45804
919.64        64.58287
920.03        65.10619
920.42        65.84152
920.82        66.52259
921.21        66.76788
921.61        66.51164
922.00        65.96081
922.40        65.36932
922.79        65.00182
923.19        64.59355
923.58        64.92701
923.98        66.33016
924.37        66.28764
924.77        63.37312
925.16        71.39684
925.55        65.33058
925.95        65.84507
926.34        65.82812
926.74        65.12299
927.13        63.72864
927.52         62.8689
927.92        63.05582
928.31        63.60854
928.70        64.35835
929.10        64.98231
929.49        65.40842
929.89        65.77192
930.28        65.96735
930.67        65.70753
931.07        65.01116
931.46        63.85117
931.85        62.72078
932.24        62.91095
932.64        64.58031
933.03        66.71159
933.42        68.26176
933.82        70.90128
934.21        69.38193
934.60        67.85252
934.99        66.14009
935.39        65.54795
935.78        66.22305
936.17         68.4129
936.56         74.8172
936.96        68.22993
937.35        71.82124
937.74        68.49117
938.13        65.97558
938.53        64.01147
938.92        63.39803
939.31        64.60535
939.70         66.2988
940.09        67.12577
940.49        66.78487
940.88        65.73808
941.27        64.51544
941.66        64.09744
942.05        64.77906
942.44        66.11995
942.84         67.4855
943.23        68.10471
943.62        67.78614
944.01        66.78455
944.40         65.5643
944.79         64.9062
945.18         65.0427
945.57        65.73662
945.97        66.52998
946.36        66.81849
946.75        66.40627
947.14        65.51219
947.53        64.52912
947.92        64.11588
948.31        64.44527
948.70        65.26534
949.09        66.20142
949.48        66.69971
949.87        66.61602
950.26        66.14001
950.65        65.48454
951.04        64.98608
951.43        64.77102
951.82         64.7326
952.21        64.81361
952.60        64.93332
952.99        65.03447
953.38        65.13731
953.77        65.23606
954.16        65.29919
954.55        65.32975
954.94        65.36162
955.33         65.3344
955.72        65.15917
956.11        64.85136
956.50        64.43439
956.89        64.16527
957.28        64.44445
957.66        65.33504
958.05        66.60534
958.44        67.85229
958.83        68.47118
959.22        68.31828
959.61         67.5237
960.00        66.40077
960.39         65.5914
960.78        65.34805
961.16         65.5536
961.55        65.84298
961.94        65.78082
962.33        65.27585
962.72        64.47013
963.11        63.66588
963.49        63.46008
963.88        64.00774
964.27        65.04003
964.66        66.13317
965.04        66.74952
965.43        66.71672
965.82        66.24505
966.21        65.52821
966.60        64.91807
966.98        64.57431
967.37        64.39985
967.76        64.38615
968.15        64.51582
968.53        64.77454
968.92         65.1604
969.31        65.60468
969.69        65.95945
970.08        66.14845
970.47        66.18546
970.86        66.12346
971.24        66.08681
971.63        66.10328
972.02        66.15363
972.40        66.21525
972.79        66.16037
973.17        66.02883
973.56        65.87054
973.95        65.77459
974.33        65.89024
974.72        66.21503
975.11        66.62935
975.49        67.12912
975.88        67.63286
976.26        68.16883
976.65        68.72874
977.04        69.08756
977.42         68.8651
977.81        67.98239
978.19        66.44641
978.58        65.05346
978.96        65.21436
979.35        67.10407
979.74        70.06464
980.12        72.88364
980.51        73.92132
980.89        73.09044
981.28        70.74081
981.66        67.59237
982.05        65.50596
982.43        65.31217
982.82        66.54937
983.20         68.5173
983.59        70.09325
983.97        70.94241
984.35        71.34608
984.74         71.3541
985.12         71.1094
985.51        70.68654
985.89        70.10594
986.28        69.38367
986.66        68.63516
987.04        67.95389
987.43        67.24084
987.81        66.50422
988.20        67.28483
988.58        69.73532
988.96        70.88683
989.35        69.74377
989.73         75.7483
990.12        71.99232
990.50        71.46758
990.88        70.05363
991.27        69.13941
991.65        68.94038
992.03        69.46867
992.42        70.47173
992.80        70.87357
993.18        70.42298
993.56        69.46114
993.95        68.42009
994.33        67.95003
994.71        68.25051
995.10        69.06548
995.48         70.1209
995.86        70.97515
996.24        71.46423
996.63        71.65361
997.01        71.73548
997.39        71.81198
997.77         71.8981
998.15        71.88788
998.54         71.8036
998.92        71.59242
999.30        71.29559
999.68        71.03114
1000.06        70.68781
1000.45         70.0125
1000.83        69.14323
1001.21        68.17477
1001.59        67.65716
1001.97        68.35322
1002.35        70.17661
1002.73        72.65279
1003.12        75.03947
1003.50        76.47176
1003.88        76.79948
1004.26         76.2949
1004.64        75.25354
1005.02        74.32465
1005.40        73.83344
1005.78        73.61559
1006.16        73.64714
1006.54        73.83987
1006.92         74.1349
1007.30        74.64725
1007.69        75.19379
1008.07        75.56799
1008.45        75.70303
1008.83        75.59693
1009.21        75.47978
1009.59        75.84471
1009.97         76.7143
1010.35        77.76506
1010.73        78.63902
1011.11        79.17357
1011.49        79.46751
1011.86        79.32421
1012.24         78.5677
1012.62        79.85395
1013.00        80.52357
1013.38        80.40916
1013.76        78.24199
1014.14        81.79749
1014.52        87.24433
1014.90         79.8924
1015.28        80.87144
1015.66        82.52599
1016.04        80.19449
1016.41        81.84332
1016.79        82.43327
1017.17        82.54179
1017.55        81.57536
1017.93        79.90821
1018.31         78.4016
1018.69        78.09005
1019.06        79.25251
1019.44         81.3688
1019.82        83.45959
1020.20        84.23976
1020.58        83.43148
1020.95        81.12902
1021.33        77.87327
1021.71        75.68759
1022.09        75.83786
1022.46        77.48381
1022.84        79.46388
1023.22         80.9343
1023.60        81.87595
1023.97        82.69134
1024.35        83.34611
1024.73        83.64075
