SpectraSmart Spectrum 2.9.0.0
--------- Device Information -----------
Spectrum Name :  反射率_0
Saving Time :  2024/04/21 00:46:27
Spectro-Module Model Name : SE2030-DUVN
Spectro-Module Serial Number : OS361AC55029948
Wavelength Start : 200
Wavelength End : 1025
Wavelength Unit : Wavelength(nm)
Spectrum Unit : Reflectance(%)
-----------Spectrum Setting ------------
Integration Time : 20ms
Average : 10
Boxcar : 0
Background removal :  enabled
linearity correction :  enabled
SC :  disabled
Intensity correction :  disabled
DWT denoise :  enabled
savitzky-golay :  disabled
FFT :  disabled
Running average :  disabled
Kalman :  disabled
High pass :  disabled
---------------BEGIN--------------------
Wavelength(nm)             Reflectance(%)
200.29               0
200.75        24.80258
201.21        37.93645
201.67        42.01559
202.13        41.79856
202.58         38.8504
203.04        33.61949
203.50        26.96905
203.96        22.29249
204.42        21.31206
204.88        22.63344
205.34        24.44539
205.80        23.63628
206.26        19.31173
206.72        13.68889
207.18        5.903041
207.64       -5.526268
208.10       -17.63413
208.55        -29.2625
209.01       -26.69551
209.47       0.7550371
209.93        30.73366
210.39        52.53307
210.85        65.99419
211.31        72.63204
211.77        75.04708
212.23        74.81926
212.69        70.36897
213.14        57.70219
213.60        24.48274
214.06       -91.24363
214.52       -395.3151
214.98       -170.5409
215.44       -14.24049
215.90        40.60646
216.36        58.50418
216.81        58.11504
217.27        40.47734
217.73        -46.0461
218.19        996.2776
218.65        448.4092
219.11       -912.4059
219.57       -16.02194
220.02        41.01641
220.48        51.10898
220.94        45.38884
221.40        22.48524
221.86       -32.71921
222.32       -68.31731
222.77       -18.53631
223.23        24.95844
223.69        46.38803
224.15        52.48014
224.61        50.25283
225.06        43.79139
225.52        35.18745
225.98        27.48731
226.44        22.32726
226.90        17.88842
227.36        16.61626
227.81         22.0935
228.27        30.72917
228.73        39.20984
229.19        44.54937
229.65        45.16235
230.10        41.79878
230.56        35.57093
231.02        27.60723
231.48         22.5105
231.93        23.37874
232.39        28.43031
232.85         33.8527
233.31        36.35954
233.77        36.12295
234.22        34.63358
234.68        32.33625
235.14        30.10332
235.60        28.68903
236.05        27.05371
236.51        25.43699
236.97        29.93758
237.43        40.65176
237.88        48.05554
238.34        48.40831
238.80        67.12554
239.26        57.30616
239.71         52.8757
240.17        41.16045
240.63        28.41161
241.08        19.79597
241.54        19.59913
242.00        29.26401
242.46        37.72705
242.91        42.39935
243.37        45.42836
243.83        48.16518
244.28        53.28791
244.74        60.18512
245.20        65.26589
245.66         65.5924
246.11        58.58892
246.57        44.50604
247.03        24.88215
247.48        1.647645
247.94       -22.47757
248.40       -51.26391
248.85       -109.3782
249.31       -263.0967
249.77       -325.8011
250.22        -70.9149
250.68        18.41925
251.14        42.52375
251.59        45.52485
252.05         38.9384
252.51        23.93639
252.96        1.388337
253.42        -14.6395
253.88       -11.86131
254.33        3.772305
254.79        24.41025
255.25        41.47698
255.70        52.27332
256.16        58.99272
256.62         62.4811
257.07        63.29435
257.53        62.89637
257.99        61.73405
258.44        60.02664
258.90        58.67623
259.35        57.27351
259.81        56.05394
260.27        54.99491
260.72        54.18089
261.18        53.79504
261.63        53.43018
262.09        52.93259
262.55         51.7241
263.00        49.82785
263.46        47.71605
263.91        45.63818
264.37        44.33568
264.83        43.76606
265.28        43.59378
265.74         43.6073
266.19        43.35195
266.65        42.79548
267.11        42.03791
267.56        41.10316
268.02        40.11172
268.47        39.06949
268.93        37.96755
269.38        36.85741
269.84        35.89529
270.30        35.09699
270.75        34.44376
271.21        33.85278
271.66        33.11564
272.12        32.22791
272.57         31.2364
273.03        30.29084
273.48         29.5708
273.94        29.12087
274.39        28.83842
274.85        28.61691
275.31        28.23459
275.76        27.64946
276.22        26.98066
276.67        26.32631
277.13        25.89444
277.58        25.67646
278.04          25.609
278.49        25.56788
278.95        25.46014
279.40        25.21261
279.86        24.89219
280.31        24.48506
280.77        24.04944
281.22        23.58069
281.68        23.13326
282.13        22.68846
282.59        22.29222
283.04        21.93824
283.50        21.64555
283.95        21.45771
284.41        21.46016
284.86         21.6355
285.32        21.95006
285.77        22.27211
286.22        22.42847
286.68        22.40629
287.13        22.22104
287.59        22.02681
288.04        21.95459
288.50        22.01312
288.95        22.28155
289.41        22.70002
289.86        22.68461
290.32        22.14339
290.77        23.08609
291.22        22.29208
291.68        22.54037
292.13        22.89313
292.59        23.40494
293.04        24.05776
293.50        24.89674
293.95         25.9291
294.40        27.12077
294.86        28.39655
295.31        29.62461
295.77        30.77785
296.22        31.87646
296.68        33.02012
297.13        34.36076
297.58        35.94589
298.04        37.73152
298.49        39.63112
298.95        41.52364
299.40         43.3504
299.85        45.15521
300.31        46.97151
300.76        48.82475
301.21         50.7381
301.67        52.71968
302.12        54.75267
302.58        56.92491
303.03        59.21695
303.48         61.6585
303.94        64.21663
304.39        66.77604
304.84        69.30489
305.30        71.82146
305.75        74.30201
306.20        76.83612
306.66        79.42435
307.11        81.96815
307.57        84.42391
308.02        86.64569
308.47        88.64734
308.93        90.51923
309.38        92.28275
309.83        94.05347
310.29        95.89227
310.74        97.71559
311.19        99.52721
311.65        101.3069
312.10        103.0122
312.55        104.6478
313.00        106.1641
313.46        107.4876
313.91        108.5875
314.36        109.4977
314.82        110.2887
315.27        111.0607
315.72        111.8662
316.18         112.697
316.63        113.5315
317.08        114.3281
317.53         115.069
317.99        115.7595
318.44        116.4246
318.89        117.0853
319.35        117.7354
319.80        118.3665
320.25         118.924
320.70        119.3343
321.16        119.5772
321.61        119.6969
322.06        119.7641
322.51        119.9014
322.97        120.1283
323.42        120.4631
323.87        120.8295
324.32        121.1145
324.78        121.2696
325.23        121.3737
325.68        121.4797
326.13        121.7084
326.59        122.0553
327.04        122.5349
327.49         123.039
327.94        123.4309
328.39        123.6726
328.85        123.7744
329.30        123.8698
329.75        124.0278
330.20        124.2852
330.66        124.5672
331.11        124.9402
331.56        125.3534
332.01        125.7926
332.46        126.2722
332.92        126.6958
333.37        127.0625
333.82        127.3113
334.27        127.4669
334.72        127.6238
335.17        127.9471
335.63        128.4413
336.08         129.124
336.53        129.8734
336.98        130.5407
337.43        131.0655
337.88        131.4744
338.34        131.7683
338.79        132.0277
339.24        132.2537
339.69        132.4465
340.14          132.61
340.59        132.7559
341.05        132.9012
341.50        133.0668
341.95        133.3079
342.40        133.7089
342.85        134.2687
343.30        134.9439
343.75        135.6155
344.20        136.1014
344.66         136.363
345.11        136.4265
345.56        136.3837
346.01        136.3899
346.46        136.5033
346.91         136.651
347.36        136.7697
347.81        136.8797
348.26        136.9798
348.72        136.6525
349.17        136.7154
349.62        136.6267
350.07        136.6321
350.52        136.6812
350.97         136.688
351.42        136.5062
351.87        136.1004
352.32        135.5223
352.77        134.8867
353.22         134.363
353.67        133.9868
354.13        133.7288
354.58        133.4481
355.03        132.9752
355.48        132.2827
355.93        131.4405
356.38        130.5833
356.83        129.9111
357.28        129.4471
357.73        129.0959
358.18        128.7303
358.63         128.157
359.08        127.3265
359.53        126.3202
359.98        125.1881
360.43         123.996
360.88         122.787
361.33        121.5504
361.78        120.3614
362.23        119.3423
362.68         118.513
363.13        117.8456
363.58        117.2289
364.03        116.4744
364.48         115.531
364.93        114.4431
365.38        113.2977
365.83        112.2474
366.28        111.3326
366.73        110.4977
367.18        109.6862
367.63        108.8121
368.08        107.8563
368.53        106.8684
368.98        105.8608
369.43         104.831
369.88        103.7827
370.33        102.7046
370.78        101.6472
371.23        100.7231
371.68        99.96169
372.13        99.32996
372.58        98.75171
373.03         98.0868
373.48        97.28838
373.93         96.3977
374.38        95.44215
374.83         94.4854
375.28        93.57437
375.72        92.68288
376.17        91.88227
376.62        91.19077
377.07        90.59238
377.52        90.05949
377.97        89.52271
378.42        88.96359
378.87        88.39258
379.32        87.68636
379.77        86.84358
380.22        86.59803
380.67        85.73353
381.11        85.20309
381.56        84.64402
382.01         84.1091
382.46        83.60637
382.91        83.15736
383.36         82.7414
383.81        82.28705
384.26        81.78239
384.71        81.23781
385.15        80.69379
385.60        80.28136
386.05         79.9914
386.50        79.79066
386.95        79.58807
387.40        79.24911
387.85         78.7638
388.29        78.14388
388.74        77.58772
389.19        77.16499
389.64        76.88215
390.09        76.68179
390.54        76.50391
390.98        76.24234
391.43          75.915
391.88        75.55223
392.33        75.17249
392.78        74.79436
393.23        74.43324
393.67        74.05367
394.12        73.75848
394.57        73.51091
395.02        73.30784
395.47        73.15952
395.91        73.04919
396.36        72.89401
396.81        72.70283
397.26        72.53797
397.71        72.36565
398.15        72.11057
398.60        71.85146
399.05        71.46242
399.50        71.08466
399.95        71.05276
400.39         71.2856
400.84        71.43022
401.29        71.35828
401.74        70.80392
402.18        69.97244
402.63        69.71162
403.08        69.96816
403.53        69.83973
403.97        69.29848
404.42         68.9381
404.87        68.81124
405.32        68.75713
405.76        68.76749
406.21        68.84885
406.66        68.92139
407.11        68.96954
407.55        68.93749
408.00        68.58054
408.45         68.0219
408.90        67.66734
409.34        67.58843
409.79        67.64679
410.24        67.75932
410.68        67.83535
411.13          67.839
411.58        67.81143
412.03        67.76343
412.47        67.71391
412.92        67.64742
413.37        67.57063
413.81        67.48136
414.26        67.43252
414.71        67.41165
415.15        67.42811
415.60        67.43782
416.05        67.42171
416.49        67.37259
416.94        67.28693
417.39        67.18401
417.83        67.08219
418.28        66.99383
418.73        66.91969
419.17        66.83983
419.62        66.73348
420.07        66.59924
420.51        66.43623
420.96        66.32296
421.41         66.3147
421.85        66.38621
422.30         66.5869
422.74        66.79359
423.19        66.86177
423.64        66.78358
424.08        66.77782
424.53         66.8202
424.98        66.84183
425.42        66.86842
425.87        66.90839
426.31        66.97739
426.76        67.14755
427.21        67.37301
427.65        67.46739
428.10        67.39706
428.54        67.35575
428.99        67.38596
429.44        67.36029
429.88        67.28088
430.33        67.26526
430.77        67.26617
431.22        67.40517
431.66        67.60291
432.11        67.66913
432.56        67.61774
433.00        67.46632
433.45        67.19501
433.89        67.14846
434.34         67.5881
434.78        67.06342
435.23        67.61162
435.67        67.43543
436.12        68.11308
436.57        68.14095
437.01        67.94629
437.46        67.73936
437.90        68.27621
438.35        68.21848
438.79        68.44755
439.24        68.45532
439.68        68.46883
440.13        68.42976
440.57        68.33727
441.02         68.4164
441.46        68.59917
441.91        68.38884
442.35        67.92152
442.80        68.35126
443.24        69.47599
443.69        69.75519
444.13        69.04854
444.58        69.33157
445.02        69.01998
445.47        68.79179
445.91         69.0074
446.36        68.91847
446.80        68.78075
447.24        68.67239
447.69        68.66417
448.13         68.9127
448.58        69.15072
449.02        69.21555
449.47         69.0743
449.91        69.04984
450.36        69.17094
450.80        69.16308
451.25        69.04695
451.69        69.03518
452.13        69.07899
452.58        68.83674
453.02        68.39622
453.47        68.19874
453.91        68.27217
454.36         68.4178
454.80        68.51939
455.24        68.53926
455.69        68.47558
456.13        68.15058
456.58        67.72092
457.02        67.85447
457.46        68.06628
457.91        67.95391
458.35        67.55813
458.79        67.35007
459.24        67.38963
459.68        67.34514
460.13         67.2524
460.57        67.09898
461.01        66.88697
461.46        66.79778
461.90        66.87076
462.34        66.31103
462.79        66.50296
463.23        66.51697
463.68        66.67319
464.12        66.50583
464.56        66.08842
465.01        66.14226
465.45        66.49147
465.89        66.37285
466.34         65.8852
466.78        65.80579
467.22        66.14863
467.67        65.91388
468.11        65.73723
468.55        65.51762
468.99        65.46742
469.44        65.35612
469.88        65.19163
470.32         65.0625
470.77        64.96166
471.21        64.85661
471.65        64.74284
472.10         64.6337
472.54        64.53302
472.98        64.46534
473.42        64.45012
473.87        64.46915
474.31        64.44193
474.75        64.45098
475.20        64.55681
475.64        64.13065
476.08        64.51342
476.52         64.4635
476.97        64.36077
477.41         64.3131
477.85        64.31274
478.29        64.24274
478.74        63.97212
479.18        64.07835
479.62        64.15583
480.06         64.2419
480.50         64.2536
480.95        64.22558
481.39        64.08448
481.83        64.32457
482.27        64.48515
482.72        63.94089
483.16        64.17773
483.60        64.29116
484.04        64.17704
484.48        64.03471
484.93        64.27733
485.37         64.2897
485.81        64.20721
486.25        63.62901
486.69        65.38379
487.14        65.63129
487.58         64.6538
488.02        63.88291
488.46        64.30744
488.90        63.95108
489.34        63.96359
489.79        63.32067
490.23        63.83083
490.67        63.95293
491.11        64.07006
491.55        63.98566
491.99        63.74536
492.43        63.62262
492.88        63.62315
493.32        63.61002
493.76        63.53959
494.20        63.52261
494.64        63.57994
495.08        63.38488
495.52        63.44966
495.96        63.50667
496.41        63.62449
496.85        63.57981
497.29        63.37038
497.73        63.33784
498.17        63.16235
498.61        63.30626
499.05        63.55205
499.49        63.25304
499.93        62.61483
500.37        62.66801
500.82        63.31458
501.26        63.65403
501.70        63.57729
502.14        63.17434
502.58        63.07023
503.02        62.77924
503.46        62.81528
503.90        62.79431
504.34        62.78704
504.78        62.82368
505.22        62.91306
505.66        62.95462
506.10        62.92349
506.54        63.02281
506.98        63.29079
507.42        62.66405
507.86        63.24257
508.30        62.75964
508.74        62.90934
509.18        62.76114
509.62        62.65972
510.06        62.61162
510.50         62.5911
510.94        62.53352
511.38        62.42782
511.82        62.35469
512.26        62.31483
512.70        62.26159
513.14        62.21079
513.58        62.20794
514.02        62.25589
514.46        62.34193
514.90        62.42019
515.34        62.45348
515.78        62.43316
516.22        62.34401
516.66         62.0796
517.10          62.297
517.54        62.15467
517.98        62.29903
518.42        62.42085
518.86        62.45176
519.30        62.37253
519.74        62.17873
520.18        61.97105
520.62        61.98025
521.06        62.18564
521.50        62.31913
521.93        62.33135
522.37        62.34266
522.81        62.34031
523.25        62.23306
523.69        62.05977
524.13        61.93779
524.57        61.88924
525.01        61.87889
525.45        61.89786
525.89        61.93292
526.32        61.97099
526.76        62.02257
527.20        62.07151
527.64        62.09128
528.08        62.07643
528.52        62.03558
528.96        61.98285
529.40        61.93479
529.83        61.89827
530.27        61.90124
530.71        61.92588
531.15        61.94142
531.59        61.94144
532.03         61.9341
532.46        61.92865
532.90        61.95314
533.34        62.00285
533.78        62.06893
534.22        62.11267
534.66        62.07634
535.09        61.94646
535.53        61.76664
535.97        61.58118
536.41        61.47672
536.85        61.47488
537.28        61.54767
537.72        61.64405
538.16        61.71679
538.60        61.74862
539.04        61.69276
539.47        61.54494
539.91        61.68217
540.35        61.56758
540.79        61.61466
541.22        61.64523
541.66        61.65438
542.10        61.63237
542.54        61.59695
542.97        61.56801
543.41        61.59274
543.85        61.66961
544.29        61.78525
544.72        61.90191
545.16        62.00109
545.60        62.05808
546.04        62.06002
546.47        62.02837
546.91        62.03294
547.35        62.05654
547.79        62.03961
548.22         61.9589
548.66        61.81653
549.10        61.66901
549.53        61.66433
549.97        61.78566
550.41         61.8283
550.84        61.78536
551.28         61.7424
551.72         61.6946
552.15         61.7036
552.59        61.81096
553.03        61.51109
553.46         61.6777
553.90         61.6086
554.34        61.55326
554.77         61.5062
555.21        61.51361
555.65        61.51126
556.08        61.64465
556.52        61.78927
556.96        61.93268
557.39        62.00536
557.83        61.99994
558.27        61.88825
558.70        61.72164
559.14        61.62239
559.57         61.5973
560.01        61.67196
560.45        61.77685
560.88        61.71781
561.32        61.56601
561.75        61.51021
562.19        61.59237
562.63        61.64661
563.06        61.64491
563.50        61.65913
563.93        61.65854
564.37        61.57146
564.80        61.42912
565.24        61.47456
565.68         61.6661
566.11        61.74607
566.55        61.72205
566.98        61.71905
567.42        61.74299
567.85        61.75354
568.29         61.8096
568.72        61.76188
569.16        61.62655
569.60        62.05211
570.03        61.89545
570.47        62.05914
570.90        62.14687
571.34        62.28074
571.77        62.44421
572.21        62.32812
572.64        62.50246
573.08         62.3488
573.51          62.341
573.95         62.6843
574.38        62.50079
574.82        62.91213
575.25        62.83975
575.69        62.95974
576.12        62.46426
576.56        62.68376
576.99        62.54931
577.42        62.63451
577.86        62.79049
578.29        63.24587
578.73         63.4638
579.16        62.88318
579.60        62.39908
580.03        62.69875
580.47        62.51811
580.90        62.84934
581.33        62.49518
581.77        63.18618
582.20        63.38128
582.64        63.91949
583.07         63.2633
583.51        62.82811
583.94        62.43095
584.37        62.10493
584.81        62.15792
585.24        62.35186
585.68        62.96928
586.11        62.97637
586.54         62.8303
586.98        62.46201
587.41        62.31516
587.85        62.64682
588.28        62.78566
588.71        62.84756
589.15        62.60392
589.58         62.4022
590.01        62.03698
590.45        61.82614
590.88        62.23067
591.31        62.07352
591.75        62.15807
592.18        62.13184
592.61        62.23836
593.05        62.33017
593.48        62.57436
593.91        62.76384
594.35        62.57178
594.78        62.59542
595.21        62.00146
595.65        62.05468
596.08        62.42792
596.51        62.57514
596.94        62.32104
597.38        62.20391
597.81        62.24464
598.24        62.36758
598.68        62.09027
599.11        62.38649
599.54        62.28027
599.97        62.43909
600.41        62.43504
600.84         62.4959
601.27         62.3987
601.70        62.46672
602.14        62.13223
602.57         61.9734
603.00        61.81894
603.43        62.43082
603.87        62.78218
604.30         62.7192
604.73        62.41804
605.16        62.44358
605.60        62.17316
606.03        62.15659
606.46        62.21389
606.89        62.05818
607.32        61.97186
607.76        62.58445
608.19        62.49565
608.62         62.1722
609.05        62.86924
609.48        62.37458
609.92        62.37138
610.35        62.38958
610.78        62.26646
611.21        61.91843
611.64        62.08507
612.07        62.06804
612.50        62.10461
612.94        62.12946
613.37        62.16191
613.80        62.22743
614.23        62.28706
614.66        62.20423
615.09        62.02024
615.52        61.96509
615.96         62.0375
616.39        62.04054
616.82        61.96933
617.25        61.92296
617.68        62.01864
618.11         61.8769
618.54        61.75894
618.97        61.68324
619.40        61.67205
619.84        61.77895
620.27        61.57024
620.70        61.57565
621.13        61.65062
621.56        61.72098
621.99         61.7832
622.42        61.83914
622.85        61.82964
623.28        61.92946
623.71        61.74332
624.14        61.80453
624.57          61.712
625.00        62.14418
625.43        61.57264
625.86        61.59354
626.29        61.81008
626.72        61.50785
627.15        61.56168
627.58        61.50615
628.01        61.69072
628.44        61.39802
628.87        61.34296
629.30        61.93716
629.73        61.67638
630.16        61.66084
630.59        61.46331
631.02        61.63996
631.45         61.3483
631.88        61.34075
632.31        61.38927
632.74        61.32701
633.17        61.48212
633.60        61.49246
634.03        61.45171
634.46        61.45708
634.89        61.41649
635.32        61.33066
635.75        61.21384
636.18        61.26876
636.61         61.4455
637.04        61.48816
637.47        61.37887
637.89        61.26238
638.32        61.17207
638.75        61.13004
639.18        61.15297
639.61         61.2316
640.04        61.33782
640.47        61.42728
640.90        61.48244
641.33        61.51087
641.76        61.51825
642.18        61.52243
642.61        61.51527
643.04        61.49919
643.47        61.47081
643.90        61.43353
644.33        61.38825
644.76        61.32144
645.18        61.25523
645.61        61.24177
646.04        61.27835
646.47        61.30887
646.90        61.30427
647.33        61.28598
647.75        61.24105
648.18        61.10936
648.61        60.98319
649.04        61.05522
649.47        61.25035
649.89        61.64446
650.32        61.50637
650.75        61.43169
651.18        61.26959
651.61        61.14778
652.03        61.09723
652.46        61.05623
652.89        60.98523
653.32        61.04225
653.74        61.19805
654.17        61.25275
654.60        61.46649
655.03         61.2538
655.46        60.75384
655.88        61.54407
656.31        63.00393
656.74        66.72779
657.16        65.70257
657.59         64.3207
658.02        62.10644
658.45        61.29927
658.87        61.72376
659.30         61.2929
659.73        61.35545
660.15        60.99714
660.58        61.25278
661.01        61.61974
661.44        62.06145
661.86        61.96624
662.29        61.39532
662.72        61.03276
663.14         61.0041
663.57        61.12161
664.00        61.31161
664.42        61.42878
664.85        61.44957
665.27        61.37968
665.70        61.43967
666.13        61.44514
666.55        61.46479
666.98        61.49033
667.41        61.50391
667.83         61.4868
668.26        61.44483
668.69        61.33285
669.11        61.16903
669.54        61.18761
669.96        61.44484
670.39        61.08768
670.82        61.54655
671.24        61.49259
671.67         61.3672
672.09        61.33258
672.52        61.41186
672.94        61.37052
673.37        61.23351
673.80        61.22724
674.22        61.34302
674.65        61.36797
675.07         61.3075
675.50         61.2496
675.92        61.21849
676.35        61.19632
676.77        61.18793
677.20        61.21478
677.62        61.28523
678.05        61.31744
678.47        61.29123
678.90        61.51633
679.32        61.51009
679.75        61.55616
680.17         61.7136
680.60         61.8109
681.02         61.8923
681.45        61.92237
681.87        61.90524
682.30         61.8512
682.72        61.77315
683.15         61.6641
683.57        61.53976
684.00        61.52223
684.42        61.27028
684.85        61.45825
685.27        61.40242
685.70        61.56472
686.12        61.71135
686.54        61.79027
686.97         61.7736
687.39        61.71167
687.82        61.64882
688.24        61.61625
688.66        61.61145
689.09        61.86596
689.51        61.88076
689.94        62.00895
690.36        62.08158
690.78        62.08128
691.21        62.03125
691.63        61.95181
692.06        61.90596
692.48        62.00148
692.90        62.18732
693.33         62.2626
693.75        62.21063
694.17         62.0792
694.60        61.91492
695.02        61.95441
695.44        61.92422
695.87        61.95573
696.29        61.96156
696.71        61.77517
697.14        61.49805
697.56         61.7138
697.98        62.31946
698.41        62.38258
698.83        62.39387
699.25        62.26876
699.68        62.21075
700.10        62.14539
700.52        62.09467
700.94        62.06866
701.37        62.04689
701.79        62.05433
702.21        62.06909
702.64        62.09746
703.06        62.12032
703.48        62.11404
703.90        62.07925
704.33        62.01838
704.75        61.95914
705.17        61.92904
705.59         61.9375
706.01         61.9731
706.44        62.03341
706.86        62.12719
707.28        62.23373
707.70        62.35955
708.12        62.48356
708.55        62.53925
708.97         62.5235
709.39        62.51093
709.81         62.5077
710.23        62.47858
710.66        62.43392
711.08        62.41892
711.50        62.41854
711.92        62.40729
712.34        62.38491
712.76        62.35841
713.19        62.34143
713.61        62.40043
714.03        62.51637
714.45        62.68243
714.87        62.85581
715.29        62.93044
715.71        62.88159
716.13         62.8961
716.56        62.70555
716.98        62.66002
717.40        62.67944
717.82        62.75026
718.24        62.83035
718.66        62.85503
719.08        62.81178
719.50        62.72155
719.92        62.62823
720.34        62.59595
720.76        62.64014
721.19        62.73318
721.61        62.85035
722.03        62.92286
722.45        62.93446
722.87        62.90512
723.29        62.87458
723.71        62.90681
724.13        63.01733
724.55         63.1823
724.97        63.36252
725.39        63.49674
725.81        63.56403
726.23        63.57751
726.65        63.56359
727.07        63.56912
727.49        63.60869
727.91        63.65979
728.33        63.69759
728.75         63.7161
729.17        63.69583
729.59        63.57729
730.01        63.42735
730.43        63.41848
730.85        63.56817
731.27        63.78608
731.69        64.00375
732.10         64.0742
732.52        64.16537
732.94        63.92926
733.36        63.52885
733.78        63.30056
734.20        63.30468
734.62        63.36707
735.04        63.44562
735.46        63.55684
735.88         63.6465
736.30        63.75958
736.72        63.84756
737.13        63.88917
737.55        63.84806
737.97        63.65087
738.39        63.40879
738.81        63.52885
739.23         63.9476
739.65        64.08395
740.06         63.8791
740.48        63.84208
740.90        63.94734
741.32        63.82808
741.74        63.69254
742.16        63.64441
742.57         63.7712
742.99         63.9754
743.41        64.19299
743.83        64.30192
744.25        64.26968
744.67        64.13754
745.08        63.98556
745.50        63.89962
745.92        63.92759
746.34        64.04617
746.75         64.1937
747.17        64.26673
747.59          64.241
748.01        64.11369
748.42        63.97481
748.84           63.99
749.26        64.14755
749.68        64.35654
750.09        64.52116
750.51         64.3974
750.93         64.0836
751.35        64.07936
751.76        64.36228
752.18        64.45871
752.60        64.35042
753.01        64.33801
753.43         64.3987
753.85        64.39083
754.27        64.30534
754.68        64.21206
755.10        64.13229
755.52        64.00088
755.93        63.86918
756.35        63.91066
756.77        64.08105
757.18        64.18021
757.60        64.18279
758.02        64.14192
758.43        64.13549
758.85        64.26044
759.26        64.55086
759.68        64.89278
760.10        64.48406
760.51        64.12615
760.93        64.48844
761.34        64.14494
761.76        64.70464
762.18        64.71947
762.59         64.5801
763.01        64.71667
763.42        64.30094
763.84        64.46602
764.26        64.59049
764.67        64.80206
765.09        64.95944
765.50         65.2512
765.92        65.57408
766.33        65.40547
766.75        64.83984
767.16        64.60069
767.58        64.70259
768.00        64.94221
768.41         65.2176
768.83        65.00964
769.24        64.41355
769.66        64.71684
770.07        64.94301
770.49        65.02285
770.90        64.70625
771.32        64.57549
771.73        64.66708
772.15        64.69674
772.56        64.68404
772.97        64.75195
773.39        64.85234
773.80        64.92441
774.22        64.92229
774.63        64.88261
775.05        64.82033
775.46        64.81303
775.88        64.85566
776.29        64.95166
776.70        65.03892
777.12        65.03175
777.53        64.93516
777.95        64.77277
778.36        64.61886
778.77        64.58585
779.19        64.69898
779.60        64.92175
780.02        65.18786
780.43        65.43198
780.84         65.6262
781.26        65.70697
781.67        65.71454
782.09        65.82517
782.50        65.96001
782.91        65.75816
783.33         65.3023
783.74        65.14071
784.15        65.29404
784.57        65.56657
784.98        65.84742
785.39        65.88512
785.81         65.7085
786.22        65.67487
786.63        65.80289
787.04        65.84476
787.46        65.81281
787.87        65.83438
788.28        65.92075
788.70        65.96676
789.11        65.93788
789.52        65.97514
789.93        66.04008
790.35        65.82731
790.76        65.45882
791.17        65.48026
791.58        65.84232
792.00        65.98471
792.41        65.90342
792.82        65.88165
793.23        66.00394
793.65        66.23338
794.06        66.54585
794.47        66.93357
794.88        67.34174
795.29        67.18385
795.71         67.4614
796.12        67.34061
796.53        67.15351
796.94         66.9853
797.35        66.87769
797.76        66.80853
798.18        66.75893
798.59         66.7058
799.00        66.63928
799.41        66.59087
799.82        66.56027
800.23        66.53584
800.64        66.51527
801.06        66.47146
801.47        66.45877
801.88        66.49271
802.29        66.57741
802.70         66.7099
803.11        66.83961
803.52        66.87992
803.93        66.81387
804.34        66.66312
804.75        66.51962
805.17        66.51447
805.58        66.69833
805.99        67.04118
806.40         67.4295
806.81        67.59038
807.22        67.50777
807.63        67.41843
808.04        67.38402
808.45        67.35004
808.86         67.3399
809.27        67.40536
809.68        67.53214
810.09        67.64511
810.50        67.72449
810.91        67.81036
811.32        67.84992
811.73        67.75081
812.14        67.50777
812.55        67.13745
812.96        66.78085
813.37        66.68343
813.78        66.89404
814.19        67.33732
814.60        67.81979
815.01        68.04048
815.42         67.9282
815.83        67.56153
816.24        67.09962
816.65        66.84765
817.05        66.91553
817.46        67.18285
817.87        67.53607
818.28        67.76251
818.69        67.80447
819.10        67.73016
819.51        67.62012
819.92         67.6078
820.33        67.73113
820.74        67.92877
821.14        68.12912
821.55        68.25401
821.96         68.2682
822.37         68.2043
822.78        68.09406
823.19        67.98996
823.60         67.9141
824.00        67.86317
824.41        67.80186
824.82        67.74033
825.23        67.67973
825.64        67.64087
826.04        67.62938
826.45        67.60778
826.86         67.5863
827.27         67.5672
827.68        67.58825
828.08        67.73833
828.49        67.95397
828.90         68.2499
829.31        68.56316
829.72        68.70779
830.12        68.65382
830.53        68.77449
830.94        68.45147
831.35        68.27309
831.75        68.09615
832.16        67.91053
832.57        67.77359
832.97        67.76787
833.38        67.89845
833.79        68.13036
834.20        68.42015
834.60        68.70042
835.01        68.93919
835.42        69.14706
835.82        69.29195
836.23        69.27852
836.64        69.11523
837.04        68.83509
837.45        68.51254
837.86         68.3331
838.26        68.34893
838.67        68.50246
839.08        68.70778
839.48        68.80081
839.89        68.73397
840.29         68.5695
840.70        68.38306
841.11        68.29706
841.51        68.36501
841.92        68.50633
842.33          68.702
842.73        68.92142
843.14        69.09411
843.54        69.25993
843.95        69.38365
844.35        69.43276
844.76        69.39846
845.17        69.29433
845.57        69.18133
845.98        69.12996
846.38        69.18886
846.79         69.3135
847.19        69.49522
847.60        69.63221
848.00        69.73611
848.41        69.80711
848.81        69.89495
849.22        70.00865
849.62        70.18691
850.03        70.35893
850.43        70.55723
850.84        70.73947
851.24        70.93749
851.65         71.0899
852.05          71.189
852.46        71.11512
852.86        70.86819
853.27        70.55436
853.67        70.17722
854.07        69.87335
854.48        69.63822
854.88        69.45948
855.29        69.34134
855.69        69.45607
856.10        69.72353
856.50        70.19723
856.90        70.63875
857.31        70.69656
857.71        70.35329
858.12        69.63895
858.52        68.83268
858.92        68.35408
859.33        68.31645
859.73        68.65839
860.13        69.15373
860.54        69.41646
860.94        69.39134
861.34        69.14324
861.75         68.8029
862.15        68.66613
862.55        68.76582
862.96        68.98629
863.36         69.1996
863.76        69.15895
864.17        68.80653
864.57        68.26871
864.97        67.66934
865.38        67.18875
865.78        66.94903
866.18        66.90203
866.58        67.05419
866.99        67.37775
867.39        67.85181
867.79        68.42509
868.19          69.002
868.60        69.37196
869.00        69.56876
869.40        69.79735
869.80        69.96313
870.21        69.73372
870.61        69.16294
871.01        68.42329
871.41         67.7218
871.81        67.26073
872.22        67.10965
872.62        67.23209
873.02        67.53896
873.42        68.00127
873.82        68.36518
874.22        68.20831
874.63        67.79152
875.03        67.64257
875.43        67.84165
875.83        68.99488
876.23        68.63535
876.63        68.09728
877.03        67.13405
877.44         65.2348
877.84        161.9978
878.24        66.17933
878.64        67.02395
879.04        68.55112
879.44        69.14439
879.84         66.2388
880.24        70.50658
880.64           70.47
881.04        68.09718
881.44        66.26403
881.84        65.53908
882.24        65.99371
882.65        67.08837
883.05         67.5902
883.45         67.2245
883.85        66.76427
884.25        66.43845
884.65        66.24371
885.05        66.25011
885.45        66.38821
885.85        66.56334
886.25        66.68035
886.65        66.70541
887.05        66.67505
887.45        66.60642
887.85        66.51814
888.25        66.43278
888.65        66.35159
889.04         66.3058
889.44        66.35441
889.84        66.49659
890.24        66.69324
890.64        66.91471
891.04        67.12605
891.44        67.30199
891.84        67.44431
892.24        67.49825
892.64        67.37386
893.04        67.07952
893.44         66.6813
893.83        66.29887
894.23        66.07646
894.63        66.07343
895.03        66.25752
895.43        66.60956
895.83        67.08016
896.23        67.60958
896.63        68.16183
897.02        68.65483
897.42        69.04562
897.82        69.29124
898.22        69.40282
898.62        69.37028
899.01        69.20412
899.41        68.90652
899.81        68.50213
900.21        68.08136
900.61        67.78225
901.00        67.63202
901.40        67.68018
901.80        67.83286
902.20        67.80943
902.59        67.54671
902.99        67.33976
903.39        67.43543
903.79        66.69894
904.18        67.59455
904.58        68.07848
904.98        68.58507
905.38        68.62666
905.77        68.13609
906.17        67.28884
906.57        66.39108
906.96        66.03846
907.36        66.36741
907.76        67.21077
908.15         68.2797
908.55        68.93855
908.95        69.04291
909.34        68.70722
909.74        68.20859
910.14        67.95264
910.53        68.05274
910.93        68.37985
911.33        68.67228
911.72        68.52752
912.12        67.89129
912.52        66.92406
912.91        65.95953
913.31        65.58512
913.70        65.89643
914.10        66.71416
914.49        67.69168
914.89        68.15512
915.29        67.95382
915.68        67.27987
916.08        66.48976
916.47        66.10063
916.87        66.28274
917.26        66.85214
917.66        67.57937
918.05        68.12695
918.45        68.35398
918.84        68.36592
919.24        68.26501
919.64        68.27049
920.03        68.43668
920.42        68.66641
920.82        68.80202
921.21        68.62105
921.61         68.1301
922.00        67.51411
922.40        67.04018
922.79        66.98761
923.19        67.08257
923.58        68.00737
923.98        69.93752
924.37        70.49083
924.77        68.44554
925.16        75.65065
925.55        70.67547
925.95        71.09048
926.34        70.87112
926.74        69.90501
927.13        68.28126
927.52        67.24461
927.92        67.32215
928.31        67.87518
928.70        68.68655
929.10        69.35434
929.49        69.77854
929.89        70.10491
930.28        70.23354
930.67        69.88592
931.07        69.08007
931.46        67.78572
931.85        66.48538
932.24        66.42575
932.64        67.77579
933.03        69.60639
933.42        70.92587
933.82        73.20609
934.21        71.61492
934.60        69.99288
934.99        68.21706
935.39        67.55862
935.78        68.17184
936.17        70.26065
936.56        76.35943
936.96        70.34564
937.35        73.91506
937.74        71.14484
938.13        69.14924
938.53        67.50076
938.92        66.85567
939.31        67.65859
939.70        68.90775
940.09        69.65011
940.49        69.64217
940.88        69.25559
941.27        68.73625
941.66        68.50953
942.05         68.7349
942.44        69.19982
942.84        69.66918
943.23        69.92902
943.62        69.89863
944.01        69.64198
944.40        69.36037
944.79        69.37333
945.18        69.74726
945.57        70.39011
945.97        70.95294
946.36        71.00423
946.75        70.42009
947.14        69.34061
947.53        68.20348
947.92        67.76316
948.31        68.20182
948.70         69.2712
949.09        70.47151
949.48        71.03197
949.87        70.77374
950.26        69.94598
950.65        68.91579
951.04        68.28529
951.43        68.24137
951.82         68.5844
952.21         69.1128
952.60        69.49013
952.99        69.58313
953.38        69.51456
953.77        69.35012
954.16        69.15701
954.55        68.97797
954.94        68.79436
955.33         68.6151
955.72        68.48775
956.11        68.43096
956.50        68.42442
956.89        68.53449
957.28        68.84333
957.66        69.37045
958.05        70.02584
958.44        70.59997
958.83        70.77029
959.22        70.47974
959.61        69.77324
960.00        68.96927
960.39        68.68788
960.78        69.08494
961.16        69.98486
961.55        70.85722
961.94         71.0667
962.33          70.493
962.72         69.2952
963.11        67.87362
963.49        67.08167
963.88        67.21011
964.27        67.99004
964.66        68.92626
965.04        69.33004
965.43        69.00902
965.82        68.24438
966.21        67.34806
966.60        66.86648
966.98        66.97188
967.37         67.4278
967.76        68.07212
968.15        68.65366
968.53        69.07503
968.92        69.41927
969.31        69.56775
969.69        69.30856
970.08        68.60905
970.47        67.49474
970.86        66.37745
971.24        65.99078
971.63        66.46713
972.02        67.60676
972.40        68.83762
972.79        69.20276
973.17        68.57941
973.56        67.24852
973.95        65.78202
974.33        65.20971
974.72        65.81618
975.11        67.21947
975.49        69.00957
975.88         70.4364
976.26        71.30253
976.65        71.77975
977.04        71.89733
977.42        71.65461
977.81        71.07554
978.19        70.06211
978.58        69.16239
978.96         69.3381
979.35        70.69663
979.74        72.83531
980.12        74.91702
980.51        75.73536
980.89        75.25262
981.28        73.67842
981.66        71.55183
982.05        70.24927
982.43        70.33311
982.82        71.44521
983.20        72.94765
983.59          73.818
983.97        73.81955
984.35        73.23255
984.74        72.31601
985.12        71.60505
985.51        71.27392
985.89        71.22257
986.28        71.27009
986.66        71.23492
987.04        71.11096
987.43        70.87814
987.81        70.50517
988.20        71.27024
988.58        73.31831
988.96        74.05399
989.35        72.68096
989.73        77.97149
990.12        74.64529
990.50        74.44753
990.88        73.53037
991.27        72.92496
991.65        72.74476
992.03        73.03664
992.42        73.66696
992.80        73.86515
993.18        73.46517
993.56        72.74105
993.95        71.96588
994.33        71.53567
994.71        71.60163
995.10        71.99837
995.48        72.66975
995.86        73.52639
996.24         74.4476
996.63         75.3269
997.01        76.11566
997.39        76.53358
997.77        76.51875
998.15        76.15936
998.54        75.54649
998.92        74.73132
999.30        73.82362
999.68        72.84013
1000.06        72.00566
1000.45        71.71018
1000.83        72.16529
1001.21        73.22173
1001.59        74.54616
1001.97        75.61723
1002.35         76.2639
1002.73         76.5768
1003.12        76.67728
1003.50        76.79751
1003.88        76.99629
1004.26        77.23328
1004.64         77.4218
1005.02        77.40646
1005.40        77.12737
1005.78        76.60824
1006.16        76.08228
1006.54         75.9003
1006.92        76.13886
1007.30        76.75338
1007.69        77.30083
1008.07        77.21147
1008.45         76.3652
1008.83        74.89189
1009.21        73.44238
1009.59        73.36874
1009.97        74.88639
1010.35        77.24112
1010.73        79.49911
1011.11        80.90376
1011.49        81.47395
1011.86        81.23748
1012.24        80.11393
1012.62        80.86314
1013.00         81.1838
1013.38        80.75661
1013.76        78.37277
1014.14        81.88332
1014.52        87.42023
1014.90        80.62132
1015.28        82.00632
1015.66        83.50385
1016.04        80.54575
1016.41        80.88061
1016.79        80.18746
1017.17        79.98415
1017.55        79.79019
1017.93        79.77926
1018.31        80.14722
1018.69        80.69928
1019.06        81.41357
1019.44        82.24474
1019.82        82.86813
1020.20         82.8113
1020.58        81.97768
1020.95        80.23793
1021.33        78.09929
1021.71        77.09757
1022.09        78.00253
1022.46        80.13737
1022.84        82.24375
1023.22        83.40006
1023.60        83.65809
1023.97        83.30769
1024.35        82.81364
1024.73         83.0526
