SpectraSmart Spectrum 2.9.0.0
--------- Device Information -----------
Spectrum Name :  反射率_0
Saving Time :  2024/04/21 00:41:06
Spectro-Module Model Name : SE2030-DUVN
Spectro-Module Serial Number : OS361AC55029948
Wavelength Start : 200
Wavelength End : 1025
Wavelength Unit : Wavelength(nm)
Spectrum Unit : Reflectance(%)
-----------Spectrum Setting ------------
Integration Time : 20ms
Average : 10
Boxcar : 0
Background removal :  enabled
linearity correction :  enabled
SC :  disabled
Intensity correction :  disabled
DWT denoise :  enabled
savitzky-golay :  disabled
FFT :  disabled
Running average :  disabled
Kalman :  disabled
High pass :  disabled
---------------BEGIN--------------------
Wavelength(nm)             Reflectance(%)
200.29               0
200.75       -33.35999
201.21        3.568383
201.67        24.08492
202.13        32.37135
202.58        33.51482
203.04         31.3936
203.50        25.99743
203.96        17.68284
204.42        8.182824
204.88       -2.766582
205.34       -12.21978
205.80       -17.03829
206.26       -16.36183
206.72       -6.706911
207.18        7.163798
207.64        10.50995
208.10       -2.163057
208.55       -27.40051
209.01       -43.77591
209.47        -25.3737
209.93        5.085626
210.39        29.84361
210.85        45.17894
211.31        50.52993
211.77        48.01587
212.23        38.03178
212.69        16.39113
213.14       -20.95981
213.60        -80.3246
214.06       -231.0608
214.52       -517.5776
214.98       -187.1767
215.44        -24.3755
215.90        25.45769
216.36        40.94548
216.81        42.25126
217.27         32.0881
217.73       -22.38962
218.19        642.7632
218.65        294.0676
219.11       -582.8297
219.57       -4.624508
220.02        31.98237
220.48        37.09914
220.94        30.74626
221.40        10.68875
221.86       -35.69664
222.32       -63.94938
222.77       -20.35523
223.23        16.62957
223.69        35.50817
224.15        42.92913
224.61        44.74733
225.06        44.15194
225.52        41.66464
225.98        37.29636
226.44        31.51741
226.90        23.52895
227.36         16.9155
227.81        18.68093
228.27        26.47217
228.73        35.39261
229.19         41.4153
229.65        42.35023
230.10        38.95893
230.56        32.74643
231.02        24.79111
231.48        19.42913
231.93        19.86963
232.39        24.43874
232.85        29.83855
233.31        33.33295
233.77        35.06592
234.22        36.37092
234.68        37.14623
235.14        37.05107
235.60        36.29043
236.05         34.1527
236.51         31.3365
236.97        34.56247
237.43        44.47137
237.88        51.89634
238.34        53.18202
238.80        70.69368
239.26        62.10767
239.71        57.87562
240.17        47.10961
240.63        36.80115
241.08        32.74786
241.54        38.53853
242.00        52.64259
242.46        62.37349
242.91        64.37135
243.37        59.41473
243.83        49.17164
244.28        42.31349
244.74        44.35736
245.20        50.53877
245.66        55.90533
246.11         55.6978
246.57        49.37413
247.03        39.30899
247.48         26.4717
247.94        11.93026
248.40       -7.119388
248.85       -48.90485
249.31       -163.9522
249.77       -211.4761
250.22       -19.51089
250.68        47.34372
251.14        66.18382
251.59        70.85213
252.05        70.20969
252.51        65.61399
252.96        56.48943
253.42        46.37349
253.88        40.63395
254.33        39.81052
254.79          44.874
255.25        53.31696
255.70        61.33766
256.16        67.90586
256.62        72.33282
257.07        74.37796
257.53        75.19888
257.99        75.11397
258.44        74.06112
258.90        72.77494
259.35        70.91534
259.81        69.10057
260.27        67.38322
260.72        65.94833
261.18         65.1436
261.63        64.46165
262.09        63.92664
262.55        63.05666
263.00         61.7591
263.46         60.4105
263.91        59.02192
264.37        58.09854
264.83        57.56214
265.28        57.20324
265.74        56.93648
266.19        56.39693
266.65        55.61477
267.11        54.62393
267.56        53.51403
268.02        52.53012
268.47        51.66084
268.93        50.86919
269.38        50.01481
269.84        48.96389
270.30        47.68398
270.75        46.25287
271.21        44.82483
271.66        43.54574
272.12        42.50864
272.57        41.65847
273.03        40.95841
273.48        40.28836
273.94        39.63829
274.39        38.97745
274.85        38.38624
275.31        37.90173
275.76        37.49829
276.22        37.18287
276.67        36.81197
277.13        36.29405
277.58        35.57853
278.04        34.75791
278.49        33.92066
278.95        33.29403
279.40        32.85256
279.86        32.56818
280.31        32.26847
280.77        31.80566
281.22        31.12173
281.68        30.35699
282.13        29.58707
282.59        29.00784
283.04        28.62593
283.50         28.4016
283.95        28.28347
284.41        28.23827
284.86        28.22359
285.32        28.27012
285.77        28.31093
286.22        28.27342
286.68        28.17077
287.13        27.97919
287.59        27.82651
288.04        27.79895
288.50        27.89297
288.95        28.17965
289.41        28.59708
289.86        28.58301
290.32        28.05338
290.77        28.86294
291.22        28.04369
291.68        28.18064
292.13        28.41183
292.59        28.79499
293.04        29.31726
293.50        30.03029
293.95        30.94135
294.40         32.0141
294.86        33.18382
295.31        34.33263
295.77        35.43124
296.22        36.49192
296.68        37.57491
297.13        38.76966
297.58        40.11153
298.04         41.5679
298.49        43.10733
298.95        44.69997
299.40        46.30872
299.85        47.95882
300.31        49.61246
300.76        51.18335
301.21        52.67556
301.67        54.12674
302.12        55.61277
302.58        57.36205
303.03        59.36692
303.48        61.60197
303.94        63.90993
304.39        65.98887
304.84        67.78697
305.30        69.40924
305.75        70.97165
306.20        72.76443
306.66        74.83741
307.11        77.03321
307.57        79.23105
308.02        81.17295
308.47        82.83454
308.93        84.34561
309.38        85.74973
309.83        87.17704
310.29        88.71957
310.74        90.25974
311.19         91.8111
311.65        93.36701
312.10         94.8851
312.55        96.36662
313.00        97.74448
313.46        98.91311
313.91         99.8374
314.36        100.5609
314.82        101.1673
315.27        101.7819
315.72        102.4599
316.18        103.1801
316.63         103.916
317.08        104.6206
317.53        105.2701
317.99        105.8722
318.44        106.4354
318.89        106.9546
319.35        107.4247
319.80        107.8498
320.25        108.2075
320.70        108.4747
321.16        108.6477
321.61        108.7587
322.06        108.8594
322.51        109.0398
322.97        109.3053
323.42        109.6708
323.87         110.065
324.32        110.3834
324.78        110.5779
325.23        110.7198
325.68        110.8406
326.13        111.0268
326.59        111.2772
327.04        111.6178
327.49         111.993
327.94        112.3496
328.39        112.6677
328.85        112.9305
329.30        113.2152
329.75        113.5085
330.20        113.8131
330.66        114.0775
331.11        114.3664
331.56         114.645
332.01        114.9159
332.46        115.1951
332.92        115.4255
333.37        115.6598
333.82        115.8596
334.27        116.0392
334.72        116.2726
335.17        116.6788
335.63         117.247
336.08        118.0022
336.53        118.8097
336.98        119.4964
337.43        120.0026
337.88        120.3556
338.34        120.6066
338.79        120.9165
339.24        121.3017
339.69         121.731
340.14        122.1412
340.59        122.4376
341.05        122.6112
341.50        122.7138
341.95        122.8436
342.40        123.1564
342.85        123.6796
343.30        124.3536
343.75        125.0493
344.20        125.5689
344.66        125.8663
345.11        125.9764
345.56        125.9967
346.01        126.0837
346.46        126.2905
346.91        126.5507
347.36        126.7849
347.81        126.9613
348.26        127.0723
348.72        126.8294
349.17        126.8713
349.62        126.8772
350.07          127.04
350.52        127.3016
350.97        127.5332
351.42        127.5204
351.87        127.2138
352.32        126.6857
352.77        126.0966
353.22        125.6888
353.67        125.5142
354.13        125.5177
354.58        125.5209
355.03        125.2925
355.48        124.7834
355.93        124.0786
356.38         123.336
356.83         122.791
357.28        122.4811
357.73        122.3071
358.18        122.1211
358.63        121.6966
359.08        120.9784
359.53        120.0562
359.98        119.0263
360.43         118.024
360.88        117.1006
361.33        116.2226
361.78        115.3872
362.23        114.5941
362.68        113.8372
363.13         113.122
363.58        112.4273
364.03        111.7106
364.48        110.9502
364.93         110.142
365.38        109.2847
365.83        108.3854
366.28        107.4578
366.73         106.515
367.18        105.5698
367.63        104.6441
368.08        103.7522
368.53        102.8932
368.98        102.0899
369.43        101.3599
369.88        100.6926
370.33        100.0815
370.78        99.45991
371.23        98.73344
371.68        97.89264
372.13        96.96069
372.58        96.05598
373.03        95.35181
373.48        94.87185
373.93        94.56946
374.38         94.2814
374.83        93.74924
375.28        92.93074
375.72        91.89652
376.17        90.87878
376.62        90.13615
377.07        89.70291
377.52        89.47372
377.97        89.26978
378.42        88.81128
378.87        88.04766
379.32        87.10551
379.77        86.13229
380.22        85.31351
380.67        84.68604
381.11        84.18444
381.56        83.75394
382.01        83.33624
382.46         82.9125
382.91        82.51298
383.36        82.12254
383.81        81.70678
384.26        81.25906
384.71        80.77975
385.15        80.28417
385.60        79.87039
386.05        79.52833
386.50        79.23573
386.95         78.9576
387.40          78.646
387.85        78.29537
388.29        77.87728
388.74        77.50845
389.19        77.14919
389.64         76.7916
390.09        76.42023
390.54        76.04227
390.98        75.66154
391.43        75.33556
391.88        75.06593
392.33        74.83339
392.78         74.6077
393.23        74.38148
393.67        74.09123
394.12        73.87759
394.57        73.74251
395.02        73.86681
395.47        73.74614
395.91        73.43063
396.36         73.1141
396.81        72.82825
397.26        72.46952
397.71        72.07403
398.15        71.74841
398.60        71.58259
399.05        71.39706
399.50        71.23375
399.95        71.30869
400.39        71.51817
400.84        71.47686
401.29        71.15587
401.74        70.61565
402.18        70.03224
402.63         69.8578
403.08        70.01115
403.53        69.85789
403.97         69.3638
404.42        68.94787
404.87         68.6996
405.32        68.58623
405.76        68.60695
406.21        68.77513
406.66         68.9607
407.11        68.94651
407.55        68.71069
408.00        68.33146
408.45        67.91862
408.90        67.53427
409.34        67.26734
409.79        67.26774
410.24        67.44276
410.68        67.51591
411.13        67.44674
411.58        67.36203
412.03        67.28899
412.47        67.24196
412.92        67.21007
413.37        67.19595
413.81        67.17558
414.26        67.17358
414.71        67.17062
415.15        67.17947
415.60        67.17514
416.05        67.17179
416.49        67.17155
416.94         67.1633
417.39        67.13755
417.83        67.07327
418.28        66.97149
418.73        66.83288
419.17         66.6835
419.62        66.57769
420.07        66.52938
420.51        66.52222
420.96         66.5439
421.41        66.53192
421.85        66.45462
422.30         66.3516
422.74        66.24774
423.19        66.34361
423.64        66.61095
424.08        66.89695
424.53        67.08897
424.98         67.2964
425.42        67.51846
425.87        67.52241
426.31        67.38976
426.76        67.60091
427.21        68.03888
427.65        67.95676
428.10        67.42406
428.54        67.19753
428.99        67.34511
429.44         67.5634
429.88        67.70696
430.33        67.57552
430.77         67.2189
431.22        67.19271
431.66        67.46456
432.11        67.67188
432.56        67.78862
433.00        67.79492
433.45        67.48846
433.89        67.36367
434.34        67.67701
434.78        66.66176
435.23        66.87247
435.67        68.21966
436.12        67.61943
436.57        67.83802
437.01        67.79755
437.46        67.81431
437.90        68.15438
438.35        67.91722
438.79        68.07018
439.24        68.04934
439.68        68.09391
440.13        68.23131
440.57        68.39854
441.02        68.26983
441.46        67.95549
441.91        68.12203
442.35        68.61945
442.80        68.96732
443.24        69.39664
443.69        69.38243
444.13        69.08361
444.58        68.81405
445.02        68.67223
445.47        68.79613
445.91        69.08382
446.36        69.22009
446.80        69.16457
447.24        69.06023
447.69        68.97502
448.13         69.1282
448.58        69.27911
449.02        69.23781
449.47        68.98112
449.91        68.89755
450.36        69.03262
450.80        69.02077
451.25        68.86095
451.69        69.14904
452.13          69.149
452.58        69.04774
453.02        68.70415
453.47        68.53658
453.91        68.56175
454.36        68.60281
454.80        68.57004
455.24        68.45251
455.69        68.27156
456.13          67.856
456.58           67.38
457.02        67.52301
457.46        67.80669
457.91        67.82906
458.35        67.57823
458.79         67.5059
459.24        67.66003
459.68        67.60616
460.13        67.35045
460.57        67.51912
461.01        66.92294
461.46        67.04028
461.90        66.75827
462.34        66.47198
462.79        66.29623
463.23        66.44831
463.68         66.8721
464.12        66.68188
464.56        66.01817
465.01        66.07374
465.45        66.62953
465.89        66.60963
466.34        66.11036
466.78        65.91573
467.22         66.0099
467.67        66.15968
468.11        65.53843
468.55         65.4646
468.99        65.63557
469.44        65.59371
469.88        65.31629
470.32        65.03955
470.77        64.83511
471.21         64.6981
471.65        64.64436
472.10        64.67159
472.54        64.72556
472.98        64.72312
473.42        64.64297
473.87        64.57982
474.31         64.5164
474.75        64.38515
475.20        64.24107
475.64        64.34658
476.08        64.64259
476.52         64.6828
476.97        64.38551
477.41        64.31168
477.85        64.57079
478.29        63.69675
478.74        63.66951
479.18         64.1112
479.62        64.21317
480.06        64.35131
480.50        64.36709
480.95        64.32738
481.39         64.2765
481.83        64.29457
482.27         64.3205
482.72        64.40128
483.16        64.22279
483.60        64.57384
484.04         64.5443
484.48        64.22368
484.93        64.00121
485.37        63.92627
485.81        64.64516
486.25        63.88817
486.69        65.72984
487.14        65.84298
487.58        64.96075
488.02          64.104
488.46        63.93392
488.90        64.16409
489.34        63.73612
489.79        63.48098
490.23        63.94943
490.67        64.14379
491.11        64.24258
491.55        63.98779
491.99        63.52391
492.43        63.30398
492.88        63.37857
493.32        63.53907
493.76        63.64954
494.20        63.72183
494.64         63.7525
495.08        63.35519
495.52        63.15412
495.96        63.28196
496.41        63.75569
496.85        63.76695
497.29        63.31456
497.73        63.29289
498.17        63.36596
498.61        63.43689
499.05        63.35056
499.49        63.16835
499.93        62.97924
500.37         62.9587
500.82        63.08818
501.26         63.3162
501.70        63.51511
502.14          63.263
502.58         62.8141
503.02        62.63522
503.46        62.75731
503.90        62.91022
504.34        63.00385
504.78        63.07048
505.22        63.09081
505.66        63.02335
506.10        62.90576
506.54        62.87677
506.98        62.96227
507.42        62.74759
507.86        63.06716
508.30        62.79883
508.74        62.87784
509.18        62.73116
509.62        62.59826
510.06        62.53246
510.50        62.52448
510.94         62.4832
511.38        62.39906
511.82        62.34636
512.26        62.32113
512.70        62.28095
513.14        62.22501
513.58        62.17113
514.02        62.12198
514.46        62.07641
514.90        62.02515
515.34        61.99035
515.78        61.97873
516.22        61.95911
516.66        61.79132
517.10          62.078
517.54        61.95606
517.98         62.0887
518.42        62.19066
518.86        62.23674
519.30        62.21419
519.74        62.09817
520.18        61.95961
520.62        61.98593
521.06         62.1488
521.50          62.201
521.93         62.1167
522.37        62.05162
522.81         62.0075
523.25        61.88364
523.69        61.72093
524.13        61.63871
524.57        61.65268
525.01        61.72443
525.45        61.82217
525.89        61.89577
526.32        61.92348
526.76        61.92447
527.20        61.90331
527.64        61.86946
528.08        61.82952
528.52        61.78484
528.96        61.74012
529.40        61.69554
529.83        61.65459
530.27        61.65309
530.71        61.68096
531.15        61.71795
531.59        61.75842
532.03        61.80248
532.46        61.85057
532.90        61.91904
533.34        61.99735
533.78        62.07801
534.22        62.12281
534.66        62.07514
535.09        61.92489
535.53        61.71918
535.97        61.50494
536.41        61.37264
536.85        61.34472
537.28        61.39351
537.72        61.48495
538.16        61.56147
538.60        61.59928
539.04        61.61672
539.47        61.59766
539.91        61.56879
540.35        61.52183
540.79        61.45639
541.22        61.38985
541.66        61.36877
542.10        61.39522
542.54        61.45201
542.97        61.51513
543.41        61.57724
543.85        61.62496
544.29        61.67441
544.72        61.69755
545.16        61.70546
545.60        61.69335
546.04        61.59324
546.47        61.47586
546.91        61.61097
547.35        61.93066
547.79        62.06507
548.22        61.97469
548.66        61.91105
549.10        61.89713
549.53        61.83491
549.97         61.7533
550.41        61.69277
550.84        61.66614
551.28        61.68158
551.72         61.7089
552.15         61.7077
552.59        61.68806
553.03        61.53162
553.46        61.48825
553.90        61.40865
554.34         61.3602
554.77        61.32149
555.21        61.31286
555.65        61.34388
556.08        61.40398
556.52        61.50648
556.96        61.60245
557.39        61.65855
557.83        61.65931
558.27        61.52246
558.70        61.33707
559.14        61.30208
559.57        61.42345
560.01         61.7266
560.45        62.03388
560.88        61.94381
561.32        61.57181
561.75        61.24369
562.19        61.10001
562.63        61.23932
563.06        61.53233
563.50        61.44788
563.93        61.06626
564.37        60.93462
564.80        61.33844
565.24        61.51507
565.68        61.52502
566.11        61.56347
566.55        61.63617
566.98        61.70829
567.42        61.78025
567.85        61.60942
568.29        61.39816
568.72        61.46337
569.16         61.8504
569.60        61.95037
570.03        62.02734
570.47        62.16541
570.90        62.42445
571.34        62.27174
571.77        62.75727
572.21        62.55664
572.64        62.45685
573.08         62.4002
573.51        62.44406
573.95         62.8655
574.38        62.60241
574.82        63.23792
575.25        63.06604
575.69         63.0293
576.12        62.57116
576.56        62.53628
576.99        62.89881
577.42        62.87002
577.86        63.03185
578.29        63.40079
578.73        63.83491
579.16        63.59121
579.60        62.78635
580.03        62.89869
580.47        62.95794
580.90        63.26919
581.33        63.05646
581.77        63.34623
582.20        63.99825
582.64        64.09519
583.07        63.52993
583.51        63.01359
583.94        62.54738
584.37        62.42096
584.81        62.12419
585.24        62.24015
585.68        62.84348
586.11        63.04103
586.54         63.0843
586.98         63.0262
587.41        62.60043
587.85        63.15163
588.28        63.02965
588.71        62.95263
589.15         62.8154
589.58        62.48547
590.01         62.3242
590.45        62.17126
590.88        62.39502
591.31        62.00729
591.75        61.86526
592.18        61.72606
592.61        61.83523
593.05        62.38164
593.48        62.90155
593.91        62.97332
594.35        62.71554
594.78        62.75137
595.21        62.39182
595.65        62.38292
596.08        62.44737
596.51        62.66019
596.94        62.39765
597.38        62.36077
597.81        62.43584
598.24        62.31236
598.68        61.98385
599.11        62.27983
599.54        62.60691
599.97        62.56227
600.41        62.34052
600.84        62.65063
601.27        62.72895
601.70        62.49395
602.14        62.27422
602.57        62.22324
603.00        62.47904
603.43        62.59992
603.87         62.6345
604.30        62.53568
604.73        62.65099
605.16        62.16504
605.60        62.34811
606.03        62.28523
606.46        62.29509
606.89        62.33779
607.32        62.11959
607.76        62.65722
608.19         62.2272
608.62        62.60392
609.05         62.8118
609.48        62.40945
609.92        62.44706
610.35        62.53135
610.78        62.43351
611.21        62.25628
611.64        62.36209
612.07         62.3838
612.50         62.4537
612.94        62.43092
613.37        62.31697
613.80        62.45962
614.23        62.30283
614.66        62.15098
615.09        61.91887
615.52        61.81491
615.96        61.80011
616.39         62.0256
616.82         61.7791
617.25         61.7519
617.68        61.83652
618.11         61.7365
618.54        61.64448
618.97        61.53305
619.40        61.43447
619.84        61.66003
620.27        61.60299
620.70        61.63343
621.13         61.5865
621.56        61.67513
621.99        61.89434
622.42        61.93841
622.85        61.78255
623.28        61.77042
623.71        62.16142
624.14        61.78561
624.57        61.81697
625.00        62.27752
625.43        61.65805
625.86        61.67455
626.29        61.84206
626.72        61.41573
627.15        61.65746
627.58        61.64679
628.01        61.75544
628.44        61.72649
628.87        61.48975
629.30        61.84073
629.73        61.27433
630.16        61.56856
630.59        61.14953
631.02        61.49558
631.45        61.38816
631.88        61.47896
632.31          61.519
632.74        61.28957
633.17        61.43079
633.60        61.20995
634.03        61.20932
634.46        61.15675
634.89        61.06606
635.32        61.06481
635.75        61.17491
636.18        61.03582
636.61        61.45306
637.04        61.50797
637.47        61.41519
637.89        61.31835
638.32        61.26267
638.75        61.11156
639.18        60.83932
639.61        61.18275
640.04        60.87897
640.47        60.93044
640.90        60.95849
641.33        60.99718
641.76        61.03426
642.18         61.0796
642.61        61.12755
643.04        61.16719
643.47        61.19268
643.90        61.20239
644.33        61.19457
644.76        61.15275
645.18        61.09493
645.61         61.0765
646.04        61.09071
646.47        61.06713
646.90        61.00179
647.33        60.95058
647.75        60.90567
648.18        60.85292
648.61        60.84238
649.04        60.86554
649.47        60.90456
649.89        61.35279
650.32        61.45393
650.75        61.50283
651.18        61.30817
651.61        61.11196
652.03        60.98913
652.46        60.87004
652.89        60.81789
653.32        60.94612
653.74        61.22145
654.17        61.27377
654.60        61.08699
655.03        60.95844
655.46        61.07137
655.88        61.49221
656.31        62.91396
656.74        68.28182
657.16          66.917
657.59        65.00394
658.02        62.43482
658.45        61.66569
658.87        61.59971
659.30        61.37664
659.73        60.95117
660.15        61.01123
660.58         61.2404
661.01        61.60656
661.44        61.83211
661.86        61.71689
662.29         61.3221
662.72         61.1208
663.14         61.1755
663.57        61.18834
664.00        61.13289
664.42        61.11343
664.85        61.12926
665.27        61.02546
665.70        61.02003
666.13        61.01186
666.55        61.06886
666.98        61.15686
667.41        61.24147
667.83        61.27845
668.26        61.26583
668.69        61.16605
669.11        61.00845
669.54        61.05069
669.96        61.36417
670.39        61.05649
670.82         61.5404
671.24        61.56196
671.67        61.59159
672.09         61.3538
672.52        61.71174
672.94         61.6218
673.37        61.37833
673.80        61.30045
674.22        61.40745
674.65        61.43657
675.07         61.3915
675.50        61.40347
675.92        61.47395
676.35        61.52786
676.77        61.55655
677.20        61.59159
677.62        61.64662
678.05        61.66458
678.47        61.63122
678.90        61.82139
679.32        61.74504
679.75        61.79124
680.17          61.809
680.60        61.83442
681.02        61.85963
681.45        61.80845
681.87        61.71586
682.30        61.72807
682.72         61.8371
683.15        61.82983
683.57        61.69973
684.00        61.74678
684.42        61.64454
684.85        61.67178
685.27        61.71851
685.70        61.80991
686.12        61.89632
686.54        61.93345
686.97        61.91083
687.39        61.84991
687.82        61.77188
688.24        61.75533
688.66        61.80704
689.09        61.87481
689.51        61.97052
689.94        62.06782
690.36        62.15045
690.78        62.18378
691.21        62.17472
691.63        62.10771
692.06        62.03226
692.48        62.06968
692.90        62.19805
693.33        62.24917
693.75         62.2152
694.17        62.17891
694.60        62.14191
695.02        62.16988
695.44        62.01978
695.87        62.05836
696.29        62.20606
696.71        62.12162
697.14        61.88812
697.56        62.17001
697.98        62.83963
698.41        62.85009
698.83        62.79015
699.25        62.50107
699.68        62.26414
700.10        62.09179
700.52        62.03054
700.94         62.0652
701.37         62.1395
701.79        62.22076
702.21        62.26438
702.64        62.28936
703.06        62.29493
703.48        62.28596
703.90        62.27161
704.33        62.24671
704.75         62.2177
705.17        62.18081
705.59        62.14232
706.01        62.10176
706.44        62.09871
706.86        62.20992
707.28        62.42236
707.70        62.71098
708.12        62.99565
708.55        63.12789
708.97         63.0838
709.39        62.95527
709.81        62.79049
710.23        62.64093
710.66        62.54717
711.08        62.52674
711.50        62.55235
711.92        62.58136
712.34        62.60221
712.76        62.62899
713.19        62.66289
713.61         62.7461
714.03        62.85428
714.45        62.98452
714.87        63.10935
715.29        63.14965
715.71        63.08934
716.13        63.11085
716.56        62.93887
716.98        62.91313
717.40        62.94851
717.82        63.03393
718.24         63.1317
718.66        63.18262
719.08          63.175
719.50        63.12864
719.92        63.07491
720.34        63.05984
720.76        63.09673
721.19        63.16133
721.61        63.25321
722.03        63.34361
722.45        63.42188
722.87        63.49375
723.29        63.56147
723.71        63.62773
724.13         63.6936
724.55        63.75507
724.97        63.80832
725.39        63.85085
725.81        63.88139
726.23        63.89758
726.65        63.90727
727.07        63.92748
727.49        63.96135
727.91        63.99419
728.33        64.00936
728.75        64.01178
729.17        63.98604
729.59        63.87176
730.01        63.72219
730.43        63.68855
730.85        63.78896
731.27        63.94332
731.69        64.11553
732.10        64.20798
732.52        64.39506
732.94        64.30955
733.36         64.0749
733.78        63.95332
734.20        63.98256
734.62        64.00944
735.04        64.01654
735.46        64.05563
735.88        64.12698
736.30        64.16559
736.72        64.26008
737.13        64.28523
737.55        64.23958
737.97        64.06653
738.39        63.86953
738.81        63.99701
739.23        64.39445
739.65        64.58288
740.06        64.47764
740.48        64.45473
740.90        64.47822
741.32        64.33249
741.74        64.08777
742.16        63.99944
742.57        64.11849
742.99        64.34698
743.41        64.60397
743.83        64.74258
744.25        64.72324
744.67        64.59152
745.08        64.42953
745.50        64.32932
745.92        64.33884
746.34        64.42535
746.75        64.53535
747.17        64.58138
747.59        64.54977
748.01        64.44289
748.42        64.32461
748.84        64.35722
749.26         64.5315
749.68        64.63515
750.09        64.64435
750.51        64.70776
750.93        64.78791
751.35        64.73544
751.76        64.59813
752.18        64.43546
752.60        64.49442
753.01        64.52116
753.43        64.53014
753.85        64.51041
754.27        64.45558
754.68        64.37068
755.10        64.29624
755.52        64.27764
755.93        64.32513
756.35        64.42987
756.77        64.57257
757.18        64.69316
757.60        64.76558
758.02        64.85407
758.43        64.99866
758.85        64.90678
759.26        65.12768
759.68        65.34226
760.10        64.94131
760.51         64.7056
760.93        65.19912
761.34        65.09705
761.76        64.98531
762.18        65.02243
762.59        65.27374
763.01        64.85927
763.42        64.23874
763.84        64.22286
764.26        64.59627
764.67        65.27817
765.09        65.92715
765.50        66.16669
765.92        65.99683
766.33        65.77339
766.75        65.58164
767.16        65.33306
767.58        65.06525
768.00        65.23077
768.41        65.72173
768.83         65.6282
769.24        65.01162
769.66        65.21348
770.07        65.31912
770.49        65.46363
770.90        65.34963
771.32        65.18118
771.73        65.03381
772.15        65.00056
772.56        65.11832
772.97        65.30445
773.39        65.46509
773.80        65.55899
774.22        65.52773
774.63        65.41135
775.05        65.24957
775.46        65.16029
775.88        65.15339
776.29        65.21978
776.70        65.31071
777.12        65.35816
777.53         65.3608
777.95        65.33807
778.36        65.30807
778.77        65.28587
779.19        65.27915
779.60        65.29254
780.02        65.33108
780.43        65.40951
780.84        65.55121
781.26        65.73336
781.67        65.92203
782.09        66.09679
782.50        66.28542
782.91        65.91064
783.33        66.24324
783.74        66.19088
784.15        66.10952
784.57         66.0354
784.98        66.01601
785.39        66.04853
785.81        66.12742
786.22         66.2668
786.63        66.42059
787.04        66.51669
787.46        66.54958
787.87        66.50961
788.28        66.45925
788.70        66.47665
789.11        66.55421
789.52        66.71326
789.93        66.89021
790.35         66.8831
790.76        66.72616
791.17        66.66581
791.58        66.71935
792.00        66.69714
792.41        66.63095
792.82        66.66712
793.23         66.8448
793.65        66.97407
794.06        67.09725
794.47        67.59109
794.88         68.3149
795.29        68.23192
795.71        68.34113
796.12        68.01344
796.53        67.64761
796.94        67.37732
797.35        67.25742
797.76        67.16531
798.18        67.08227
798.59        67.07087
799.00        67.11321
799.41        67.18703
799.82        67.24517
800.23        67.22708
800.64        67.12214
801.06        66.91868
801.47        66.73933
801.88         66.7194
802.29        66.89153
802.70        67.21114
803.11        67.57968
803.52        67.82501
803.93        67.89412
804.34        67.83202
804.75        67.71122
805.17         67.6539
805.58        67.72493
805.99        67.83768
806.40        67.95268
806.81         68.0798
807.22        68.15752
807.63        68.04716
808.04        67.81697
808.45        67.72443
808.86        67.80239
809.27        67.91786
809.68        68.01319
810.09        68.04216
810.50        67.98182
810.91        67.85581
811.32        67.70277
811.73         67.5835
812.14        67.52147
812.55        67.49889
812.96         67.5178
813.37        67.57982
813.78        67.67428
814.19        67.79823
814.60        67.91673
815.01        67.97456
815.42        67.96252
815.83        67.89417
816.24        67.80129
816.65        67.74914
817.05         67.7669
817.46         67.8084
817.87        67.88621
818.28        67.97515
818.69        68.06581
819.10        68.16838
819.51        68.27168
819.92        68.35119
820.33        68.39869
820.74        68.41139
821.14         68.4073
821.55        68.44016
821.96        68.50942
822.37        68.60587
822.78        68.69867
823.19        68.73223
823.60        68.69333
824.00        68.61568
824.41          68.506
824.82        68.44589
825.23        68.45651
825.64        68.52281
826.04        68.63282
826.45        68.72746
826.86        68.80444
827.27        68.87914
827.68        68.95995
828.08        69.08321
828.49        69.17973
828.90        69.27751
829.31        69.38467
829.72        69.43082
830.12        69.41428
830.53        69.67624
830.94        69.53706
831.35        69.42961
831.75         69.1753
832.16        68.79188
832.57         68.4277
832.97        68.31963
833.38        68.50898
833.79        68.91404
834.20         69.3764
834.60        69.65646
835.01        69.69109
835.42        69.54602
835.82        69.31971
836.23        69.13757
836.64         69.0688
837.04        69.08276
837.45        69.11911
837.86        69.14165
838.26        69.14761
838.67        69.15229
839.08        69.18007
839.48        69.24637
839.89        69.34566
840.29        69.46089
840.70         69.5946
841.11        69.75648
841.51        69.95299
841.92        70.14314
842.33        70.29344
842.73        70.34731
843.14        70.25332
843.54        70.06746
843.95        69.85008
844.35        69.72604
844.76        69.72029
845.17        69.80504
845.57        69.95253
845.98        70.07484
846.38        70.17165
846.79        70.24397
847.19        70.31553
847.60        70.34393
848.00        70.36284
848.41        70.33655
848.81        70.34361
849.22        70.44587
849.62        70.69058
850.03        71.01614
850.43        71.36636
850.84        71.54827
851.24        71.57343
851.65        71.41565
852.05        71.22652
852.46        71.17305
852.86        71.30077
853.27        71.58681
853.67        71.81938
854.07        71.85026
854.48        71.62022
854.88        71.20951
855.29        70.72336
855.69        70.52952
856.10        70.63083
856.50        71.02499
856.90          71.463
857.31        71.57295
857.71        71.31711
858.12        70.75043
858.52        70.09732
858.92        69.66499
859.33        69.54456
859.73        69.69865
860.13        69.98003
860.54        70.14748
860.94        70.18353
861.34        70.10513
861.75        69.98504
862.15        70.02064
862.55        70.20419
862.96        70.44862
863.36        70.62885
863.76        70.49938
864.17         70.0177
864.57        69.31548
864.97        68.54714
865.38        67.95329
865.78        67.66748
866.18        67.61102
866.58        67.79406
866.99        68.18217
867.39        68.73853
867.79        69.42905
868.19        70.05702
868.60        70.26808
869.00         70.0824
869.40        69.71995
869.80        69.30864
870.21        68.94566
870.61        68.78899
871.01          68.869
871.41        69.03929
871.81        68.99579
872.22        68.69801
872.62        68.24595
873.02        67.80077
873.42        67.80223
873.82        68.15182
874.22        68.27384
874.63        68.25323
875.03         68.3187
875.43        68.45737
875.83        69.38792
876.23        68.77285
876.63        68.04134
877.03        66.99516
877.44        65.07576
877.84        162.1977
878.24        66.16012
878.64        67.12078
879.04        68.78871
879.44        69.53444
879.84        66.81628
880.24        71.11098
880.64        71.13317
881.04        68.84241
881.44        67.07558
881.84         66.3863
882.24        66.83595
882.65        67.86565
883.05        68.22091
883.45        67.63878
883.85        66.92744
884.25        66.37955
884.65         66.0901
885.05        66.15015
885.45        66.43115
885.85        66.84304
886.25        67.30322
886.65        67.74708
887.05        68.20202
887.45        68.52461
887.85         68.4668
888.25        68.00777
888.65        67.22918
889.04        66.41708
889.44        66.06506
889.84        66.28094
890.24        66.89434
890.64        67.65222
891.04        68.17533
891.44        68.35864
891.84        68.32706
892.24        68.12888
892.64        67.84987
893.04        67.55656
893.44        67.22086
893.83         66.9619
894.23         66.9399
894.63        67.18947
895.03        67.68814
895.43        68.27573
895.83        68.66695
896.23        68.77781
896.63        68.65388
897.02         68.4511
897.42        68.47655
897.82        68.75342
898.22        69.20141
898.62        69.59093
899.01        69.56522
899.41        69.04138
899.81        68.16149
900.21        67.23676
900.61        66.76926
901.00        66.86808
901.40        67.43851
901.80        68.18328
902.20        68.51754
902.59         68.2937
902.99        67.90406
903.39        67.68935
903.79        66.67091
904.18        67.37479
904.58         67.7066
904.98         68.1235
905.38        68.17397
905.77        67.78165
906.17        67.12239
906.57        66.42801
906.96        66.15869
907.36        66.42493
907.76         67.0993
908.15        67.97202
908.55        68.55058
908.95        68.73119
909.34        68.57562
909.74        68.31902
910.14         68.2998
910.53        68.59637
910.93        69.09904
911.33        69.51378
911.72         69.3851
912.12        68.66348
912.52        67.53081
912.91        66.39238
913.31        65.95193
913.70        66.33466
914.10        67.33015
914.49        68.53973
914.89        69.19676
915.29        69.10452
915.68        68.45905
916.08        67.63078
916.47        67.16359
916.87        67.23972
917.26         67.6832
917.66        68.23363
918.05        68.50228
918.45        68.37109
918.84        67.99567
919.24        67.60374
919.64        67.60755
920.03        68.09004
920.42        68.86669
920.82        69.64697
921.21        70.00153
921.61        69.84646
922.00        69.39053
922.40        68.89153
922.79        68.64078
923.19          68.411
923.58        68.86701
923.98        70.26929
924.37        70.37524
924.77        67.93189
925.16        75.02087
925.55        69.74554
925.95        70.12502
926.34        69.96241
926.74        69.15491
927.13        67.72322
927.52        66.79945
927.92         66.8793
928.31        67.33535
928.70        68.07484
929.10        68.89175
929.49        69.70811
929.89        70.60009
930.28        71.31015
930.67        71.28221
931.07        70.45177
931.46        68.87891
931.85        67.18076
932.24        66.83301
932.64        68.09206
933.03        69.96601
933.42        71.41582
933.82        73.78956
934.21        72.32345
934.60        70.82041
934.99        69.15968
935.39        68.56932
935.78        69.19751
936.17        71.22119
936.56        77.11171
936.96         71.2957
937.35         74.7756
937.74         72.1293
938.13        70.20809
938.53        68.52868
938.92        67.71507
939.31        68.26166
939.70         69.2383
940.09        69.74287
940.49        69.54008
940.88        68.97474
941.27        68.35883
941.66        68.23631
942.05        68.77307
942.44        69.71127
942.84        70.64198
943.23        71.10457
943.62        70.98243
944.01        70.39816
944.40         69.7347
944.79        69.63825
945.18        70.24843
945.57        71.35597
945.97        72.41645
946.36        72.68904
946.75        71.97586
947.14         70.5349
947.53        68.91492
947.92        68.06634
948.31        68.25611
948.70        69.16154
949.09        70.31679
949.48        71.00417
949.87        71.02342
950.26        70.62563
950.65         70.0019
951.04        69.44978
951.43        69.10223
951.82        68.84154
952.21        68.72057
952.60        68.85966
952.99        69.23561
953.38        69.80574
953.77        70.39075
954.16        70.70816
954.55        70.70293
954.94        70.45306
955.33        70.04085
955.72        69.65093
956.11        69.36997
956.50        69.13509
956.89        69.01379
957.28        69.09885
957.66        69.41935
958.05        69.91538
958.44        70.38354
958.83        70.48904
959.22        70.16293
959.61        69.43604
960.00        68.62498
960.39        68.34805
960.78        68.76389
961.16        69.71766
961.55        70.64369
961.94        70.85735
962.33        70.25043
962.72        68.99899
963.11         67.6275
963.49        67.20776
963.88        68.04053
964.27        69.72218
964.66        71.53329
965.04        72.51398
965.43         72.4067
965.82        71.53671
966.21        70.30365
966.60        69.42068
966.98        69.14827
967.37         69.2612
967.76        69.53982
968.15        69.62656
968.53         69.4316
968.92        69.09418
969.31        68.73759
969.69        68.51051
970.08        68.43509
970.47        68.42966
970.86        68.49718
971.24        68.67226
971.63        68.91567
972.02        69.23251
972.40        69.51106
972.79        69.49124
973.17        69.20235
973.56        68.71873
973.95        68.26094
974.33        68.22955
974.72        68.69911
975.11        69.48924
975.49        70.47643
975.88        71.37135
976.26        72.12376
976.65        72.76131
977.04        73.13084
977.42        72.96843
977.81        72.22689
978.19        70.89859
978.58        69.66637
978.96        69.74765
979.35         71.3105
979.74        73.81538
980.12        76.25777
980.51        77.25439
980.89        76.73879
981.28          74.979
981.66        72.55865
982.05        70.96801
982.43        70.84461
982.82        71.79191
983.20        73.20374
983.59        74.08738
983.97        74.20738
984.35        73.88584
984.74        73.25649
985.12        72.62563
985.51        72.12306
985.89         71.6798
986.28        71.38268
986.66        71.45374
987.04         71.9333
987.43        72.69267
987.81        73.31953
988.20        74.23481
988.58        75.44466
988.96         74.9063
989.35         72.1255
989.73        76.83212
990.12        73.29446
990.50        73.60054
990.88        73.43873
991.27        73.38332
991.65        73.35357
992.03        73.52617
992.42        73.91625
992.80        74.02972
993.18        73.79207
993.56        73.35362
993.95         72.8765
994.33        72.61732
994.71        72.67399
995.10        72.92953
995.48        73.39567
995.86        74.07552
996.24        74.88451
996.63        75.70731
997.01        76.42616
997.39        76.65065
997.77        76.31823
998.15        75.57102
998.54        74.63882
998.92        73.78723
999.30        73.17793
999.68        72.77757
1000.06        72.66648
1000.45        72.91189
1000.83        73.58899
1001.21        74.63128
1001.59         75.8016
1001.97        76.74917
1002.35        77.36107
1002.73         77.6508
1003.12          77.783
1003.50        78.06183
1003.88         78.5415
1004.26        79.19008
1004.64        79.77233
1005.02        79.80137
1005.40        79.12357
1005.78         77.8662
1006.16        76.51535
1006.54        75.86075
1006.92        76.09949
1007.30        77.03683
1007.69        78.07693
1008.07        78.42624
1008.45        77.87987
1008.83        76.65192
1009.21        75.28962
1009.59        74.94871
1009.97         75.8934
1010.35        77.50858
1010.73        79.12473
1011.11         80.2723
1011.49        80.99146
1011.86        81.23017
1012.24        80.82761
1012.62        82.10152
1013.00        82.65569
1013.38        82.31393
1013.76         80.0105
1014.14        83.08991
1014.52        88.11667
1014.90        81.38849
1015.28        82.41525
1015.66        83.75667
1016.04        80.95528
1016.41        81.58356
1016.79        81.28664
1017.17        81.32323
1017.55        81.19752
1017.93        81.16599
1018.31        81.40652
1018.69        81.74895
1019.06         82.2168
1019.44        82.73389
1019.82         83.2003
1020.20        83.47245
1020.58        83.55439
1020.95        83.44598
1021.33        83.26737
1021.71        83.10503
1022.09        83.07494
1022.46        83.16431
1022.84        83.35998
1023.22        83.73012
1023.60        84.26767
1023.97        84.95855
1024.35        85.70746
1024.73        86.25149
