SpectraSmart Spectrum 2.9.0.0
--------- Device Information -----------
Spectrum Name :  反射率_0
Saving Time :  2024/04/20 23:59:16
Spectro-Module Model Name : SE2030-DUVN
Spectro-Module Serial Number : OS361AC55029948
Wavelength Start : 200
Wavelength End : 1025
Wavelength Unit : Wavelength(nm)
Spectrum Unit : Reflectance(%)
-----------Spectrum Setting ------------
Integration Time : 20ms
Average : 10
Boxcar : 0
Background removal :  enabled
linearity correction :  enabled
SC :  disabled
Intensity correction :  disabled
DWT denoise :  enabled
savitzky-golay :  disabled
FFT :  disabled
Running average :  disabled
Kalman :  disabled
High pass :  disabled
---------------BEGIN--------------------
Wavelength(nm)             Reflectance(%)
200.29               0
200.75       -105.9891
201.21       -40.79888
201.67       -5.629964
202.13         8.03631
202.58        9.687276
203.04        4.755242
203.50       -4.147162
203.96       -10.54696
204.42       -11.23189
204.88       -9.718204
205.34        -7.37721
205.80       -6.182412
206.26        -6.78035
206.72       -5.593685
207.18       -7.487551
207.64       -24.25225
208.10       -55.97393
208.55       -97.16399
209.01       -116.8709
209.47       -82.67091
209.93       -33.10558
210.39        5.905892
210.85        30.56228
211.31        41.51196
211.77         42.8109
212.23        36.92316
212.69        17.98248
213.14       -28.44043
213.60       -133.4509
214.06       -471.8443
214.52       -1296.512
214.98       -608.0261
215.44       -171.8217
215.90       -24.94577
216.36        24.89749
216.81        34.07759
217.27        14.21287
217.73       -101.8806
218.19        1324.394
218.65        573.5009
219.11        -1269.82
219.57       -57.56314
220.02        19.26045
220.48        32.33078
220.94        23.70691
221.40       -8.341567
221.86       -85.67385
222.32       -138.9992
222.77        -72.8692
223.23       -13.58408
223.69        17.01464
224.15        28.41099
224.61        30.09689
225.06        27.79406
225.52        22.55174
225.98        15.06736
226.44        6.386176
226.90        -5.11774
227.36       -13.66632
227.81       -8.497568
228.27        5.627422
228.73        20.81773
229.19        30.81544
229.65        32.50572
230.10         27.1809
230.56         16.6341
231.02        2.755656
231.48       -6.355908
231.93       -5.155182
232.39        2.949971
232.85        12.02272
233.31        17.12487
233.77        18.44624
234.22        18.20686
234.68        16.69749
235.14         14.3094
235.60        11.75219
236.05        7.759305
236.51        3.112475
236.97         6.90597
237.43        20.03727
237.88         29.4962
238.34        29.92703
238.80        55.23377
239.26        41.32751
239.71        34.28936
240.17        17.01932
240.63        -1.05125
241.08         -12.256
241.54       -10.37652
242.00        4.176365
242.46        12.00122
242.91        7.182409
243.37       -8.348306
243.83        -30.4992
244.28       -41.04591
244.74       -29.74283
245.20       -8.598671
245.66        11.07146
246.11        19.71752
246.57         16.4256
247.03        5.410264
247.48       -12.10414
247.94       -35.39273
248.40       -70.53259
248.85       -153.9371
249.31       -406.2527
249.77       -598.1411
250.22       -208.2522
250.68       -49.00154
251.14        2.626454
251.59        19.57479
252.05        23.66966
252.51        21.27225
252.96        10.56916
253.42       -7.618478
253.88       -25.86685
254.33        -39.0545
254.79       -38.58789
255.25       -23.04298
255.70       -2.561419
256.16        15.81095
256.62        28.78098
257.07        34.79817
257.53        36.41085
257.99        36.06298
258.44        35.24645
258.90        35.69633
259.35        36.93675
259.81        38.40345
260.27         39.5781
260.72         40.0185
261.18        39.96912
261.63        39.56362
262.09        38.93039
262.55        37.86439
263.00        36.43123
263.46        34.90952
263.91        33.49249
264.37        32.75638
264.83        32.63711
265.28        32.85911
265.74        33.20432
266.19         33.2647
266.65        32.99812
267.11        32.49616
267.56        31.78219
268.02        30.96445
268.47         30.0616
268.93        29.08237
269.38        28.08115
269.84        27.20695
270.30        26.48166
270.75        25.87891
271.21        25.36605
271.66        24.81921
272.12        24.22686
272.57        23.61457
273.03        23.00606
273.48        22.40921
273.94        21.85545
274.39        21.32841
274.85        20.86876
275.31        20.48937
275.76          20.182
276.22         19.9468
276.67        19.77499
277.13        19.70553
277.58        19.69114
278.04        19.72082
278.49        19.68089
278.95        19.46813
279.40        19.05122
279.86          18.509
280.31         17.9207
280.77        17.46463
281.22        17.15729
281.68         16.9946
282.13        16.88636
282.59        16.75735
283.04        16.56681
283.50        16.34819
283.95        16.16592
284.41        16.12774
284.86        16.23777
285.32         16.4632
285.77        16.67391
286.22        16.68741
286.68        16.50642
287.13        16.17221
287.59        15.89251
288.04         15.8803
288.50        16.13639
288.95        16.70799
289.41        17.45466
289.86        17.65786
290.32        17.17944
290.77        18.17276
291.22        17.22046
291.68         17.3018
292.13         17.4346
292.59        17.67205
293.04        17.99542
293.50        18.45519
293.95        19.06712
294.40        19.79405
294.86        20.59303
295.31        21.37857
295.77        22.12551
296.22        22.84784
296.68        23.56688
297.13        24.31633
297.58        25.12111
298.04        25.96924
298.49        26.88363
298.95        27.91952
299.40        29.05824
299.85        30.28205
300.31        31.50646
300.76        32.58924
301.21        33.51297
301.67        34.34497
302.12        35.16156
302.58         36.1527
303.03        37.33955
303.48        38.70423
303.94        40.17642
304.39         41.6133
304.84        42.97578
305.30        44.30352
305.75        45.61711
306.20        47.02491
306.66        48.52758
307.11        50.04759
307.57        51.50715
308.02        52.75758
308.47        53.78852
308.93         54.6982
309.38        55.54321
309.83        56.39536
310.29        57.43396
310.74         58.4893
311.19        59.56943
311.65        60.60723
312.10        61.56598
312.55        62.46905
313.00        63.31225
313.46        64.09054
313.91        64.79356
314.36        65.42271
314.82        66.00098
315.27        66.57249
315.72        67.15319
316.18        67.74236
316.63         68.3167
317.08        68.83943
317.53        69.29942
317.99        69.70235
318.44        70.07597
318.89        70.45369
319.35        70.84095
319.80        71.22803
320.25        71.58174
320.70        71.85444
321.16        72.02951
321.61        72.13658
322.06        72.21244
322.51        72.32073
322.97        72.47271
323.42        72.68145
323.87         72.9055
324.32        73.08666
324.78        73.19772
325.23        73.28301
325.68        73.37592
326.13        73.55181
326.59        73.80521
327.04        74.14211
327.49        74.48515
327.94        74.73298
328.39        74.85786
328.85        74.87231
329.30        74.86701
329.75        74.90256
330.20        75.01167
330.66        75.15137
331.11        75.36254
331.56        75.61459
332.01        75.89906
332.46        76.22395
332.92        76.53564
333.37          76.841
333.82        77.09753
334.27        77.31058
334.72        77.51378
335.17        77.77029
335.63        78.07587
336.08        78.45893
336.53        78.86836
336.98        79.25121
337.43        79.59058
337.88        79.89919
338.34        80.18762
338.79        80.51051
339.24        80.86016
339.69        81.21654
340.14        81.55151
340.59        81.83035
341.05        82.04931
341.50        82.22685
341.95        82.38377
342.40        82.55603
342.85         82.7602
343.30        82.99432
343.75        83.24361
344.20        83.48594
344.66        83.72222
345.11        83.94112
345.56        84.17023
346.01        84.44477
346.46        84.75845
346.91        85.10885
347.36        85.43648
347.81        85.61044
348.26        85.61134
348.72        85.65714
349.17        85.49298
349.62        85.50709
350.07        85.63631
350.52        85.85236
350.97        86.06402
351.42        86.12862
351.87        86.01243
352.32        85.75397
352.77        85.44723
353.22        85.23347
353.67         85.1433
354.13        85.14836
354.58        85.13162
355.03        84.95581
355.48        84.59708
355.93        84.11139
356.38        83.61053
356.83        83.26044
357.28        83.08578
357.73        83.01804
358.18         82.9499
358.63        82.71332
359.08        82.26718
359.53        81.67753
359.98        81.00842
360.43        80.35385
360.88        79.74746
361.33        79.15628
361.78        78.59374
362.23        78.08465
362.68        77.62646
363.13        77.22385
363.58        76.81889
364.03        76.30815
364.48        75.67942
364.93        74.96976
365.38        74.25929
365.83        73.68501
366.28        73.27324
366.73        72.95989
367.18        72.69389
367.63         72.3947
368.08        72.02513
368.53         71.6172
368.98        71.11899
369.43        70.44159
369.88        69.58546
370.33        68.57458
370.78        67.55846
371.23         66.8106
371.68        66.40972
372.13         66.2899
372.58        66.28919
373.03        66.13101
373.48        65.73457
373.93        65.17429
374.38        64.54691
374.83        64.02448
375.28        63.65879
375.72        63.37004
376.17         63.1168
376.62        62.80646
377.07        62.40546
377.52         61.9445
377.97        61.43784
378.42         60.9154
378.87        60.41063
379.32        59.93005
379.77        59.48645
380.22        59.08721
380.67         58.7212
381.11        58.38091
381.56        58.06015
382.01        57.75896
382.46        57.47851
382.91        57.22189
383.36        56.95596
383.81        56.62974
384.26        56.23731
384.71        55.79366
385.15        55.34698
385.60        55.02644
386.05        54.83156
386.50        54.72765
386.95        54.64148
387.40        54.46123
387.85        54.16907
388.29        53.77674
388.74        53.40917
389.19        53.10258
389.64        52.86264
390.09        52.65306
390.54        52.45698
390.98        52.24408
391.43         52.0428
391.88        51.86354
392.33        51.68982
392.78        51.52549
393.23        51.37597
393.67        51.11954
394.12        50.86638
394.57        50.87072
395.02        51.03003
395.47        50.82582
395.91        50.31952
396.36        50.04159
396.81         50.0453
397.26        50.06179
397.71        50.01193
398.15        49.90561
398.60        49.78405
399.05        49.50361
399.50        49.21156
399.95        49.30965
400.39        49.70625
400.84        49.90375
401.29        49.80107
401.74        49.41761
402.18        48.89154
402.63        48.66648
403.08        48.72174
403.53        48.54893
403.97        48.15017
404.42         47.9035
404.87        47.83104
405.32        47.81607
405.76        47.84785
406.21        47.89566
406.66         47.9304
407.11        48.05443
407.55        48.18862
408.00        47.98858
408.45        47.52964
408.90        47.18021
409.34        47.04562
409.79        47.12281
410.24        47.31874
410.68        47.40063
411.13        47.33476
411.58        47.25807
412.03        47.21995
412.47         47.2467
412.92        47.33689
413.37        47.48458
413.81        47.63211
414.26        47.73708
414.71        47.77583
415.15         47.7732
415.60        47.74666
416.05         47.7634
416.49        47.84436
416.94        47.96493
417.39        48.08819
417.83        48.15596
418.28        48.15612
418.73        48.09594
419.17        48.02965
419.62        48.05729
420.07        48.19792
420.51        48.42099
420.96         48.6448
421.41        48.74269
421.85        48.68427
422.30        48.45303
422.74        48.17747
423.19        48.34233
423.64        48.87322
424.08        49.20213
424.53        49.22613
424.98        49.37997
425.42        49.66915
425.87         49.7266
426.31        49.62127
426.76        49.77645
427.21        50.14875
427.65        50.30082
428.10        50.23428
428.54        50.29788
428.99        50.52829
429.44        50.83472
429.88        51.08866
430.33        51.05381
430.77        50.80513
431.22        50.78366
431.66        51.02485
432.11        51.49429
432.56        52.09071
433.00        52.27798
433.45        51.84654
433.89        51.73594
434.34        52.15279
434.78        51.19269
435.23        50.80028
435.67        52.21415
436.12        52.61665
436.57        53.05439
437.01        52.67416
437.46        52.47749
437.90        52.99517
438.35        53.45746
438.79         53.2314
439.24        53.29401
439.68         53.4379
440.13        53.54334
440.57        53.61242
441.02        53.84807
441.46        54.17701
441.91        54.25251
442.35         54.1118
442.80        54.34835
443.24        54.86387
443.69        55.10527
444.13        55.02256
444.58         54.9406
445.02        54.91548
445.47        55.06528
445.91        55.33447
446.36        55.46489
446.80        55.42684
447.24        55.46975
447.69        55.40522
448.13        55.59529
448.58        55.77512
449.02        55.80935
449.47         55.6764
449.91        55.64879
450.36        55.75654
450.80        55.76937
451.25        55.73048
451.69        55.84436
452.13        56.07162
452.58         56.1277
453.02        56.00406
453.47        55.93925
453.91        55.93189
454.36        55.84849
454.80        55.71481
455.24        55.66022
455.69        55.71229
456.13        55.78505
456.58        55.84015
457.02        55.93295
457.46        55.75063
457.91        55.61897
458.35        55.57122
458.79        55.48453
459.24        55.39676
459.68        55.40387
460.13        55.53923
460.57        55.42719
461.01        55.02813
461.46          55.391
461.90        55.15744
462.34        54.67491
462.79        55.23495
463.23        55.09522
463.68        55.60753
464.12        55.38296
464.56        54.86111
465.01        54.96746
465.45        55.45929
465.89        55.35938
466.34        54.81651
466.78        54.58265
467.22        54.61491
467.67        55.30983
468.11        54.68001
468.55        54.76284
468.99        54.94204
469.44        55.00572
469.88        54.93046
470.32        54.81444
470.77        54.71123
471.21        54.63828
471.65        54.61093
472.10        54.61474
472.54        54.62095
472.98        54.60118
473.42        54.55123
473.87        54.50752
474.31        54.44355
474.75        54.38857
475.20        54.33385
475.64        54.25637
476.08        54.19855
476.52        54.18369
476.97        54.17131
477.41        54.37595
477.85        54.72624
478.29        54.39895
478.74        53.82967
479.18        54.24508
479.62        54.08613
480.06        54.26136
480.50        54.32199
480.95        54.33606
481.39        54.16711
481.83        54.83075
482.27        54.89755
482.72        54.34078
483.16        54.58633
483.60         54.8184
484.04         54.8599
484.48        54.62807
484.93        54.53743
485.37        54.73121
485.81        54.25689
486.25        54.31184
486.69        54.76077
487.14        54.55517
487.58        54.86027
488.02        54.45403
488.46        54.30896
488.90        54.29787
489.34        54.46356
489.79        53.97152
490.23        54.27249
490.67        54.31425
491.11        54.50118
491.55        54.55314
491.99        54.48407
492.43         54.4727
492.88        54.50776
493.32        54.48617
493.76        54.38189
494.20        54.35137
494.64        54.43542
495.08        54.17685
495.52        54.20676
495.96        54.30585
496.41        54.53701
496.85        54.31076
497.29        53.73959
497.73        53.72408
498.17        53.95197
498.61        54.16223
499.05        54.15324
499.49         53.9766
499.93        53.74306
500.37        53.68867
500.82        53.81136
501.26        54.06417
501.70        54.32876
502.14          54.017
502.58        53.68132
503.02        53.54742
503.46        53.73862
503.90         53.9565
504.34        54.10545
504.78        54.21854
505.22        54.28487
505.66        54.21841
506.10        54.04185
506.54        54.05892
506.98        54.33938
507.42        53.82255
507.86        54.24356
508.30        54.18719
508.74        54.06508
509.18          53.934
509.62        53.80569
510.06        53.74392
510.50        53.73085
510.94        53.70219
511.38        53.66311
511.82        53.68093
512.26        53.75127
512.70        53.83209
513.14        53.89429
513.58        53.90918
514.02        53.86866
514.46        53.77938
514.90        53.66054
515.34        53.59611
515.78        53.61026
516.22        53.62873
516.66        53.49214
517.10        53.84164
517.54        53.62975
517.98        53.67949
518.42        53.69721
518.86        53.73059
519.30        53.77897
519.74        53.80318
520.18        53.81655
520.62        53.90134
521.06        54.01692
521.50        53.97105
521.93         53.7947
522.37        53.70814
522.81        53.73273
523.25        53.75387
523.69        53.75338
524.13        53.75256
524.57        53.74699
525.01        53.73073
525.45         53.7238
525.89        53.75732
526.32        53.82978
526.76        53.93064
527.20        54.02227
527.64        54.04881
528.08        53.99878
528.52        53.89497
528.96        53.76987
529.40        53.66702
529.83         53.6003
530.27        53.58455
530.71         53.5967
531.15         53.5964
531.59        53.57634
532.03        53.55559
532.46        53.54074
532.90        53.55219
533.34        53.58762
533.78         53.6351
534.22         53.6828
534.66        53.71574
535.09        53.72108
535.53        53.72097
535.97        53.70484
536.41        53.67178
536.85        53.62435
537.28        53.56292
537.72         53.5028
538.16        53.46951
538.60        53.46763
539.04        53.49379
539.47        53.51331
539.91        53.51655
540.35        53.48474
540.79        53.42744
541.22        53.36715
541.66         53.3534
542.10        53.38937
542.54        53.45618
542.97        53.51969
543.41        53.55449
543.85        53.55083
544.29        53.53498
544.72        53.50568
545.16        53.50943
545.60        53.54418
546.04        53.52596
546.47         53.4945
546.91        53.66361
547.35        53.95705
547.79        54.05682
548.22        53.90553
548.66        53.79587
549.10        53.45681
549.53        53.40778
549.97        53.53082
550.41        53.53662
550.84        53.40165
551.28        53.37167
551.72        53.47175
552.15        53.50054
552.59        53.43748
553.03        53.78349
553.46        53.66808
553.90        53.73032
554.34         53.7096
554.77        53.63492
555.21        53.54703
555.65        53.51196
556.08        53.53717
556.52        53.62793
556.96          53.758
557.39        53.83622
557.83        53.81267
558.27        54.00636
558.70        53.71727
559.14         53.7232
559.57        53.80146
560.01        53.97181
560.45        54.13335
560.88         54.0395
561.32         53.7971
561.75        53.68287
562.19         53.7479
562.63        53.84494
563.06        53.90828
563.50        53.83983
563.93        53.66508
564.37        53.58333
564.80        53.60995
565.24        53.74916
565.68        53.94759
566.11         54.0442
566.55        54.03011
566.98        54.05999
567.42        54.13544
567.85        53.97543
568.29        53.71314
568.72        53.76306
569.16        54.10148
569.60        54.18399
570.03        54.19798
570.47        54.15412
570.90        54.08244
571.34        54.24081
571.77        54.55818
572.21         54.1167
572.64         54.3382
573.08        54.12469
573.51        54.38789
573.95        54.60708
574.38        54.16116
574.82        54.78852
575.25        54.55964
575.69        54.45332
576.12        54.11354
576.56        54.44631
576.99        54.74604
577.42        54.33603
577.86        54.32919
578.29        54.56995
578.73        54.96825
579.16        54.43381
579.60        54.11357
580.03        54.44867
580.47        54.46045
580.90        54.52783
581.33        54.40717
581.77        54.55259
582.20        55.00496
582.64        54.71341
583.07        54.43636
583.51        54.14115
583.94          54.527
584.37        54.42119
584.81        54.08407
585.24        54.07959
585.68        54.72986
586.11        54.46803
586.54        54.22275
586.98        54.23623
587.41        54.33211
587.85        54.89919
588.28        54.52405
588.71         54.5233
589.15          54.575
589.58        54.40315
590.01        54.40629
590.45        54.07482
590.88        54.26628
591.31        54.03241
591.75        54.01872
592.18        54.06042
592.61        54.24635
593.05        54.32988
593.48        54.58173
593.91         54.4597
594.35        54.26388
594.78         54.3945
595.21        54.33799
595.65        54.40172
596.08        54.37448
596.51           54.55
596.94        54.42141
597.38        54.44324
597.81        54.49582
598.24        54.42761
598.68          54.532
599.11        54.38491
599.54        54.48935
599.97        54.58116
600.41        54.48655
600.84        54.54958
601.27        54.51844
601.70        54.60529
602.14        54.21522
602.57        54.19565
603.00        54.39848
603.43        54.55309
603.87        55.08528
604.30        54.88012
604.73        54.60722
605.16         54.3853
605.60        54.71678
606.03        54.82437
606.46         54.7619
606.89        54.56017
607.32         54.1204
607.76        54.62604
608.19        54.53593
608.62        54.51522
609.05        55.31852
609.48        54.83782
609.92        54.89129
610.35        54.89425
610.78        54.77105
611.21        54.63785
611.64        54.62295
612.07        54.61222
612.50        54.65305
612.94        54.65625
613.37        54.63723
613.80        54.62648
614.23        54.62908
614.66        54.54235
615.09        54.58453
615.52        54.50191
615.96         54.3858
616.39        54.39144
616.82        54.54497
617.25        54.47313
617.68        54.77472
618.11        54.66886
618.54        54.55692
618.97        54.43027
619.40        54.33232
619.84         54.5358
620.27        54.47648
620.70        54.34411
621.13        54.07387
621.56         54.1628
621.99        54.67715
622.42        54.83136
622.85        54.60803
623.28        54.67267
623.71        54.68314
624.14        54.68116
624.57        54.87548
625.00        54.80033
625.43        54.66975
625.86        54.59919
626.29        54.60397
626.72         54.6451
627.15         54.4178
627.58        54.34258
628.01        54.38141
628.44        54.21934
628.87        54.03683
629.30        54.56498
629.73        54.34668
630.16        54.46618
630.59        54.31134
631.02        54.53814
631.45        54.31516
631.88         54.3446
632.31        54.38302
632.74        54.18207
633.17        54.28773
633.60        54.24293
634.03        54.21956
634.46        54.25196
634.89        54.24938
635.32        54.26838
635.75        54.27217
636.18        54.26968
636.61        54.26218
637.04        54.25546
637.47        54.25322
637.89        54.26017
638.32        54.26106
638.75        54.25572
639.18         54.2429
639.61        54.22125
640.04        54.20388
640.47        54.21107
640.90        54.24507
641.33        54.30201
641.76        54.35247
642.18        54.35489
642.61        54.28949
643.04        54.17529
643.47         54.0584
643.90        54.01863
644.33        54.07254
644.76        54.18187
645.18         54.2955
645.61         54.3588
646.04        54.33639
646.47        54.18268
646.90        53.96544
647.33        53.86009
647.75        53.89331
648.18        54.01733
648.61        54.18444
649.04        54.27306
649.47        54.24857
649.89        54.41491
650.32        54.22122
650.75        54.33958
651.18        54.53104
651.61        54.46207
652.03        54.20928
652.46        54.07132
652.89        54.08191
653.32        54.29969
653.74        54.67421
654.17        54.18327
654.60        54.10454
655.03        53.92894
655.46        53.94378
655.88        54.33092
656.31        55.29684
656.74        57.51466
657.16         56.1886
657.59        54.61769
658.02        54.03148
658.45        54.35575
658.87        54.46564
659.30        54.85738
659.73        54.53537
660.15        53.97466
660.58        54.44569
661.01        54.62291
661.44        54.81601
661.86        54.73138
662.29        54.42383
662.72        54.23051
663.14        54.20938
663.57        54.24151
664.00        54.29038
664.42         54.3136
664.85        54.30817
665.27         54.2236
665.70        54.25314
666.13        54.25745
666.55        54.29709
666.98        54.36403
667.41        54.42875
667.83        54.44862
668.26         54.4253
668.69        54.32345
669.11        54.18158
669.54        54.25634
669.96        54.60452
670.39        54.41832
670.82        54.93885
671.24        55.00512
671.67         54.9649
672.09        54.81598
672.52        54.64327
672.94        54.49939
673.37        54.42201
673.80        54.43578
674.22        54.52202
674.65        54.57142
675.07        54.58273
675.50        54.59601
675.92         54.6212
676.35        54.63875
676.77        54.64809
677.20        54.66969
677.62        54.72621
678.05        54.76476
678.47         54.7655
678.90        55.04473
679.32        55.01507
679.75         55.1017
680.17        55.12264
680.60        55.15853
681.02        55.18925
681.45        55.05882
681.87        54.86586
682.30        54.82734
682.72        54.96431
683.15        55.06851
683.57        55.07911
684.00        55.16813
684.42        54.94867
684.85        54.91636
685.27        54.95052
685.70        54.96421
686.12        54.93467
686.54        54.91465
686.97        54.90126
687.39        54.90553
687.82        54.93071
688.24        54.95687
688.66        54.96348
689.09        55.16575
689.51        55.14764
689.94        55.27513
690.36         55.4031
690.78        55.47926
691.21        55.49381
691.63        55.43479
692.06        55.34915
692.48        55.33569
692.90         55.3925
693.33        55.41602
693.75        55.41361
694.17        55.41083
694.60        55.39273
695.02        55.51218
695.44        55.51019
695.87         55.4148
696.29        55.23163
696.71        55.19182
697.14        55.28936
697.56        55.44355
697.98        55.60791
698.41        55.48553
698.83        55.62233
699.25        55.51232
699.68        55.34061
700.10        55.37044
700.52        55.27707
700.94        55.31011
701.37        55.33121
701.79         55.3454
702.21        55.32583
702.64        55.29656
703.06        55.26721
703.48        55.24589
703.90        55.24149
704.33        55.24384
704.75        55.26281
705.17        55.29763
705.59        55.34615
706.01        55.40469
706.44        55.46586
706.86        55.53218
707.28        55.58899
707.70        55.63609
708.12        55.67425
708.55        55.69587
708.97        55.69474
709.39        55.68245
709.81        55.66269
710.23        55.64607
710.66        55.63968
711.08        55.65156
711.50        55.66949
711.92        55.68788
712.34        55.70507
712.76         55.7207
713.19        55.73079
713.61        55.77061
714.03        55.82072
714.45        55.88577
714.87        55.95538
715.29        55.97606
715.71        55.93585
716.13        55.99175
716.56        55.88174
716.98        55.87628
717.40        55.89193
717.82        55.92773
718.24        55.96744
718.66        55.98806
719.08        55.98703
719.50        55.97083
719.92        55.95581
720.34        55.96587
720.76        56.00516
721.19         56.0559
721.61        56.11874
722.03        56.16847
722.45        56.19935
722.87        56.22091
723.29        56.23611
723.71        56.24901
724.13        56.26156
724.55         56.2728
724.97        56.31118
725.39        56.36349
725.81        56.41926
726.23        56.58521
726.65        56.85041
727.07        56.61936
727.49        56.81299
727.91        56.68521
728.33        56.55984
728.75        56.53455
729.17        56.61758
729.59        56.68354
730.01        56.70484
730.43        56.74384
730.85         56.7882
731.27        56.78116
731.69        56.73606
732.10        56.66957
732.52        56.75021
732.94        56.57497
733.36        56.26667
733.78        56.14047
734.20        56.22907
734.62        56.35291
735.04        56.47572
735.46        56.60913
735.88         56.7364
736.30        56.86779
736.72        56.94976
737.13        56.93919
737.55        56.80449
737.97        56.48275
738.39         56.1314
738.81        56.21015
739.23        56.67202
739.65        56.95698
740.06        56.92867
740.48        56.93369
740.90        56.92501
741.32        56.67402
741.74        56.29712
742.16        56.14915
742.57        56.30712
742.99        56.64352
743.41        57.03943
743.83        57.29419
744.25         57.3482
744.67        57.26016
745.08        57.12227
745.50        57.04472
745.92        57.08064
746.34        57.19461
746.75        57.31595
747.17        57.33212
747.59        57.22299
748.01        57.00145
748.42        56.77655
748.84        56.74523
749.26        56.90928
749.68        57.15136
750.09        57.36206
750.51        57.33963
750.93        57.13028
751.35        57.06624
751.76        57.17181
752.18         57.2032
752.60        57.16624
753.01        57.24379
753.43         57.3733
753.85        57.40456
754.27        57.31862
754.68        57.15953
755.10        56.99846
755.52        56.92234
755.93        56.95414
756.35        57.07263
756.77        57.22388
757.18        57.29723
757.60        57.26128
758.02        57.18521
758.43        57.15544
758.85        56.98689
759.26         57.3177
759.68        57.49614
760.10        57.15495
760.51        57.03393
760.93        57.78061
761.34        56.93904
761.76        57.60833
762.18          57.614
762.59        57.73297
763.01        57.82165
763.42        57.17871
763.84        57.27157
764.26        57.43076
764.67        57.76727
765.09        58.03683
765.50        58.14881
765.92        58.11217
766.33        57.98227
766.75        57.81723
767.16        57.76028
767.58        57.79473
768.00        57.98198
768.41        58.25557
768.83        58.24063
769.24        57.92469
769.66        58.06301
770.07        57.67439
770.49         57.7827
770.90        58.00826
771.32        57.93219
771.73        57.61349
772.15        57.54555
772.56        57.77116
772.97        58.00244
773.39        58.14641
773.80        58.25419
774.22        58.27292
774.63        58.20648
775.05        58.10047
775.46        58.07791
775.88        58.14526
776.29         58.2955
776.70        58.44366
777.12         58.4559
777.53        58.32532
777.95        58.10185
778.36        57.87073
778.77         57.7586
779.19        57.79801
779.60         57.9482
780.02        58.16466
780.43         58.3872
780.84         58.5798
781.26        58.76085
781.67        58.92475
782.09        58.94467
782.50        58.84051
782.91        58.77414
783.33        58.73631
783.74        58.66977
784.15        58.55816
784.57        58.48278
784.98        58.46806
785.39        58.48851
785.81        58.54113
786.22        58.62757
786.63        58.72466
787.04        58.79612
787.46        58.84436
787.87        58.85839
788.28        58.85542
788.70        58.85885
789.11        58.85785
789.52        58.84903
789.93        58.85763
790.35        58.91712
790.76        59.04575
791.17        59.23986
791.58        59.43249
792.00        59.52695
792.41        59.53483
792.82        59.38051
793.23        59.18277
793.65        59.33392
794.06         59.7797
794.47        59.99276
794.88        59.95042
795.29        59.95981
795.71        60.14219
796.12        60.13332
796.53        59.97558
796.94        59.94132
797.35        59.99883
797.76        59.83625
798.18        59.50443
798.59         59.3328
799.00        59.34862
799.41        59.39089
799.82        59.42294
800.23        59.45306
800.64         59.4631
801.06        59.43386
801.47        59.40968
801.88        59.39029
802.29        59.38789
802.70        59.40876
803.11        59.45348
803.52        59.52271
803.93        59.61086
804.34        59.70208
804.75        59.82273
805.17        59.99018
805.58         60.2153
805.99         60.5212
806.40        60.80076
806.81        60.75225
807.22        60.40937
807.63        60.10771
808.04        59.94344
808.45        59.83832
808.86        59.82927
809.27        60.01843
809.68        60.33247
810.09        60.55718
810.50        60.63656
810.91        60.63448
811.32        60.56535
811.73        60.45567
812.14         60.3259
812.55        60.15366
812.96        59.98847
813.37        59.92522
813.78        59.98107
814.19          60.139
814.60        60.31483
815.01        60.36829
815.42        60.27279
815.83        60.06942
816.24        59.84637
816.65        59.77113
817.05        59.89966
817.46        60.14599
817.87        60.45564
818.28        60.71476
818.69         60.8851
819.10         60.9955
819.51        61.05363
819.92        61.07161
820.33        61.05892
820.74        61.00592
821.14        60.92287
821.55        60.85109
821.96        60.79102
822.37        60.74349
822.78        60.70613
823.19         60.6683
823.60        60.62505
824.00        60.58997
824.41        60.53462
824.82        60.46712
825.23         60.3914
825.64        60.32017
826.04        60.26722
826.45        60.21676
826.86        60.18497
827.27        60.17445
827.68        60.21622
828.08        60.38057
828.49        60.60142
828.90        60.89788
829.31        61.22109
829.72        61.38509
830.12        61.35619
830.53          61.598
830.94        61.30691
831.35         61.1468
831.75        60.91642
832.16        60.62349
832.57        60.37438
832.97        60.34145
833.38        60.54879
833.79        60.92945
834.20        61.36745
834.60        61.68572
835.01        61.82964
835.42        61.84599
835.82          61.769
836.23        61.62529
836.64        61.45913
837.04        61.27069
837.45        61.08596
837.86        61.00339
838.26        61.05172
838.67        61.20628
839.08        61.40998
839.48        61.54621
839.89        61.57503
840.29        61.51718
840.70        61.43918
841.11        61.44988
841.51        61.58609
841.92        61.78146
842.33        61.96162
842.73        62.00411
843.14        61.84534
843.54        61.56788
843.95        61.26823
844.35        61.11865
844.76        61.15841
845.17        61.33571
845.57        61.59869
845.98        61.82863
846.38        62.00429
846.79        62.13029
847.19        62.22574
847.60        62.24578
848.00        62.22546
848.41        62.14126
848.81        62.06128
849.22        62.05132
849.62        62.15469
850.03         62.2961
850.43        62.47101
850.84        62.56469
851.24        62.59409
851.65        62.54467
852.05        62.42209
852.46        62.15823
852.86        61.78216
853.27        61.37395
853.67         61.0008
854.07        60.87548
854.48        60.99141
854.88        61.31175
855.29        61.69389
855.69        62.01504
856.10        62.11938
856.50        62.11543
856.90        61.97805
857.31         61.7253
857.71        61.44461
858.12        61.09535
858.52          60.758
858.92        60.51607
859.33        60.38834
859.73        60.41133
860.13        60.55274
860.54           60.74
860.94        60.98884
861.34        61.25025
861.75        61.46566
862.15        61.62205
862.55        61.66547
862.96        61.58128
863.36        61.37961
863.76        61.03743
864.17        60.57667
864.57         60.0583
864.97        59.54512
865.38        59.11655
865.78        58.85082
866.18         58.7447
866.58        58.84834
866.99        59.18906
867.39        59.75645
867.79        60.47971
868.19        61.20462
868.60        61.64009
869.00         61.8185
869.40        61.99342
869.80        62.11598
870.21        61.88945
870.61        61.37263
871.01        60.75603
871.41        60.15123
871.81        59.60141
872.22        59.16924
872.62        58.86387
873.02        58.72767
873.42        59.01779
873.82        59.50272
874.22        59.54864
874.63         59.3658
875.03        59.41024
875.43        59.70591
875.83        61.07515
876.23        60.47026
876.63        59.62326
877.03        58.25371
877.44        55.70341
877.84         179.217
878.24        56.69331
878.64        57.73348
879.04        59.71094
879.44        60.59187
879.84        57.18885
880.24        62.99912
880.64          63.418
881.04        60.95786
881.44        59.05627
881.84        58.32511
882.24        58.88911
882.65          60.101
883.05        60.45933
883.45        59.67398
883.85        58.68233
884.25        57.95226
884.65        57.76894
885.05        58.23736
885.45        59.16154
885.85        60.12769
886.25        60.57205
886.65        60.37547
887.05        59.72957
887.45        58.89884
887.85        58.32753
888.25        58.18155
888.65        58.33538
889.04        58.70511
889.44        59.15563
889.84        59.59045
890.24        60.02266
890.64        60.41248
891.04        60.70271
891.44        60.87805
891.84        60.93967
892.24        60.85092
892.64         60.5754
893.04        60.14852
893.44         59.6259
893.83        59.17057
894.23        58.98138
894.63        59.10719
895.03        59.48811
895.43        59.99811
895.83        60.40831
896.23        60.63943
896.63        60.74639
897.02        60.75807
897.42         60.7818
897.82        60.82533
898.22        60.84563
898.62        60.85422
899.01        60.89042
899.41        60.93527
899.81        61.00479
900.21        61.04349
900.61        60.94656
901.00        60.68929
901.40        60.37963
901.80        60.12418
902.20        59.93324
902.59        59.81269
902.99        60.05112
903.39        60.71825
903.79        60.08473
904.18        61.02657
904.58        61.20319
904.98        61.37546
905.38        61.31592
905.77        61.01225
906.17        60.53434
906.57         60.0082
906.96        59.75784
907.36        59.85361
907.76        60.22142
908.15        60.73977
908.55        61.05342
908.95        61.10985
909.34        60.95698
909.74        60.74535
910.14        60.67387
910.53        60.79418
910.93        61.02668
911.33        61.22627
911.72        61.16903
912.12        60.82481
912.52        60.28761
912.91        59.72081
913.31        59.45262
913.70         59.5352
914.10        59.87786
914.49        60.33849
914.89        60.60014
915.29        60.59097
915.68        60.36785
916.08         60.0941
916.47        59.97967
916.87        60.10612
917.26        60.40702
917.66        60.71823
918.05        60.79694
918.45         60.5844
918.84        60.18298
919.24        59.80359
919.64        59.84369
920.03        60.37171
920.42        61.20888
920.82        62.07151
921.21        62.53137
921.61        62.49691
922.00        62.17012
922.40        61.76536
922.79        61.48124
923.19        61.01336
923.58        61.25916
923.98        62.65266
924.37        62.50529
924.77        59.25828
925.16         68.2345
925.55        61.63101
925.95        62.40361
926.34        62.63301
926.74        62.14774
927.13         60.8924
927.52        60.07161
927.92        60.21029
928.31        60.63421
928.70        61.22603
929.10        61.73598
929.49        62.10886
929.89         62.4409
930.28        62.65765
930.67        62.52755
931.07        62.05259
931.46        61.17957
931.85        60.24438
932.24         60.2981
932.64        61.49846
933.03        62.91394
933.42        63.65601
933.82        66.11605
934.21        64.30707
934.60        62.90066
934.99        61.55264
935.39        61.46752
935.78        62.64937
936.17        65.41347
936.56        72.58699
936.96         65.3195
937.35        68.89259
937.74        64.59722
938.13        61.08825
938.53        58.52082
938.92        57.97382
939.31        59.83865
939.70         62.3787
940.09        63.79239
940.49        63.67719
940.88        62.65638
941.27        61.20424
941.66        60.21305
942.05        60.06536
942.44        60.38526
942.84        60.86819
943.23        61.23148
943.62        61.34409
944.01        61.32921
944.40        61.32974
944.79         61.5324
945.18        61.95742
945.57        62.49744
945.97        62.88822
946.36        62.85841
946.75        62.31496
947.14        61.36842
947.53        60.31613
947.92        59.67349
948.31        59.59861
948.70        59.95142
949.09        60.47567
949.48        60.75788
949.87        60.69212
950.26        60.41962
950.65        60.08499
951.04        59.91805
951.43        59.99185
951.82        60.20115
952.21        60.48798
952.60        60.77939
952.99        61.00392
953.38         61.1561
953.77         61.2042
954.16        61.08453
954.55        60.81153
954.94        60.45911
955.33        60.02163
955.72        59.51411
956.11        58.99963
956.50         58.4684
956.89        58.20974
957.28        58.65483
957.66        59.84675
958.05        61.55258
958.44        63.19535
958.83        63.91244
959.22        63.52566
959.61        62.20695
960.00        60.54948
960.39        59.73601
960.78        60.12377
961.16        61.37386
961.55        62.70252
961.94        63.14519
962.33        62.52073
962.72        61.12938
963.11        59.50392
963.49        58.72583
963.88        59.17047
964.27        60.42087
964.66        61.90273
965.04        62.86843
965.43        63.07096
965.82        62.78949
966.21        62.22239
966.60         61.7094
966.98        61.40039
967.37        61.17257
967.76        61.00746
968.15        60.89434
968.53        60.84302
968.92        60.89363
969.31        61.02149
969.69        61.13582
970.08        61.18551
970.47        61.15776
970.86        61.13715
971.24        61.29275
971.63        61.61524
972.02        62.03331
972.40        62.37037
972.79         62.2739
973.17        61.75404
973.56        60.94343
973.95        60.08804
974.33        59.62651
974.72        59.70067
975.11        60.15243
975.49        60.94023
975.88        61.90056
976.26        62.98563
976.65        64.14389
977.04        65.12338
977.42        65.53268
977.81        65.26853
978.19        64.32638
978.58        63.30635
978.96         63.2564
979.35        64.36253
979.74        66.21739
980.12        68.00531
980.51        68.51092
980.89        67.68962
981.28        65.74684
981.66        63.30052
982.05        61.93682
982.43        62.26673
982.82        63.91027
983.20        65.96742
983.59        67.04467
983.97        66.82574
984.35        65.64107
984.74        64.06649
985.12        63.19355
985.51        63.31584
985.89        64.16134
986.28        65.08788
986.66        65.26856
987.04        64.59828
987.43        63.24251
987.81        61.55528
988.20        61.99389
988.58        64.96327
988.96        66.72398
989.35        66.03912
989.73        73.21182
990.12         69.3679
990.50        68.99227
990.88        67.50941
991.27        66.33436
991.65        65.68549
992.03        65.56762
992.42        65.87873
992.80        65.73056
993.18        64.95425
993.56        63.89818
993.95        62.88109
994.33        62.31803
994.71        62.35344
995.10        62.79932
995.48        63.50935
995.86        64.25993
996.24        64.93106
996.63        65.49578
997.01        66.01141
997.39        66.37691
997.77        66.55283
998.15        66.49677
998.54        66.32021
998.92        66.11251
999.30        65.95943
999.68        65.93157
1000.06        65.87885
1000.45        65.45734
1000.83        64.75291
1001.21        63.91422
1001.59        63.46745
1001.97        64.14317
1002.35        65.87254
1002.73        68.17539
1003.12        70.42513
1003.50        71.93848
1003.88        72.56542
1004.26        72.53034
1004.64        71.92473
1005.02        70.98219
1005.40        69.87836
1005.78        68.55529
1006.16        67.27599
1006.54        66.43352
1006.92        66.16061
1007.30        66.53629
1007.69        67.17059
1008.07        67.51791
1008.45        67.42496
1008.83        66.94446
1009.21        66.61751
1009.59        67.50743
1009.97        69.62093
1010.35        72.23788
1010.73        74.44309
1011.11        75.56628
1011.49        75.70751
1011.86         74.7596
1012.24        72.77265
1012.62        73.85645
1013.00         74.8685
1013.38        75.27866
1013.76         73.3012
1014.14        78.05605
1014.52        84.65943
1014.90        75.65974
1015.28        76.42265
1015.66        77.71171
1016.04        73.49438
1016.41        74.16898
1016.79        73.57178
1017.17        73.21672
1017.55        72.35155
1017.93        71.39935
1018.31        71.01242
1018.69        71.55754
1019.06        73.11352
1019.44        75.29777
1019.82        77.28281
1020.20        78.01427
1020.58        77.28988
1020.95        75.10467
1021.33        72.02636
1021.71          70.012
1022.09        70.28297
1022.46        72.09673
1022.84        74.20945
1023.22        75.73823
1023.60        76.68436
1023.97        77.42008
1024.35         78.1034
1024.73        78.86874
