SpectraSmart Spectrum 2.9.0.0
--------- Device Information -----------
Spectrum Name :  反射率_0
Saving Time :  2024/04/21 00:38:12
Spectro-Module Model Name : SE2030-DUVN
Spectro-Module Serial Number : OS361AC55029948
Wavelength Start : 200
Wavelength End : 1025
Wavelength Unit : Wavelength(nm)
Spectrum Unit : Reflectance(%)
-----------Spectrum Setting ------------
Integration Time : 20ms
Average : 10
Boxcar : 0
Background removal :  enabled
linearity correction :  enabled
SC :  disabled
Intensity correction :  disabled
DWT denoise :  enabled
savitzky-golay :  disabled
FFT :  disabled
Running average :  disabled
Kalman :  disabled
High pass :  disabled
---------------BEGIN--------------------
Wavelength(nm)             Reflectance(%)
200.29               0
200.75       -11.97566
201.21        23.13648
201.67         40.7855
202.13        46.11364
202.58        43.94666
203.04        36.57072
203.50        26.29182
203.96        19.98107
204.42         20.9488
204.88        26.64605
205.34        32.34782
205.80         31.0608
206.26        20.43359
206.72        2.060712
207.18       -21.24079
207.64       -40.56122
208.10       -47.25479
208.55       -43.05916
209.01       -23.90182
209.47        6.070349
209.93        29.37667
210.39        43.67096
210.85        51.63564
211.31        55.58797
211.77        57.27901
212.23         57.5013
212.69        54.03943
213.14        39.18307
213.60       -6.325658
214.06       -166.8454
214.52       -591.8514
214.98       -281.9122
215.44       -63.26937
215.90        12.71437
216.36        39.41717
216.81        45.78151
217.27        38.92674
217.73       -7.430703
218.19        578.4689
218.65        279.7514
219.11       -567.4104
219.57       -6.440092
220.02        29.33529
220.48        34.34376
220.94        28.03152
221.40        8.160211
221.86       -37.90895
222.32       -66.80112
222.77       -24.52488
223.23        11.79337
223.69         30.0463
224.15         36.3292
224.61        36.48145
225.06        33.85698
225.52         29.3623
225.98        23.89435
226.44        18.24739
226.90        11.15144
227.36        6.214068
227.81        9.923471
228.27        19.04302
228.73        28.77512
229.19        34.95353
229.65        35.21266
230.10        30.30382
230.56        21.60647
231.02        10.56304
231.48        3.293465
231.93        4.148647
232.39        10.71541
232.85        18.14722
233.31        22.35704
233.77         23.5424
234.22        23.51102
234.68         22.6683
235.14        21.65498
235.60        21.13636
236.05        20.02597
236.51        18.63269
236.97         23.7077
237.43        35.46536
237.88        43.54284
238.34        44.18949
238.80        65.13155
239.26         56.4566
239.71        54.40126
240.17        46.20353
240.63        38.17511
241.08        34.89024
241.54        39.23671
242.00        50.49567
242.46        58.15104
242.91        59.67252
243.37        56.21453
243.83        49.00552
244.28        43.96534
244.74        45.04244
245.20        48.52718
245.66        51.89524
246.11        53.18819
246.57        51.90782
247.03        49.40801
247.48        44.80121
247.94        35.78953
248.40        17.74049
248.85       -29.32266
249.31       -179.9708
249.77       -312.8789
250.22       -85.52103
250.68        12.27643
251.14        46.06323
251.59         60.1838
252.05        68.79648
252.51        76.98651
252.96        83.75433
253.42        83.20056
253.88         73.2702
254.33        59.28651
254.79        51.21896
255.25        53.48539
255.70        60.76038
256.16        68.39233
256.62         74.0268
257.07        76.52763
257.53        77.13047
257.99        76.54832
258.44        74.83798
258.90        72.80585
259.35        70.15921
259.81        67.52303
260.27        64.99262
260.72        62.83347
261.18        61.42543
261.63        60.29167
262.09        59.41819
262.55        58.30848
263.00        56.85385
263.46        55.39043
263.91        53.94616
264.37        53.02063
264.83        52.52195
265.28        52.21897
265.74         51.9735
266.19        51.38054
266.65        50.45744
267.11        49.26714
267.56        47.92611
268.02        46.71162
268.47        45.64117
268.93        44.68129
269.38        43.71122
269.84        42.61611
270.30         41.3675
270.75        40.03222
271.21        38.75166
271.66        37.65908
272.12        36.81522
272.57        36.14364
273.03        35.56927
273.48        34.93158
273.94        34.21962
274.39        33.44854
274.85        32.70378
275.31        32.04164
275.76        31.46623
276.22        30.97633
276.67        30.52777
277.13        30.14676
277.58        29.77986
278.04         29.4536
278.49        29.09278
278.95        28.67592
279.40        28.15896
279.86        27.59546
280.31         26.9923
280.77        26.45211
281.22          25.963
281.68        25.56158
282.13        25.18759
282.59        24.82881
283.04        24.45961
283.50        24.12041
283.95         23.8569
284.41        23.76406
284.86        23.83958
285.32        24.06103
285.77        24.32355
286.22         24.4987
286.68         24.5761
287.13        24.54405
287.59        24.53689
288.04        24.65152
288.50        24.87687
288.95        25.28415
289.41         25.7819
289.86        25.75727
290.32        25.12771
290.77        25.85201
291.22         24.8916
291.68        25.01826
292.13        25.35382
292.59        25.93738
293.04        26.71808
293.50        27.68304
293.95        28.81978
294.40        30.10676
294.86        31.49501
295.31        32.89249
295.77         34.2718
296.22        35.62548
296.68        36.99656
297.13        38.45754
297.58        40.03695
298.04        41.70436
298.49        43.43285
298.95        45.19992
299.40        46.96758
299.85         48.7575
300.31        50.52708
300.76        52.17963
301.21        53.72849
301.67        55.23441
302.12        56.78296
302.58        58.61691
303.03        60.73468
303.48        63.09916
303.94         65.5831
304.39        67.92716
304.84        70.06913
305.30         72.0919
305.75         74.0177
306.20        76.00121
306.66        78.08006
307.11        80.14456
307.57        82.18529
308.02         84.1107
308.47        85.92626
308.93         87.6954
309.38        89.37952
309.83        90.98797
310.29        92.56631
310.74        94.05923
311.19        95.49598
311.65        96.89684
312.10        98.24538
312.55        99.53584
313.00        100.7654
313.46        101.9313
313.91        103.0109
314.36         104.021
314.82        104.9438
315.27        105.7402
315.72        106.4262
316.18        107.0169
316.63        107.5788
317.08        108.2227
317.53        108.9597
317.99         109.744
318.44         110.489
318.89        111.0375
319.35        111.3536
319.80         111.505
320.25        111.5583
320.70        111.6288
321.16        111.7552
321.61        111.9237
322.06        112.1443
322.51        112.4414
322.97        112.7883
323.42        113.2194
323.87        113.6491
324.32        113.9476
324.78        114.0672
325.23        114.0862
325.68        114.0661
326.13         114.151
326.59        114.3567
327.04        114.6976
327.49        115.1127
327.94        115.5332
328.39        115.9292
328.85        116.2931
329.30        116.6753
329.75        117.0116
330.20        117.2984
330.66        117.4929
331.11        117.7174
331.56        118.0355
332.01        118.4684
332.46        118.9934
332.92        119.4864
333.37        119.8898
333.82        120.1236
334.27         120.235
334.72        120.3164
335.17        120.5229
335.63         120.869
336.08        121.3749
336.53        121.9522
336.98        122.5045
337.43         122.991
337.88        123.4342
338.34        123.8205
338.79        124.1939
339.24        124.5396
339.69        124.8559
340.14        125.1514
340.59        125.4484
341.05        125.7635
341.50        126.1109
341.95        126.5123
342.40         127.002
342.85        127.5711
343.30        128.1867
343.75        128.7918
344.20        129.3059
344.66        129.7032
345.11        129.9745
345.56        130.1278
346.01         130.182
346.46        130.1736
346.91        130.0999
347.36        129.9761
347.81        129.9176
348.26        129.9574
348.72        129.7274
349.17        129.8934
349.62        130.0294
350.07         130.316
350.52        130.7026
350.97        131.0372
351.42        131.0639
351.87         130.727
352.32        130.1098
352.77        129.3957
353.22         128.871
353.67        128.6019
354.13        128.5182
354.58        128.4581
355.03        128.2132
355.48        127.7328
355.93        127.1031
356.38        126.4212
356.83        125.8261
357.28        125.3435
357.73        124.8998
358.18        124.4478
358.63        123.9261
359.08        123.3146
359.53        122.6551
359.98        121.9196
360.43        121.0529
360.88        120.0612
361.33        118.9605
361.78        117.8719
362.23        116.9913
362.68        116.3576
363.13        115.9214
363.58        115.5205
364.03        114.8904
364.48        113.9696
364.93         112.829
365.38        111.6342
365.83        110.6621
366.28        109.9699
366.73        109.4518
367.18        108.9511
367.63        108.2221
368.08        107.2139
368.53        106.0433
368.98        104.7981
369.43        103.5918
369.88         102.471
370.33        101.3897
370.78        100.4133
371.23        99.67328
371.68         99.1866
372.13         98.9203
372.58        98.71324
373.03        98.29088
373.48        97.58176
373.93        96.65231
374.38        95.63253
374.83        94.76393
375.28        94.12337
375.72        93.61506
376.17          93.197
376.62        92.72234
377.07         92.1394
377.52        91.48634
377.97        90.78351
378.42         90.0798
378.87        89.41853
379.32        88.78668
379.77        88.18327
380.22        87.62804
380.67        87.11205
381.11         86.4976
381.56        86.03072
382.01        85.53394
382.46        85.09555
382.91        84.70898
383.36        84.34518
383.81        83.95461
384.26         83.5184
384.71        83.04018
385.15         82.5471
385.60        82.15083
386.05        81.83897
386.50        81.58913
386.95        81.31847
387.40        80.90553
387.85        80.35272
388.29        79.67313
388.74        79.07635
389.19        78.64594
389.64        78.38155
390.09        78.20759
390.54        78.06113
390.98        77.82786
391.43         77.5295
391.88         77.2198
392.33        76.88747
392.78        76.48975
393.23        76.04442
393.67        75.51312
394.12        75.15004
394.57        74.86092
395.02        75.43834
395.47        75.42975
395.91        75.06365
396.36        74.79927
396.81        74.66619
397.26        74.37621
397.71        73.91614
398.15        73.47128
398.60        73.15013
399.05        72.65619
399.50        72.17223
399.95        72.32265
400.39        72.91205
400.84        73.04399
401.29        72.63091
401.74        71.96741
402.18        71.30177
402.63        71.17603
403.08        71.50398
403.53        71.44383
403.97        70.95518
404.42        70.64397
404.87         70.5329
405.32        70.40533
405.76        70.25819
406.21        70.10457
406.66        69.95951
407.11        69.98806
407.55        70.13432
408.00        70.03789
408.45        69.72364
408.90        69.42851
409.34        69.22613
409.79         69.1897
410.24        69.24566
410.68        69.16613
411.13        68.93663
411.58        68.69869
412.03        68.51472
412.47        68.44229
412.92        68.47803
413.37        68.61271
413.81        68.77013
414.26         68.8921
414.71        68.93575
415.15        68.93226
415.60         68.8624
416.05        68.76029
416.49        68.64381
416.94        68.49887
417.39        68.34192
417.83        68.18817
418.28        68.04801
418.73        67.92416
419.17        67.81367
419.62         67.7157
420.07        67.62708
420.51         67.5408
420.96        67.48487
421.41        67.43528
421.85         67.3574
422.30        67.34199
422.74        67.34699
423.19        67.29936
423.64         67.2382
424.08        67.46523
424.53        67.82736
424.98        67.97559
425.42        67.88805
425.87        67.57363
426.31        67.22531
426.76        67.40646
427.21        68.00653
427.65        68.16009
428.10        67.81408
428.54        67.69132
428.99        67.83428
429.44        67.80648
429.88        67.60942
430.33         67.5411
430.77        67.55096
431.22        67.62889
431.66        67.74401
432.11        67.90884
432.56        68.12603
433.00        68.20736
433.45        67.98588
433.89        67.98434
434.34        68.28768
434.78        67.46596
435.23        67.21777
435.67        67.84585
436.12        68.24222
436.57        68.35691
437.01         67.8506
437.46        67.64604
437.90        68.45176
438.35        68.11794
438.79        68.57038
439.24        68.51754
439.68        68.50425
440.13        68.36674
440.57        68.18276
441.02        68.35247
441.46        68.75593
441.91        68.74148
442.35        68.37063
442.80        68.67399
443.24        69.46587
443.69        69.60545
444.13        69.06429
444.58        68.93584
445.02        68.78902
445.47        68.87648
445.91        69.16152
446.36        69.22845
446.80         69.1067
447.24        68.93737
447.69        68.80562
448.13        68.93114
448.58        69.07416
449.02        69.05042
449.47         68.8447
449.91        68.80917
450.36        68.97221
450.80        69.04901
451.25        69.03484
451.69        69.09998
452.13        69.18069
452.58        68.94302
453.02        68.47349
453.47        68.21639
453.91        68.20725
454.36        68.24852
454.80        68.24919
455.24        68.21419
455.69        68.14243
456.13         67.8558
456.58        67.49568
457.02        67.65742
457.46         67.8065
457.91        67.82991
458.35        67.15294
458.79        66.93233
459.24         67.0465
459.68        67.10427
460.13        67.10326
460.57        67.03329
461.01        66.89627
461.46        66.84875
461.90        66.78396
462.34        66.39487
462.79        66.58486
463.23        66.37131
463.68        66.64595
464.12        66.26698
464.56        65.62893
465.01        65.80448
465.45        66.51274
465.89        66.53783
466.34        65.97129
466.78        65.75602
467.22        65.96537
467.67        66.02737
468.11        66.03862
468.55        65.89227
468.99        65.65543
469.44        65.46612
469.88        65.33973
470.32        65.14808
470.77         64.9157
471.21        64.76264
471.65        64.70065
472.10         64.6992
472.54        64.72211
472.98        64.73315
473.42        64.71958
473.87        64.70506
474.31        64.66431
474.75        64.65637
475.20        64.65929
475.64        64.61724
476.08        64.61854
476.52        64.51368
476.97        64.26693
477.41        64.45975
477.85        64.61602
478.29        63.93399
478.74        63.91644
479.18        64.00348
479.62        64.27173
480.06        64.25884
480.50        64.38853
480.95        64.38889
481.39        64.33646
481.83        64.50162
482.27        64.64439
482.72        64.30122
483.16        64.25805
483.60         64.5253
484.04        64.55838
484.48        64.06591
484.93        63.60888
485.37        64.09001
485.81        64.68674
486.25         64.1229
486.69        64.53621
487.14        64.43993
487.58        64.22697
488.02        64.19878
488.46        64.04417
488.90        63.91118
489.34        63.76457
489.79         63.5173
490.23        63.87645
490.67        63.97329
491.11        63.97508
491.55         63.8265
491.99        63.59877
492.43        63.48295
492.88        63.49509
493.32         63.5399
493.76        63.54309
494.20        63.56829
494.64        63.63465
495.08        63.35538
495.52        63.29034
495.96        63.45099
496.41        63.86249
496.85        63.78217
497.29        63.26201
497.73        63.34016
498.17        63.61691
498.61        63.63213
499.05        63.25856
499.49        62.98352
499.93        62.91839
500.37        62.90923
500.82        62.94505
501.26        63.28585
501.70        63.76311
502.14        63.42755
502.58         62.9166
503.02        62.64293
503.46        62.75959
503.90        62.84615
504.34        62.83749
504.78        62.87728
505.22        62.96941
505.66        62.99539
506.10        62.93861
506.54        63.02589
506.98        63.30519
507.42        62.66552
507.86         63.1915
508.30        62.84866
508.74        62.91162
509.18        62.78953
509.62        62.70257
510.06        62.66513
510.50        62.64959
510.94        62.59721
511.38        62.50319
511.82         62.4473
512.26        62.43148
512.70         62.4057
513.14        62.38605
513.58        62.42012
514.02        62.50594
514.46        62.62444
514.90        62.71899
515.34        62.73509
515.78        62.66325
516.22        62.50217
516.66        62.15086
517.10        62.27472
517.54        62.04221
517.98        62.10126
518.42        62.16851
518.86        62.21577
519.30        62.22498
519.74         62.1739
520.18        62.11586
520.62        62.20973
521.06        62.41598
521.50         62.4826
521.93        62.39296
522.37        62.32464
522.81        62.28337
523.25        62.16373
523.69         61.9887
524.13        61.84929
524.57        61.76337
525.01        61.71151
525.45        61.69936
525.89        61.73278
526.32        61.80315
526.76        61.91061
527.20        62.03026
527.64        62.12351
528.08        62.17665
528.52        62.19719
528.96        62.19214
529.40        62.16951
529.83        62.13396
530.27        62.11324
530.71        62.09781
531.15        62.07128
531.59        62.03312
532.03        61.99361
532.46        61.95574
532.90         61.9349
533.34        61.92896
533.78        61.93903
534.22        61.94557
534.66        61.91802
535.09        61.84596
535.53        61.75954
535.97         61.6827
536.41        61.67121
536.85        61.73235
537.28        61.84323
537.72        61.96278
538.16         62.0265
538.60        62.01442
539.04        61.94814
539.47        61.83646
539.91        61.74432
540.35        61.67199
540.79        61.61288
541.22        61.56287
541.66        61.53074
542.10         61.5106
542.54        61.49898
542.97        61.49469
543.41        61.52381
543.85        61.58255
544.29        61.67854
544.72        61.76136
545.16         61.8099
545.60        61.80727
546.04        61.68406
546.47        61.53825
546.91        61.67797
547.35        62.03078
547.79        62.23943
548.22        62.21709
548.66        62.05004
549.10        61.81454
549.53        61.68509
549.97        61.68298
550.41        61.61943
550.84        61.51354
551.28        61.49054
551.72         61.5238
552.15        61.59624
552.59        61.72427
553.03        61.45065
553.46        61.67543
553.90        61.60011
554.34         61.4508
554.77        61.59489
555.21        61.70844
555.65        61.33742
556.08        61.71412
556.52        61.75217
556.96         61.8122
557.39        61.86264
557.83        61.88623
558.27        61.75462
558.70        61.52508
559.14        61.37468
559.57        61.34235
560.01        61.56098
560.45        61.87825
560.88        61.84181
561.32        61.56008
561.75        61.38332
562.19        61.40587
562.63        61.64157
563.06        61.93106
563.50        61.76453
563.93        61.22862
564.37        60.95948
564.80        61.01472
565.24        61.23464
565.68        61.52644
566.11        61.69944
566.55        61.73199
566.98        61.80426
567.42        61.90295
567.85        61.76698
568.29        61.53599
568.72        61.48668
569.16        61.62083
569.60        61.96593
570.03        61.82043
570.47        61.96372
570.90         62.0841
571.34        62.11411
571.77        62.33955
572.21        61.78962
572.64        61.86839
573.08         61.9121
573.51        61.98006
573.95        62.21875
574.38         62.3233
574.82        62.70016
575.25        62.36081
575.69        62.37571
576.12        61.79008
576.56        62.35054
576.99        62.26173
577.42        62.19147
577.86        62.46679
578.29        62.82151
578.73        62.67169
579.16        62.25023
579.60        61.95076
580.03        62.37885
580.47        62.19369
580.90         62.3828
581.33         62.7368
581.77         62.4677
582.20        62.82898
582.64        62.69297
583.07        62.54638
583.51        62.37045
583.94        62.05804
584.37        61.84269
584.81         61.6779
585.24        61.77971
585.68        62.46927
586.11        62.22639
586.54          61.983
586.98        62.18225
587.41        62.46161
587.85        62.39041
588.28        62.20895
588.71        62.29852
589.15        62.18094
589.58         62.0668
590.01        61.98858
590.45        61.70356
590.88        61.76083
591.31        61.45011
591.75        61.60046
592.18        61.72217
592.61        61.97382
593.05        62.13716
593.48        62.21465
593.91        62.38423
594.35        62.12414
594.78        62.10257
595.21        62.10556
595.65        62.07349
596.08        61.95678
596.51        62.10587
596.94         61.9664
597.38        61.91314
597.81        61.79211
598.24         61.9889
598.68        61.89558
599.11        61.66434
599.54        62.04802
599.97        61.75552
600.41        61.60867
600.84        62.06118
601.27        61.94903
601.70        61.81017
602.14        61.71663
602.57        61.64217
603.00        61.75473
603.43        61.68156
603.87        62.02531
604.30        61.93991
604.73        62.06395
605.16        61.70041
605.60        61.75745
606.03        61.78579
606.46        61.99551
606.89        61.92276
607.32        61.44939
607.76        62.38055
608.19        61.86163
608.62        61.96355
609.05        62.37042
609.48        61.93296
609.92        62.05518
610.35        61.71708
610.78        61.87001
611.21         61.5546
611.64        61.68498
612.07        61.73151
612.50        61.88697
612.94        61.89502
613.37        61.71607
613.80        62.02996
614.23        61.73444
614.66        61.66691
615.09        61.50074
615.52         61.5505
615.96        61.35625
616.39        61.41994
616.82        61.30156
617.25        61.50634
617.68        61.55377
618.11        61.47891
618.54        61.39349
618.97        61.28096
619.40         61.1339
619.84        61.31507
620.27        61.28926
620.70        61.16948
621.13        60.91476
621.56        60.92567
621.99        61.16298
622.42        61.41135
622.85        61.64452
623.28        61.06079
623.71        61.46576
624.14        61.36141
624.57        61.30723
625.00        61.54864
625.43         61.1471
625.86        61.16755
626.29        61.30546
626.72        61.08454
627.15        61.16022
627.58        61.05518
628.01        60.99753
628.44        61.14448
628.87        60.69534
629.30        61.31742
629.73        61.11535
630.16        60.99767
630.59        60.99192
631.02        61.24938
631.45        61.05122
631.88         61.0876
632.31         61.1264
632.74        60.98759
633.17         61.0413
633.60        60.98573
634.03        60.94029
634.46         60.9481
634.89        60.90928
635.32        60.89773
635.75        60.87852
636.18        60.86041
636.61        60.84629
637.04        60.84307
637.47        60.85337
637.89        60.87984
638.32        60.90565
638.75         60.9293
639.18         60.9486
639.61        60.96469
640.04        60.98132
640.47        61.00517
640.90        61.03672
641.33        61.07189
641.76         61.1054
642.18        61.13626
642.61        61.14793
643.04        61.14783
643.47        61.13761
643.90        61.12416
644.33        61.11009
644.76         61.0836
645.18        61.04713
645.61        61.02531
646.04         61.0084
646.47         60.9399
646.90        60.84161
647.33        60.80259
647.75        60.82215
648.18        60.87605
648.61        60.95991
649.04         61.0026
649.47        60.97493
649.89        61.22519
650.32        61.07873
650.75        61.11617
651.18        61.11423
651.61        60.95098
652.03        60.70075
652.46          60.615
652.89        60.72924
653.32         60.9561
653.74        61.02234
654.17        61.19027
654.60        60.78097
655.03        60.72355
655.46        60.74113
655.88        61.13254
656.31        62.31158
656.74        65.17888
657.16        63.95784
657.59        62.52858
658.02        61.06122
658.45        61.37472
658.87        61.08479
659.30         60.9542
659.73        60.56413
660.15        60.33362
660.58        60.98065
661.01        61.33613
661.44        61.47641
661.86        61.35124
662.29        61.03788
662.72        60.87044
663.14        60.89376
663.57        60.87082
664.00        60.78291
664.42        60.72481
664.85        60.70262
665.27        60.58909
665.70        60.61152
666.13        60.57448
666.55         60.7114
666.98        60.85314
667.41        60.99805
667.83        61.06746
668.26        61.05425
668.69        60.92613
669.11        60.72505
669.54        60.74109
669.96        61.04319
670.39         60.7317
670.82        61.21961
671.24        61.24335
671.67        61.19796
672.09        61.10204
672.52        61.01115
672.94        60.85672
673.37        60.69794
673.80        60.72349
674.22        60.91331
674.65        61.01752
675.07        61.02928
675.50        61.06948
675.92        61.13848
676.35        61.15982
676.77        61.13028
677.20        61.08316
677.62        61.05898
678.05        61.04482
678.47         61.0347
678.90        61.29353
679.32        61.29602
679.75         61.3966
680.17        61.43468
680.60        61.43915
681.02        61.41227
681.45         61.3706
681.87         61.3327
682.30        61.24957
682.72         61.1657
683.15        61.19872
683.57        61.30738
684.00        61.41367
684.42        61.15799
684.85        61.18924
685.27        61.15789
685.70        61.14321
686.12        61.06333
686.54        61.04473
686.97        61.09318
687.39        61.09057
687.82         61.1619
688.24        61.29577
688.66        61.21036
689.09        61.39958
689.51          61.321
689.94        61.39362
690.36        61.46468
690.78        61.49678
691.21        61.49359
691.63        61.44144
692.06          61.392
692.48        61.46278
692.90        61.61677
693.33        61.67489
693.75        61.63217
694.17        61.53316
694.60        61.40752
695.02        61.49334
695.44        61.52153
695.87        61.53044
696.29        61.45765
696.71        61.44131
697.14        61.50651
697.56         61.6354
697.98        61.74707
698.41        61.97063
698.83        61.80487
699.25        61.71576
699.68        61.59739
700.10        61.50565
700.52        61.45693
700.94        61.45028
701.37        61.46006
701.79        61.47037
702.21        61.45578
702.64        61.43251
703.06        61.41423
703.48        61.42776
703.90        61.48063
704.33        61.55794
704.75        61.63871
705.17        61.67215
705.59        61.64898
706.01        61.57973
706.44        61.50943
706.86        61.53052
707.28        61.64573
707.70        61.82684
708.12        62.01455
708.55        62.10915
708.97        62.08282
709.39        61.97459
709.81        61.83329
710.23        61.75012
710.66        61.75558
711.08         61.8303
711.50        61.92335
711.92        61.97144
712.34        61.95893
712.76        61.91088
713.19        61.84361
713.61        61.82748
714.03        61.85606
714.45        61.92312
714.87        62.02177
715.29        62.10277
715.71        62.14686
716.13        62.32114
716.56        62.30885
716.98        62.36656
717.40        62.38863
717.82        62.38721
718.24        62.35661
718.66        62.29611
719.08        62.21645
719.50        62.11888
719.92        62.04193
720.34        62.04195
720.76        62.12568
721.19        62.26882
721.61         62.4301
722.03        62.51032
722.45        62.48677
722.87        62.38664
723.29        62.26534
723.71        62.21529
724.13        62.26212
724.55        62.38045
724.97        62.54209
725.39        62.65434
725.81        62.68582
726.23         62.7423
726.65        62.86198
727.07        62.65601
727.49        62.85573
727.91        62.85963
728.33        62.86834
728.75        62.88042
729.17        62.88241
729.59        62.79521
730.01        62.66224
730.43        62.63934
730.85        62.74104
731.27         62.8935
731.69        63.03862
732.10           63.05
732.52        63.10328
732.94         62.8337
733.36        62.41084
733.78        62.28222
734.20        62.52289
734.62        62.75508
735.04        62.82865
735.46        63.48946
735.88        63.23626
736.30        63.28479
736.72        63.21715
737.13        63.16156
737.55        63.11124
737.97         62.9374
738.39        62.73616
738.81        62.96078
739.23        63.48141
739.65        63.47126
740.06        62.97753
740.48        62.86168
740.90         63.1199
741.32        63.30294
741.74        63.35553
742.16        63.42234
742.57        63.50034
742.99         63.5261
743.41        63.52907
743.83        63.53741
744.25        63.55604
744.67        63.57734
745.08        63.61293
745.50        63.63342
745.92        63.65014
746.34         63.6798
746.75        63.69901
747.17        63.66122
747.59        63.56532
748.01        63.39283
748.42        63.22638
748.84        63.22153
749.26        63.36271
749.68        63.56881
750.09        63.75669
750.51        63.66816
750.93        63.38826
751.35        63.46106
751.76        63.86794
752.18        63.82598
752.60        63.77161
753.01        63.71101
753.43        63.81874
753.85         63.6562
754.27        63.15219
754.68        63.63703
755.10        63.37825
755.52        62.81183
755.93         63.2683
756.35        63.29644
756.77        63.41602
757.18        63.52526
757.60        63.63181
758.02        63.72851
758.43         63.8561
758.85        63.68809
759.26        64.25806
759.68          64.042
760.10        63.84478
760.51        63.35544
760.93        63.58983
761.34        63.71488
761.76        64.03831
762.18        64.24026
762.59        64.23403
763.01        64.14652
763.42         63.2679
763.84        63.21289
764.26        63.41497
764.67        63.95865
765.09        64.50528
765.50        64.58543
765.92         64.2772
766.33        64.14378
766.75        64.24676
767.16         64.2817
767.58        64.19977
768.00         64.4281
768.41        64.86656
768.83        64.71835
769.24        64.08559
769.66        64.23674
770.07        64.26318
770.49         64.4922
770.90        64.56052
771.32         64.3653
771.73         64.0093
772.15        63.89799
772.56        64.08357
772.97        64.29941
773.39        64.44415
773.80        64.55854
774.22        64.58189
774.63        64.52458
775.05        64.41545
775.46        64.35629
775.88        64.35256
776.29        64.40588
776.70        64.46755
777.12        64.46857
777.53        64.41524
777.95        64.32998
778.36        64.25789
778.77        64.26086
779.19        64.35156
779.60         64.5051
780.02        64.68626
780.43        64.87492
780.84        65.05271
781.26        65.16425
781.67        65.22299
782.09          65.297
782.50        65.33366
782.91        65.13186
783.33        64.75488
783.74        64.61314
784.15        64.72482
784.57        64.91179
784.98        65.11535
785.39        65.27788
785.81        65.36258
786.22        65.38155
786.63        65.35658
787.04        65.32603
787.46        65.31776
787.87        65.29854
788.28        65.27637
788.70        65.25735
789.11        65.22399
789.52        65.19005
789.93        65.17655
790.35        65.20155
790.76        65.28603
791.17        65.43151
791.58        65.58998
792.00        65.69311
792.41        65.75813
792.82        65.70335
793.23        65.62526
793.65        65.85937
794.06        66.36127
794.47        66.65178
794.88        66.66316
795.29        66.72417
795.71        66.80836
796.12        66.54057
796.53        66.30132
796.94         66.2209
797.35        66.38669
797.76        66.42374
798.18        66.31214
798.59        66.28165
799.00         66.3225
799.41        66.29668
799.82        66.20785
800.23        66.14605
800.64        66.12002
801.06        66.07716
801.47        66.06546
801.88        66.08759
802.29        66.14676
802.70        66.25452
803.11        66.36674
803.52        66.40205
803.93        66.33947
804.34        66.18948
804.75        66.04863
805.17         66.0332
805.58        66.18499
805.99        66.55034
806.40        66.97282
806.81        66.93546
807.22         66.5032
807.63        66.32179
808.04        66.44217
808.45         66.4437
808.86        66.33327
809.27         66.3922
809.68        66.60637
810.09        66.78404
810.50        66.89503
810.91        67.00324
811.32        67.07227
811.73        67.03912
812.14        66.90313
812.55        66.66799
812.96        66.43204
813.37        66.37565
813.78        66.53242
814.19        66.84212
814.60         67.1762
815.01        67.33418
815.42        67.26692
815.83        67.03352
816.24        66.71877
816.65         66.4866
817.05        66.41542
817.46        66.43977
817.87        66.55065
818.28        66.69157
818.69        66.83895
819.10         67.0066
819.51        67.20216
819.92        67.42606
820.33         67.6585
820.74        67.87293
821.14        68.01467
821.55        68.03386
821.96        67.91551
822.37         67.6833
822.78        67.40051
823.19        67.18024
823.60        67.06695
824.00        67.05635
824.41        67.08862
824.82        67.11916
825.23        67.12555
825.64         67.1309
826.04        67.15377
826.45        67.18197
826.86         67.2299
827.27        67.29279
827.68        67.37105
828.08        67.49355
828.49        67.59089
828.90        67.70107
829.31        67.83852
829.72        67.93636
830.12        67.98692
830.53        68.33257
830.94        68.25858
831.35         68.2119
831.75         68.0019
832.16        67.66505
832.57        67.31274
832.97        67.12377
833.38        67.14443
833.79        67.31031
834.20        67.58059
834.60        67.89391
835.01        68.20591
835.42        68.52592
835.82        68.78378
836.23        68.81023
836.64         68.6008
837.04        68.22121
837.45        67.77708
837.86        67.50832
838.26        67.49257
838.67        67.65129
839.08        67.93372
839.48        68.23392
839.89        68.48987
840.29        68.72762
840.70        68.91248
841.11         68.9832
841.51        68.95164
841.92        68.79996
842.33        68.59557
842.73        68.46097
843.14        68.39346
843.54        68.39771
843.95         68.4678
844.35        68.60883
844.76        68.79482
845.17         69.0271
845.57        69.25501
845.98        69.35658
846.38        69.33829
846.79        69.20773
847.19        69.05865
847.60        68.97178
848.00         69.0102
848.41        69.10885
848.81        69.28706
849.22        69.49854
849.62        69.74743
850.03        69.99588
850.43        70.20923
850.84        70.22923
851.24        70.08176
851.65        69.73528
852.05        69.34078
852.46        69.07778
852.86        69.01714
853.27        69.15875
853.67        69.31995
854.07        69.37753
854.48        69.27032
854.88        69.05944
855.29        68.82355
855.69        68.87273
856.10        69.17502
856.50         69.7226
856.90        70.24978
857.31        70.36761
857.71         70.0425
858.12        69.34093
858.52        68.51646
858.92        67.93455
859.33        67.71046
859.73        67.79365
860.13        68.05745
860.54        68.28149
860.94        68.44233
861.34        68.56212
861.75        68.62983
862.15        68.70032
862.55        68.74363
862.96        68.70795
863.36        68.60776
863.76        68.43326
864.17        68.19121
864.57        67.93867
864.97        67.67338
865.38        67.36679
865.78        67.07346
866.18        66.79686
866.58           66.65
866.99        66.79835
867.39        67.27731
867.79        67.97284
868.19         68.6696
868.60        68.98933
869.00        68.93744
869.40        68.78091
869.80        68.54194
870.21        68.10372
870.61        67.59402
871.01        67.11287
871.41        66.75935
871.81        66.58445
872.22        66.60929
872.62        66.83456
873.02        67.17227
873.42         67.5974
873.82        67.87118
874.22        67.56482
874.63        66.97282
875.03        66.69654
875.43        66.83965
875.83        68.01505
876.23        67.67854
876.63        67.20261
877.03         66.3235
877.44        64.52971
877.84        163.0319
878.24        65.60204
878.64        66.31272
879.04        67.65642
879.44        68.06226
879.84        64.98212
880.24         69.4917
880.64        69.60533
881.04        67.39204
881.44        65.81956
881.84        65.42048
882.24        66.26113
882.65        67.58717
883.05        67.87706
883.45         66.8402
883.85        65.34309
884.25        64.00863
884.65        63.45988
885.05          63.886
885.45        64.98659
885.85        66.27529
886.25        67.07896
886.65        67.21887
887.05        66.90941
887.45        66.34162
887.85        65.83183
888.25         65.5239
888.65        65.32331
889.04        65.25115
889.44        65.36115
889.84         65.6313
890.24        66.04824
890.64        66.53347
891.04        66.95564
891.44        67.27636
891.84        67.52206
892.24        67.66204
892.64        67.65996
893.04         67.5306
893.44        67.29068
893.83         67.0757
894.23        67.06749
894.63         67.3073
895.03        67.74511
895.43        68.23799
895.83        68.53658
896.23        68.57158
896.63        68.40934
897.02        68.15405
897.42        68.02559
897.82        68.04533
898.22        68.15613
898.62        68.26147
899.01        68.21976
899.41        67.98155
899.81        67.62041
900.21        67.24364
900.61        67.01585
901.00        66.96762
901.40        67.10763
901.80        67.35102
902.20        67.44571
902.59        67.32933
902.99        67.30109
903.39        67.54063
903.79        66.81268
904.18        67.55881
904.58        67.76948
904.98        68.00092
905.38        67.94819
905.77        67.57851
906.17        67.02737
906.57        66.44563
906.96        66.17429
907.36        66.29704
907.76        66.71675
908.15        67.35344
908.55        67.92205
908.95        68.35877
909.34        68.66535
909.74        68.85868
910.14        68.93719
910.53         68.9062
910.93         68.7455
911.33        68.43365
911.72        67.94505
912.12        67.32494
912.52          66.643
912.91         66.0015
913.31        65.62145
913.70        65.53622
914.10        65.69312
914.49        66.04778
914.89        66.43217
915.29        66.78424
915.68        67.07416
916.08        67.30764
916.47        67.45878
916.87        67.55711
917.26        67.62605
917.66        67.59273
918.05        67.37051
918.45        66.96454
918.84        66.42343
919.24        66.01214
919.64        66.21364
920.03        67.08215
920.42        68.41917
920.82        69.75014
921.21        70.33252
921.61        70.01488
922.00        69.08617
922.40        67.99033
922.79        67.33703
923.19        66.98183
923.58        67.54376
923.98        69.19012
924.37        69.43163
924.77        66.94411
925.16        74.23963
925.55        68.78994
925.95        69.25089
926.34        69.23962
926.74        68.60253
927.13        67.32347
927.52        66.48878
927.92        66.57083
928.31        66.96738
928.70         67.5947
929.10        68.25233
929.49          68.875
929.89        69.53944
930.28        70.04201
930.67        69.92123
931.07         69.1368
931.46        67.72849
931.85        66.23584
932.24        66.00274
932.64        67.25423
933.03         69.0283
933.42        70.34808
933.82        72.77142
934.21        71.37842
934.60        70.05557
934.99        68.61116
935.39        68.18694
935.78        68.89194
936.17        70.95888
936.56        76.86629
936.96        70.82505
937.35        74.12444
937.74         71.0385
938.13        68.69892
938.53        66.92671
938.92        66.46824
939.31        67.73847
939.70        69.40638
940.09        70.09384
940.49        69.51154
940.88        68.11933
941.27        66.54363
941.66        65.96161
942.05        66.73609
942.44        68.38534
942.84        70.14471
943.23        71.04581
943.62        70.85736
944.01        69.87774
944.40        68.67768
944.79        68.22026
945.18        68.76225
945.57        69.97752
945.97        71.25108
946.36        71.75275
946.75        71.22577
947.14        69.94581
947.53        68.43079
947.92        67.55947
948.31        67.59675
948.70        68.26918
949.09        69.10936
949.48         69.4039
949.87        68.98627
950.26        68.10921
950.65        67.14683
951.04        66.68616
951.43        66.89981
951.82        67.59232
952.21        68.47607
952.60        69.07621
952.99         69.2163
953.38        69.01819
953.77        68.69199
954.16        68.53621
954.55        68.62906
954.94        68.90327
955.33        69.14632
955.72        68.99831
956.11        68.39727
956.50          67.481
956.89        66.65012
957.28        66.51541
957.66        67.21392
958.05         68.4595
958.44        69.78273
958.83        70.48241
959.22        70.37877
959.61        69.62215
960.00        68.55965
960.39        67.88187
960.78        67.83545
961.16        68.26156
961.55        68.71482
961.94        68.66419
962.33        68.00549
962.72        66.89365
963.11        65.73855
963.49        65.35816
963.88         65.9842
964.27        67.30788
964.66        68.73341
965.04        69.46938
965.43         69.3084
965.82        68.53331
966.21        67.53492
966.60        67.00739
966.98        67.18008
967.37        67.81916
967.76        68.66641
968.15        69.30406
968.53        69.60484
968.92        69.68314
969.31        69.62921
969.69        69.56625
970.08        69.51301
970.47        69.39611
970.86        69.25203
971.24        69.17967
971.63        69.17868
972.02        69.26575
972.40        69.33878
972.79        69.12941
973.17        68.66457
973.56        68.03452
973.95        67.46087
974.33        67.33895
974.72        67.75132
975.11        68.52032
975.49        69.53317
975.88        70.52401
976.26        71.42909
976.65        72.23497
977.04        72.77205
977.42        72.76221
977.81        72.15049
978.19         70.9516
978.58        69.77394
978.96        69.69962
979.35        70.91688
979.74        72.97593
980.12        75.06737
980.51        76.03955
980.89        75.84837
981.28        74.70158
981.66         73.0533
982.05        72.03974
982.43         72.1175
982.82        72.98613
983.20        74.11342
983.59        74.64309
983.97        74.40584
984.35        73.65123
984.74        72.67647
985.12        72.07596
985.51        72.00945
985.89        72.33865
986.28        72.79607
986.66        73.07627
987.04        73.14246
987.43        73.01087
987.81        72.65797
988.20        73.28638
988.58        75.07348
988.96        75.59935
989.35        74.15634
989.73        79.15151
990.12        76.13019
990.50        76.17123
990.88        75.56618
991.27        75.12907
991.65        74.92069
992.03        75.04044
992.42        75.38302
992.80        75.29309
993.18        74.65019
993.56        73.67129
993.95        72.74693
994.33        72.46161
994.71        72.96919
995.10         74.0657
995.48        75.38394
995.86        76.30785
996.24        76.64111
996.63        76.46732
997.01        76.16022
997.39        76.12036
997.77        76.43159
998.15        76.93922
998.54        77.41595
998.92        77.41158
999.30        76.86375
999.68        75.93019
1000.06        74.86083
1000.45        74.12656
1000.83        74.04371
1001.21        74.43765
1001.59        75.16533
1001.97        75.99268
1002.35        76.76189
1002.73        77.46787
1003.12        78.01939
1003.50         78.3475
1003.88         78.4504
1004.26        78.35887
1004.64        78.08425
1005.02        77.69098
1005.40        77.24532
1005.78        76.75146
1006.16        76.37863
1006.54        76.36398
1006.92        76.73283
1007.30        77.42731
1007.69        78.12579
1008.07         78.4507
1008.45        78.28976
1008.83        77.73186
1009.21        77.04954
1009.59         76.8521
1009.97         77.2896
1010.35        78.03913
1010.73        78.78497
1011.11          79.404
1011.49        79.97309
1011.86        80.30431
1012.24         80.1487
1012.62        81.67179
1013.00        82.30269
1013.38        81.99158
1013.76        79.66131
1014.14        82.78629
1014.52         87.8903
1014.90         80.9282
1015.28        81.94774
1015.66        83.63985
1016.04        81.62374
1016.41        83.31809
1016.79        83.98214
1017.17        84.07079
1017.55        83.02058
1017.93         81.2047
1018.31         79.4096
1018.69        78.59228
1019.06        79.10333
1019.44        80.54484
1019.82        82.13006
1020.20        82.80121
1020.58        82.33008
1020.95        80.78751
1021.33        78.72397
1021.71        77.77551
1022.09        78.70678
1022.46        80.64484
1022.84        82.47149
1023.22        83.40348
1023.60        83.49847
1023.97        83.15192
1024.35        82.56066
1024.73        82.08612
