SpectraSmart Spectrum 2.9.0.0
--------- Device Information -----------
Spectrum Name :  反射率_0
Saving Time :  2024/04/21 00:41:51
Spectro-Module Model Name : SE2030-DUVN
Spectro-Module Serial Number : OS361AC55029948
Wavelength Start : 200
Wavelength End : 1025
Wavelength Unit : Wavelength(nm)
Spectrum Unit : Reflectance(%)
-----------Spectrum Setting ------------
Integration Time : 20ms
Average : 10
Boxcar : 0
Background removal :  enabled
linearity correction :  enabled
SC :  disabled
Intensity correction :  disabled
DWT denoise :  enabled
savitzky-golay :  disabled
FFT :  disabled
Running average :  disabled
Kalman :  disabled
High pass :  disabled
---------------BEGIN--------------------
Wavelength(nm)             Reflectance(%)
200.29               0
200.75       -126.3195
201.21       -54.04908
201.67       -11.77418
202.13        10.89795
202.58        24.56017
203.04        36.10051
203.50        44.45919
203.96        43.41219
204.42        31.00685
204.88        8.984608
205.34       -14.23494
205.80       -28.52733
206.26       -31.63239
206.72       -20.36889
207.18       -2.623754
207.64       -2.318179
208.10       -27.74029
208.55       -70.67683
209.01       -97.90242
209.47       -70.70285
209.93       -24.20273
210.39        13.58416
210.85        37.85321
211.31        49.00473
211.77        51.02077
212.23         46.4556
212.69        31.50549
213.14       -1.743646
213.60       -71.20505
214.06       -288.1561
214.52       -810.6804
214.98       -373.0853
215.44       -97.43896
215.90       -3.914146
216.36        27.34092
216.81        30.91453
217.27        12.34093
217.73       -86.38354
218.19        1109.014
218.65        473.3574
219.11       -1015.385
219.57        -38.4711
220.02        23.62037
220.48        35.12886
220.94        30.38038
221.40        9.283782
221.86       -42.77225
222.32       -78.96238
222.77       -34.35971
223.23         5.66971
223.69        26.41805
224.15        34.32784
224.61        35.86205
225.06        34.89737
225.52        32.23913
225.98        28.32615
226.44        23.74368
226.90        17.29751
227.36        12.51375
227.81        15.88216
228.27        24.45508
228.73        33.56555
229.19        39.23859
229.65         39.1405
230.10        33.93146
230.56        24.94227
231.02        13.52138
231.48        5.766473
231.93        6.157027
232.39        12.29193
232.85        19.58273
233.31        24.18554
233.77         26.1953
234.22        27.29915
234.68        27.39991
235.14        26.15714
235.60        23.89022
236.05         19.7233
236.51        14.43195
236.97        16.35352
237.43        26.78371
237.88        33.93911
238.34        32.74894
238.80        56.66032
239.26        44.18396
239.71        40.06606
240.17        28.21724
240.63        16.65235
241.08        11.36489
241.54        16.97494
242.00        31.78406
242.46        40.08755
242.91        37.42465
243.37        24.00968
243.83        4.441348
244.28       -2.239234
244.74        13.28171
245.20        39.88767
245.66        63.09426
246.11        69.07904
246.57        57.03669
247.03        31.28175
247.48       -2.372554
247.94       -34.56303
248.40       -65.80376
248.85          -117.9
249.31       -245.2656
249.77       -310.4747
250.22        -108.146
250.68       -32.83434
251.14       -8.205311
251.59        3.124441
252.05        11.56296
252.51        20.69095
252.96        27.88987
253.42        24.60276
253.88        8.998188
254.33       -9.775105
254.79       -17.89708
255.25       -9.206475
255.70        7.113159
256.16        22.48672
256.62        33.74611
257.07        39.52251
257.53        41.60474
257.99         41.8768
258.44        40.97255
258.90        39.84407
259.35        38.42775
259.81        36.95505
260.27        35.59526
260.72        34.65115
261.18         34.2478
261.63        34.05707
262.09        33.86899
262.55        33.24181
263.00          32.171
263.46        30.97194
263.91        29.79774
264.37        29.12914
264.83        28.91442
265.28         28.9152
265.74        28.97484
266.19        28.79489
266.65        28.34733
267.11        27.70604
267.56        26.88407
268.02        25.95913
268.47        24.95834
268.93        23.92386
269.38        22.91688
269.84        22.08302
270.30        21.44767
270.75        20.96757
271.21        20.64533
271.66        20.42047
272.12        20.25922
272.57        20.14271
273.03        19.97189
273.48        19.59223
273.94        19.01043
274.39        18.27234
274.85        17.53917
275.31        17.00703
275.76        16.72151
276.22        16.64126
276.67        16.67566
277.13        16.73472
277.58        16.75282
278.04        16.74867
278.49        16.70585
278.95        16.64692
279.40        16.54161
279.86        16.39923
280.31         16.1591
280.77        15.79563
281.22        15.30842
281.68        14.78029
282.13        14.27189
282.59        13.91692
283.04        13.72196
283.50        13.64769
283.95        13.66934
284.41        13.75404
284.86        13.87186
285.32        14.03494
285.77        14.16061
286.22        14.12894
286.68        13.95236
287.13         13.6391
287.59        13.36968
288.04        13.32407
288.50        13.49709
288.95        13.97349
289.41        14.62056
289.86        14.71337
290.32        14.11878
290.77        15.06561
291.22        14.04374
291.68        14.20092
292.13        14.51746
292.59        15.02723
293.04        15.63673
293.50        16.27468
293.95         16.9404
294.40        17.64488
294.86        18.42522
295.31        19.32621
295.77        20.35532
296.22        21.47684
296.68         22.6834
297.13        23.96564
297.58         25.3299
298.04         26.7935
298.49        28.33718
298.95        29.94017
299.40        31.58682
299.85        33.28933
300.31        35.07286
300.76          36.964
301.21        38.96728
301.67        41.08094
302.12        43.26729
302.58        45.56101
303.03        47.93736
303.48         50.4321
303.94        53.01791
304.39         55.6014
304.84        58.16364
305.30        60.72567
305.75        63.29058
306.20        65.97073
306.66        68.76626
307.11        71.57504
307.57        74.33571
308.02        76.89359
308.47        79.24377
308.93        81.47151
309.38        83.58063
309.83        85.63651
310.29        87.71845
310.74        89.73456
311.19        91.70831
311.65        93.64407
312.10        95.51178
312.55        97.30736
313.00        98.99386
313.46        100.5145
313.91        101.8371
314.36        102.9905
314.82        104.0088
315.27        104.9377
315.72        105.8189
316.18        106.6575
316.63        107.4745
317.08        108.3004
317.53        109.1321
317.99        109.9508
318.44        110.7381
318.89        111.4439
319.35          112.05
319.80        112.5835
320.25        113.0255
320.70        113.3554
321.16        113.5771
321.61        113.7195
322.06        113.8626
322.51        114.1454
322.97        114.5765
323.42        115.1556
323.87        115.7605
324.32        116.2004
324.78         116.404
325.23        116.4708
325.68        116.4717
326.13        116.5635
326.59        116.7674
327.04        117.0905
327.49        117.4744
327.94        117.8579
328.39        118.2191
328.85        118.5626
329.30        118.9382
329.75        119.2734
330.20        119.5634
330.66        119.7565
331.11        120.0074
331.56        120.4321
332.01        121.0518
332.46        121.8266
332.92        122.5424
333.37        122.9918
333.82        123.0684
334.27        122.8763
334.72         122.628
335.17        122.6829
335.63        123.1105
336.08        123.8585
336.53        124.7723
336.98        125.6414
337.43        126.3639
337.88        126.9929
338.34        127.4501
338.79        127.6775
339.24        127.6673
339.69        127.4596
340.14        127.2167
340.59        127.2078
341.05        127.5053
341.50        128.0542
341.95        128.7642
342.40        129.4707
342.85        130.0962
343.30        130.6664
343.75         131.147
344.20        131.4977
344.66        131.7197
345.11        131.7818
345.56        131.7416
346.01        131.7051
346.46        131.7214
346.91        131.7704
347.36        131.7932
347.81        131.7861
348.26        131.7605
348.72         131.367
349.17        131.3773
349.62        131.4485
350.07        131.7959
350.52        132.3213
350.97        132.8238
351.42        132.9699
351.87        132.6707
352.32        132.0294
352.77        131.2322
353.22        130.5686
353.67        130.1154
354.13        129.8055
354.58        129.4983
355.03        129.0255
355.48        128.3505
355.93        127.5534
356.38        126.7322
356.83        126.0177
357.28        125.4312
357.73        124.9105
358.18        124.3796
358.63         123.733
359.08        122.9451
359.53        122.0603
359.98        121.1203
360.43        120.1772
360.88        119.2518
361.33        118.3341
361.78        117.4248
362.23        116.5303
362.68        115.6531
363.13        114.7913
363.58        113.9471
364.03        113.1174
364.48        112.2899
364.93        111.4567
365.38         110.585
365.83        109.6288
366.28        108.5858
366.73        107.4741
367.18        106.3481
367.63        105.2967
368.08        104.3483
368.53        103.4916
368.98        102.6734
369.43        101.7929
369.88          100.82
370.33        99.77551
370.78        98.72311
371.23        97.79243
371.68        97.02512
372.13        96.37955
372.58        95.78844
373.03        95.13275
373.48        94.37006
373.93        93.53754
374.38        92.66205
374.83        91.79959
375.28        90.98956
375.72        90.20765
376.17        89.50167
376.62         88.8606
377.07        88.26313
377.52        87.69152
377.97        87.13113
378.42        86.57231
378.87        86.02107
379.32        85.49128
379.77        84.95684
380.22        84.36508
380.67        83.70096
381.11        82.97689
381.56        82.24809
382.01        81.63816
382.46        81.18694
382.91        80.86638
383.36         80.5898
383.81         80.2172
384.26        79.71291
384.71        79.11551
385.15        78.48898
385.60        77.99833
386.05        77.64854
386.50        77.39101
386.95        77.14216
387.40        76.78353
387.85        76.30132
388.29        75.70145
388.74        75.15258
389.19        74.68802
389.64        74.30758
390.09        73.96564
390.54        73.63007
390.98        73.24496
391.43        72.85564
391.88        72.48892
392.33        72.14289
392.78        71.84592
393.23        71.60905
393.67        71.26869
394.12        70.96426
394.57        70.99217
395.02        71.21702
395.47        71.00035
395.91        70.39365
396.36        70.00266
396.81        69.88773
397.26        69.74069
397.71        69.47514
398.15        69.12588
398.60        68.77456
399.05         68.2049
399.50        67.62975
399.95        67.68659
400.39          68.222
400.84        68.35552
401.29        67.99702
401.74        67.52081
402.18        67.07413
402.63        66.85226
403.08        66.83084
403.53        66.63223
403.97        66.25325
404.42        66.01324
404.87        65.92548
405.32        65.88216
405.76        65.87229
406.21        65.86731
406.66        65.81062
407.11        65.82307
407.55        65.82348
408.00        65.29961
408.45        64.44147
408.90        64.10156
409.34        64.30796
409.79        64.46295
410.24        64.46593
410.68         64.5058
411.13        64.54463
411.58        64.46098
412.03        64.28873
412.47        64.17651
412.92        64.13056
413.37        64.11514
413.81        64.11266
414.26        64.15189
414.71        64.20943
415.15        64.30472
415.60        64.37923
416.05         64.3791
416.49        64.29734
416.94        64.14822
417.39        63.98078
417.83        63.86221
418.28        63.81456
418.73        63.81544
419.17        63.84469
419.62        63.87737
420.07         63.8987
420.51        63.91171
420.96        63.93246
421.41        63.93182
421.85        63.88505
422.30        63.85027
422.74        63.81998
423.19        63.85979
423.64        63.97223
424.08        64.22503
424.53        64.49849
424.98        64.66669
425.42        64.71463
425.87         64.6116
426.31        64.46017
426.76        64.54629
427.21        64.82973
427.65        64.95045
428.10        64.86332
428.54        64.81849
428.99        64.83994
429.44        64.86298
429.88         64.8477
430.33        64.63334
430.77        64.29659
431.22        64.45802
431.66        64.98064
432.11         65.1236
432.56        64.93772
433.00        64.87632
433.45         64.7412
433.89        64.88087
434.34        65.50024
434.78        64.00748
435.23        64.02884
435.67        65.68677
436.12        65.59218
436.57        65.94308
437.01         65.5712
437.46        65.33591
437.90        65.91461
438.35        65.96656
438.79        65.90684
439.24        65.94647
439.68        66.11165
440.13        66.12357
440.57        65.99061
441.02        65.94992
441.46        66.02289
441.91        66.13292
442.35        66.22088
442.80        66.59008
443.24         67.0941
443.69        67.26392
444.13        67.07709
444.58        66.87693
445.02        66.73163
445.47        66.80673
445.91        67.05209
446.36        67.08582
446.80        66.86094
447.24        66.97657
447.69        66.86074
448.13        66.83126
448.58        67.15273
449.02        67.06102
449.47        66.77225
449.91        66.79311
450.36        67.10931
450.80        67.13205
451.25        66.90446
451.69        66.92519
452.13        67.15252
452.58        67.09237
453.02        66.77036
453.47        66.61909
453.91        66.65339
454.36        66.62301
454.80        66.51772
455.24         66.5313
455.69        66.60894
456.13        66.40029
456.58        66.03637
457.02        65.77005
457.46         65.9659
457.91        65.74922
458.35        65.32888
458.79        65.11482
459.24         65.1301
459.68        65.18598
460.13        65.28902
460.57        65.24562
461.01        65.01794
461.46        65.53809
461.90        65.04918
462.34        65.28318
462.79        64.93954
463.23        65.03365
463.68        65.23817
464.12        65.10661
464.56        64.70712
465.01        64.72952
465.45        64.99187
465.89        64.85648
466.34        64.44502
466.78         64.1856
467.22        64.10075
467.67        64.53447
468.11        64.26936
468.55        64.25642
468.99        64.13262
469.44        63.99556
469.88        63.84068
470.32        63.58552
470.77        63.30597
471.21         63.1524
471.65        63.15141
472.10        63.26242
472.54        63.39676
472.98        63.44516
473.42        63.38541
473.87        63.24117
474.31        63.05441
474.75        63.05268
475.20        63.20076
475.64        63.25047
476.08         63.2016
476.52        63.17481
476.97        63.11621
477.41        63.22815
477.85         63.3593
478.29        62.96655
478.74        62.39975
479.18        62.90282
479.62        62.90433
480.06         63.0131
480.50        62.98555
480.95        63.01186
481.39        63.11838
481.83        63.06408
482.27        63.17549
482.72        63.09451
483.16         62.8532
483.60        63.18447
484.04         63.2613
484.48         63.1143
484.93        63.12361
485.37        63.11969
485.81        63.44615
486.25        62.82458
486.69        64.09235
487.14        64.58613
487.58        63.95371
488.02        63.16039
488.46        62.68543
488.90        62.80174
489.34        62.70354
489.79        62.16529
490.23        62.59648
490.67        62.64238
491.11         62.7657
491.55        62.72142
491.99        62.57679
492.43        62.54131
492.88        62.61862
493.32        62.72622
493.76        62.76596
494.20        62.76458
494.64         62.7412
495.08         62.3015
495.52        62.07054
495.96        62.15591
496.41        62.57819
496.85        62.51908
497.29        62.01259
497.73        62.03624
498.17        62.24413
498.61        62.41261
499.05        62.37241
499.49        62.24366
499.93        62.10644
500.37        62.12883
500.82        62.27251
501.26        62.38979
501.70        62.43874
502.14        62.12357
502.58        62.01648
503.02        61.91614
503.46        61.94582
503.90        62.04189
504.34        62.12312
504.78        62.16519
505.22         62.1713
505.66        61.99438
506.10        61.70958
506.54        61.83273
506.98        62.34377
507.42        61.77018
507.86        62.18213
508.30        61.59064
508.74        61.85955
509.18        61.69873
509.62        61.52052
510.06        61.46797
510.50        61.52513
510.94        61.57753
511.38        61.58284
511.82        61.58009
512.26        61.55667
512.70        61.48495
513.14        61.38968
513.58        61.32894
514.02        61.31305
514.46        61.32218
514.90        61.32772
515.34        61.32017
515.78        61.29814
516.22        61.24745
516.66        61.02359
517.10        61.22897
517.54        60.98981
517.98        60.98407
518.42        60.97247
518.86        61.01266
519.30        61.10295
519.74        61.19687
520.18        61.27656
520.62        61.38968
521.06        61.48023
521.50        61.33895
521.93        61.03985
522.37        60.89957
522.81        60.95485
523.25        61.05309
523.69        61.13029
524.13          61.143
524.57        61.07258
525.01        60.93895
525.45         60.8008
525.89        60.74903
526.32        60.80059
526.76        60.92742
527.20        61.07337
527.64        61.15322
528.08        61.14359
528.52        61.07554
528.96        60.98452
529.40        60.91637
529.83        60.88534
530.27        60.90496
530.71        60.94474
531.15        60.95667
531.59        60.93041
532.03        60.88373
532.46        60.83339
532.90        60.81739
533.34        60.83591
533.78        60.87677
534.22        60.90511
534.66         60.8688
535.09        60.75407
535.53        60.60345
535.97        60.44958
536.41        60.35941
536.85        60.34961
537.28        60.39887
537.72         60.4805
538.16        60.55098
538.60        60.59232
539.04        60.61782
539.47        60.61545
539.91        60.61825
540.35        60.61549
540.79        60.60195
541.22        60.58149
541.66        60.57825
542.10        60.58881
542.54        60.60506
542.97        60.61293
543.41        60.61482
543.85        60.60189
544.29        60.61441
544.72        60.63314
545.16        60.61783
545.60        60.54494
546.04        60.59342
546.47        60.39572
546.91        60.57031
547.35        60.90211
547.79        61.09764
548.22        61.07135
548.66        60.83615
549.10        60.51271
549.53        60.44498
549.97        60.63803
550.41        60.64433
550.84        60.44409
551.28        60.43605
551.72        60.65868
552.15        60.34967
552.59        60.73896
553.03        60.57068
553.46        60.71811
553.90        60.68633
554.34        60.62957
554.77        60.53381
555.21        60.45576
555.65        60.41786
556.08        60.57426
556.52        60.69739
556.96        60.67961
557.39         60.7706
557.83        60.91116
558.27        60.90569
558.70        60.76263
559.14        60.68454
559.57        60.67991
560.01        60.63083
560.45        60.54068
560.88        60.58548
561.32        60.73834
561.75        60.62996
562.19         60.3672
562.63        60.34835
563.06        60.54353
563.50        60.63087
563.93        60.56206
564.37        60.45715
564.80        60.34546
565.24        60.38615
565.68        60.54706
566.11        60.62169
566.55        60.62049
566.98         60.6436
567.42        60.71638
567.85        60.77997
568.29        60.84445
568.72        60.84309
569.16        60.87537
569.60        60.83345
570.03        60.99137
570.47        61.21241
570.90        61.53174
571.34        61.32746
571.77        61.63007
572.21        61.64459
572.64        61.64191
573.08        61.46373
573.51        61.43604
573.95        61.92453
574.38        61.92688
574.82        62.28245
575.25        62.18164
575.69        61.73125
576.12        61.37143
576.56        61.54287
576.99        61.83543
577.42        61.90304
577.86        61.77889
578.29         62.7108
578.73        63.19466
579.16        62.25038
579.60        61.88286
580.03        61.95534
580.47        61.80022
580.90        61.87761
581.33        62.14046
581.77        62.62532
582.20        62.67771
582.64        62.81145
583.07         62.4018
583.51        62.16262
583.94        61.84711
584.37        61.41463
584.81        61.11798
585.24        61.34052
585.68        62.34256
586.11        62.03039
586.54        61.98459
586.98        61.62457
587.41        61.55713
587.85        61.89416
588.28        61.84822
588.71        62.12988
589.15        61.91625
589.58        61.31219
590.01        61.03291
590.45        61.29966
590.88        61.52063
591.31        61.25064
591.75        61.03684
592.18        60.93555
592.61        61.09376
593.05        61.79887
593.48        61.63193
593.91        61.69765
594.35        61.65931
594.78        61.58615
595.21        61.26918
595.65        61.25625
596.08        61.45057
596.51         61.4218
596.94        61.31198
597.38        61.23188
597.81        61.27266
598.24        61.49244
598.68        61.20555
599.11        61.47195
599.54        61.75912
599.97        61.44359
600.41        61.68862
600.84         61.9528
601.27        61.65458
601.70        61.73831
602.14        61.40883
602.57         61.3231
603.00        61.34747
603.43        61.48464
603.87        61.92085
604.30        61.82018
604.73        61.79893
605.16        61.32064
605.60        61.53951
606.03        61.59277
606.46        61.78825
606.89        61.21207
607.32        61.20197
607.76        61.48521
608.19        61.57454
608.62        61.43491
609.05        62.25418
609.48        61.73177
609.92         61.6459
610.35        61.27681
610.78        61.58407
611.21        61.57854
611.64        61.43964
612.07        61.43728
612.50        61.55303
612.94        61.59281
613.37        61.55362
613.80        61.52524
614.23        61.49568
614.66        61.35049
615.09        61.15122
615.52        61.09745
615.96        61.16852
616.39        61.21583
616.82        61.24305
617.25        61.06482
617.68        61.23188
618.11        61.15124
618.54        61.15458
618.97        61.03806
619.40        60.72686
619.84        60.78444
620.27        60.70432
620.70        60.69132
621.13        60.61741
621.56        60.61409
621.99        60.70912
622.42        60.92553
622.85        61.17245
623.28        61.22819
623.71        61.23082
624.14        61.14751
624.57        61.24405
625.00        61.38302
625.43        60.95845
625.86        60.85974
626.29        60.89564
626.72        60.73021
627.15        60.70488
627.58        60.65667
628.01        60.67823
628.44        60.69635
628.87        60.35852
629.30        60.67358
629.73        60.48297
630.16         60.5071
630.59        60.30104
631.02        60.58667
631.45        60.44151
631.88        60.53163
632.31        60.61498
632.74        60.40935
633.17        60.52761
633.60         60.4363
634.03        60.33087
634.46        60.25584
634.89        60.14149
635.32        60.10481
635.75        60.11736
636.18        60.17438
636.61        60.25042
637.04        60.30617
637.47         60.3294
637.89        60.33548
638.32        60.31765
638.75        60.29198
639.18         60.2652
639.61        60.23338
640.04        60.20573
640.47        60.19912
640.90        60.21485
641.33        60.24729
641.76        60.28438
642.18         60.3107
642.61        60.30686
643.04        60.28711
643.47        60.25224
643.90        60.20957
644.33        60.16375
644.76        60.09835
645.18        60.03451
645.61        60.02839
646.04        60.07331
646.47        60.10375
646.90        60.10147
647.33        60.09805
647.75        60.08567
648.18        60.03195
648.61        59.98426
649.04        60.03625
649.47        60.13369
649.89        60.40255
650.32        60.19364
650.75        60.24885
651.18        60.33788
651.61        60.30188
652.03        60.15875
652.46        59.91402
652.89        59.71171
653.32        59.87613
653.74        60.33955
654.17        60.45443
654.60        60.44282
655.03        60.06672
655.46        59.90599
655.88         60.2697
656.31        61.63026
656.74        65.92485
657.16        65.13209
657.59        63.58336
658.02        61.36874
658.45        60.90646
658.87        60.64027
659.30        60.66389
659.73        60.44181
660.15        59.71476
660.58        60.06252
661.01        60.31917
661.44        60.74735
661.86        60.64769
662.29        60.10357
662.72         59.8419
663.14        59.95009
663.57        60.13235
664.00        60.30172
664.42        60.39721
664.85        60.39859
665.27        60.26016
665.70        60.21957
666.13        60.15974
666.55        60.16059
666.98        60.19779
667.41        60.24677
667.83        60.27488
668.26        60.28194
668.69        60.22979
669.11        60.12607
669.54        60.19402
669.96         60.4893
670.39        60.14045
670.82        60.57564
671.24        60.59798
671.67        60.61068
672.09         60.5909
672.52        60.58271
672.94        60.54128
673.37        60.49471
673.80        60.55074
674.22        60.68669
674.65        60.72281
675.07        60.66051
675.50        60.58215
675.92         60.5116
676.35        60.42649
676.77        60.33123
677.20        60.28382
677.62         60.3264
678.05        60.34266
678.47        60.29148
678.90        60.83497
679.32        60.76145
679.75        60.95555
680.17        61.04148
680.60        61.14559
681.02        61.22857
681.45        61.05959
681.87        60.75365
682.30        60.72165
682.72        60.96074
683.15        61.09844
683.57        61.06301
684.00        61.07701
684.42        60.83458
684.85        60.79745
685.27        60.86478
685.70        60.93725
686.12        60.96043
686.54        60.94776
686.97        60.88504
687.39        60.79079
687.82        60.70054
688.24        60.66111
688.66        60.66072
689.09         60.8983
689.51        60.88931
689.94        61.02571
690.36        61.14327
690.78        61.17554
691.21        61.13971
691.63        61.11121
692.06        61.12309
692.48        61.16393
692.90        61.21539
693.33        61.23155
693.75        61.21879
694.17        61.15662
694.60        61.05362
695.02        61.14863
695.44        61.16825
695.87        61.12761
696.29         61.0109
696.71        61.02533
697.14        61.15681
697.56        61.35474
697.98         61.5703
698.41        61.42984
698.83        61.53482
699.25        61.38989
699.68        61.21511
700.10        61.07918
700.52        61.01134
700.94        60.99052
701.37        60.98938
701.79          61.021
702.21        61.05919
702.64        61.10836
703.06        61.16666
703.48        61.24563
703.90        61.34742
704.33        61.41879
704.75          61.517
705.17        61.52931
705.59        61.47254
706.01        61.35637
706.44        61.24251
706.86        61.23637
707.28        61.34246
707.70        61.56685
708.12        61.82781
708.55        61.90056
708.97        61.79224
709.39        61.75488
709.81        61.80359
710.23        61.77996
710.66        61.69518
711.08        61.67007
711.50        61.69555
711.92        61.70564
712.34        61.69442
712.76        61.70106
713.19        61.73301
713.61        61.72332
714.03        61.84081
714.45        61.93383
714.87        62.03112
715.29        62.04573
715.71         61.9631
716.13        61.96213
716.56        61.77626
716.98        61.75117
717.40        61.80429
717.82         61.9195
718.24        62.05155
718.66        62.12987
719.08        62.13718
719.50        62.09306
719.92        62.03001
720.34        61.99769
720.76         62.0103
721.19        62.04308
721.61        62.09443
722.03        62.13346
722.45         62.1537
722.87        62.16935
723.29        62.18935
723.71        62.22527
724.13        62.28156
724.55        62.34873
724.97        62.43024
725.39        62.53481
725.81        62.65564
726.23        62.78236
726.65        62.88987
727.07        62.94453
727.49        62.94265
727.91        62.88728
728.33         62.7995
728.75         62.7505
729.17        62.74169
729.59        62.68608
730.01        62.61869
730.43        62.66141
730.85        62.81612
731.27        63.01118
731.69        63.19184
732.10        63.23622
732.52        63.31558
732.94        63.06805
733.36         62.6659
733.78        62.46597
734.20        62.53294
734.62        62.69534
735.04        62.87621
735.46        63.03645
735.88         63.1457
736.30         63.1586
736.72        63.09932
737.13        63.18724
737.55        63.32793
737.97         63.1432
738.39        62.73028
738.81        62.59893
739.23        62.77941
739.65        62.97655
740.06        63.06928
740.48        63.13719
740.90        63.12806
741.32        63.01693
741.74        62.86101
742.16        62.78354
742.57        62.82763
742.99        62.93852
743.41        63.07989
743.83        63.17376
744.25        63.19722
744.67        63.17144
745.08        63.14811
745.50        63.16643
745.92          63.255
746.34        63.40052
746.75        63.54642
747.17         63.6013
747.59        63.55007
748.01        63.38517
748.42        63.20865
748.84        63.21751
749.26        63.40425
749.68         63.6412
750.09        63.81828
750.51        63.73226
750.93        63.44086
751.35        63.30877
751.76        63.35519
752.18        63.29277
752.60        63.11119
753.01        63.08237
753.43        63.19725
753.85        63.15596
754.27        62.89633
754.68         63.3599
755.10        63.02655
755.52        63.06339
755.93         63.1627
756.35        63.24229
756.77        63.28799
757.18        63.34798
757.60        63.44417
758.02        63.33624
758.43        63.06115
758.85        63.53317
759.26        63.53842
759.68        63.77608
760.10        63.44598
760.51         63.1055
760.93        63.26236
761.34        63.27937
761.76        63.34127
762.18        63.54984
762.59        63.76579
763.01        63.79365
763.42        62.90651
763.84        62.93024
764.26        63.28273
764.67        63.89674
765.09        64.43334
765.50        64.49723
765.92        64.17307
766.33        64.00343
766.75        64.02971
767.16        63.94948
767.58        63.72269
768.00        63.71367
768.41        63.91096
768.83        63.80142
769.24        63.41414
769.66        63.70768
770.07         63.7298
770.49         63.8434
770.90        63.79329
771.32        63.86522
771.73        64.03934
772.15        64.13309
772.56        64.15634
772.97        64.15653
773.39        64.13229
773.80        64.16968
774.22        64.22841
774.63        64.23129
775.05        64.16623
775.46        64.14734
775.88        64.16183
776.29        64.17435
776.70        64.16362
777.12        64.13894
777.53        64.11232
777.95        64.06542
778.36        64.01124
778.77        63.96529
779.19        63.94022
779.60        63.95271
780.02         63.9741
780.43        64.01736
780.84        64.08921
781.26        64.03496
781.67        63.95701
782.09        64.29138
782.50         64.8728
782.91        64.97509
783.33        64.61338
783.74        64.50291
784.15        64.65088
784.57        64.66464
784.98        64.54808
785.39        64.47615
785.81        64.46157
786.22        64.45565
786.63        64.48495
787.04        64.59078
787.46        64.77972
787.87        65.01516
788.28        65.24314
788.70         65.3655
789.11        65.34356
789.52        65.21844
789.93         65.0555
790.35        64.95203
790.76        64.95153
791.17        65.03294
791.58        65.15128
792.00        65.20564
792.41        65.20284
792.82        65.18511
793.23        65.21645
793.65        65.28899
794.06        65.43945
794.47        65.82439
794.88        66.34621
795.29        66.33463
795.71        66.50977
796.12        66.37234
796.53        66.17242
796.94        65.99551
797.35        65.85331
797.76        65.59071
798.18        65.27456
798.59        65.15736
799.00        65.26038
799.41        65.47998
799.82        65.72334
800.23        65.87182
800.64        65.87808
801.06        65.74553
801.47        65.57484
801.88         65.4631
802.29         65.4491
802.70        65.50925
803.11        65.59884
803.52        65.64136
803.93        65.61682
804.34        65.54883
804.75        65.50622
805.17        65.57863
805.58        65.80393
805.99        66.14711
806.40        66.49933
806.81        66.63734
807.22         66.5369
807.63        66.34822
808.04        66.17188
808.45        66.09406
808.86        66.15639
809.27        66.35398
809.68        66.60643
810.09        66.74574
810.50        66.72575
810.91        66.60873
811.32        66.43171
811.73        66.25198
812.14        66.10107
812.55        65.95623
812.96        65.85593
813.37        65.86929
813.78        65.99902
814.19         66.2248
814.60         66.4605
815.01        66.56857
815.42        66.51916
815.83        66.34539
816.24        66.11868
816.65        65.98256
817.05         65.9929
817.46        66.07891
817.87        66.21741
818.28        66.33012
818.69        66.39235
819.10        66.43279
819.51        66.45844
819.92        66.47537
820.33        66.48923
820.74        66.48798
821.14        66.48096
821.55        66.51043
821.96        66.56976
822.37        66.64995
822.78        66.72579
823.19        66.75055
823.60        66.71062
824.00        66.63554
824.41        66.51274
824.82        66.38948
825.23        66.28641
825.64         66.2074
826.04        66.17831
826.45        66.19772
826.86        66.27866
827.27        66.42072
827.68        66.61211
828.08         66.8488
828.49        67.04142
828.90        67.22324
829.31        67.39553
829.72        67.47601
830.12        67.46004
830.53        67.70922
830.94        67.51395
831.35         67.3652
831.75        67.08381
832.16        66.69793
832.57        66.34386
832.97        66.23521
833.38        66.41167
833.79        66.79335
834.20        67.25816
834.60         67.6246
835.01        67.82726
835.42        67.90269
835.82        67.87721
836.23        67.75353
836.64        67.57552
837.04         67.3672
837.45        67.13135
837.86        66.93526
838.26        66.81706
838.67         66.7573
839.08        66.81086
839.48         67.0369
839.89        67.41707
840.29        67.92333
840.70        68.42599
841.11        68.71418
841.51        68.74394
841.92        68.51894
842.33        68.18141
842.73        67.97942
843.14        67.94269
843.54        68.05143
843.95        68.18259
844.35        68.15282
844.76        67.92062
845.17        67.56725
845.57        67.25278
845.98         67.1925
846.38        67.46041
846.79        67.94568
847.19        68.52039
847.60        68.90512
848.00        69.05441
848.41        69.00716
848.81        68.89117
849.22        68.85667
849.62        68.99129
850.03         69.1937
850.43        69.43468
850.84        69.57197
851.24        69.61996
851.65        69.56049
852.05         69.4738
852.46        69.39096
852.86        69.33561
853.27        69.33566
853.67        69.28786
854.07        69.18954
854.48        69.00596
854.88        68.77005
855.29        68.51308
855.69        68.45798
856.10        68.56184
856.50        68.86583
856.90        69.17373
857.31        69.20468
857.71        68.94896
858.12        68.42133
858.52        67.83646
858.92         67.4955
859.33         67.4715
859.73        67.73063
860.13        68.06966
860.54        68.15038
860.94        67.94401
861.34        67.50361
861.75        66.99847
862.15        66.78596
862.55        66.91233
862.96         67.2589
863.36        67.63857
863.76        67.69787
864.17        67.35632
864.57        66.76642
864.97        66.11548
865.38        65.69995
865.78        65.66248
866.18        65.90063
866.58         66.3572
866.99        66.88609
867.39        67.42196
867.79        67.96633
868.19        68.42576
868.60        68.58445
869.00         68.4881
869.40        68.32931
869.80        68.13278
870.21        67.78789
870.61        67.40009
871.01        67.09111
871.41        66.83742
871.81        66.49525
872.22        66.06841
872.62         65.6052
873.02        65.23906
873.42        65.36818
873.82        65.84879
874.22        66.09492
874.63        66.17454
875.03        66.28537
875.43        66.40975
875.83        67.31303
876.23        66.56831
876.63        65.81406
877.03        64.86583
877.44        63.11976
877.84        165.1388
878.24        64.67387
878.64        65.56393
879.04        67.05161
879.44        67.53731
879.84        64.42974
880.24         68.9864
880.64        69.04762
881.04        66.67282
881.44        64.82732
881.84        64.07547
882.24        64.53732
882.65        65.60651
883.05        65.91347
883.45        65.17857
883.85        64.23276
884.25        63.51461
884.65        63.32821
885.05        63.77872
885.45        64.66917
885.85        65.62005
886.25        66.11905
886.65        66.05144
887.05        65.58563
887.45        64.94345
887.85        64.49928
888.25        64.38689
888.65        64.48628
889.04        64.72975
889.44        65.01133
889.84        65.26095
890.24        65.51347
890.64        65.72289
891.04        65.80818
891.44        65.77216
891.84        65.64481
892.24        65.47461
892.64        65.36319
893.04        65.34842
893.44        65.39314
893.83        65.54557
894.23        65.84577
894.63        66.28725
895.03        66.86002
895.43         67.3952
895.83         67.6097
896.23        67.45881
896.63        67.02756
897.02        66.54319
897.42        66.41235
897.82         66.6756
898.22        67.20458
898.62        67.76954
899.01        68.00459
899.41        67.78865
899.81        67.25812
900.21        66.57441
900.61        65.99937
901.00        65.62169
901.40        65.44199
901.80        65.41617
902.20        65.34124
902.59        65.16447
902.99         65.2061
903.39        65.62715
903.79        65.05673
904.18         66.0422
904.58        66.47021
904.98        66.90112
905.38         66.9977
905.77        66.70719
906.17        66.12759
906.57        65.45683
906.96        65.12281
907.36        65.22248
907.76        65.66642
908.15        66.23234
908.55        66.39121
908.95        66.07677
909.34        65.41198
909.74        64.74049
910.14         64.5625
910.53        64.98066
910.93        65.79797
911.33        66.66776
911.72         67.0471
912.12        66.81656
912.52        66.16826
912.91        65.35357
913.31        64.84883
913.70        64.76044
914.10        64.93385
914.49        65.26259
914.89        65.48865
915.29        65.54833
915.68        65.51986
916.08        65.44627
916.47        65.32826
916.87        65.22144
917.26        65.11511
917.66        65.04713
918.05        65.11084
918.45        65.29987
918.84        65.58601
919.24        65.93188
919.64        66.33596
920.03        66.75471
920.42        67.13497
920.82        67.35977
921.21        67.26373
921.61        66.86556
922.00        66.32618
922.40        65.81944
922.79        65.49237
923.19        65.05691
923.58        65.31068
923.98        66.70911
924.37        66.95533
924.77        64.71822
925.16        73.09177
925.55        68.09656
925.95        68.78804
926.34        68.43293
926.74        67.02845
927.13        64.79868
927.52        63.36586
927.92        63.42559
928.31        64.18363
928.70        65.33473
929.10        66.36057
929.49        67.11669
929.89        67.78931
930.28        68.25487
930.67        68.17756
931.07        67.55746
931.46        66.35954
931.85        65.07994
932.24        65.02554
932.64        66.38673
933.03        68.19302
933.42        69.46893
933.82        71.85424
934.21         70.2879
934.60        68.80067
934.99        67.16235
935.39        66.50995
935.78        66.97541
936.17        68.84975
936.56        74.99134
936.96        68.52287
937.35          72.437
937.74        69.80408
938.13         68.0661
938.53        66.53908
938.92        65.79617
939.31        66.38786
939.70        67.33775
940.09        67.70609
940.49         67.2662
940.88        66.37921
941.27         65.4455
941.66        65.18887
942.05        65.82788
942.44        67.03347
942.84        68.29659
943.23        69.02088
943.62        69.03738
944.01        68.49246
944.40        67.76376
944.79        67.49335
945.18         67.8448
945.57        68.63474
945.97        69.35249
946.36         69.3101
946.75        68.33417
947.14        66.67204
947.53         64.9432
947.92        64.20025
948.31        64.70623
948.70         66.0989
949.09         67.7228
949.48        68.57487
949.87        68.40039
950.26        67.51734
950.65        66.33485
951.04         65.5209
951.43        65.30795
951.82        65.48678
952.21        65.88686
952.60        66.23688
952.99        66.40959
953.38        66.48963
953.77        66.53802
954.16        66.61333
954.55        66.73631
954.94        66.89366
955.33        66.95787
955.72        66.73826
956.11        66.21744
956.50        65.45362
956.89        64.77652
957.28        64.69382
957.66        65.31507
958.05        66.41338
958.44        67.53065
958.83        67.96434
959.22        67.55444
959.61        66.45016
960.00        65.09581
960.39        64.37172
960.78        64.55713
961.16        65.41364
961.55        66.33641
961.94         66.5957
962.33        66.05131
962.72        64.91634
963.11        63.64222
963.49        63.14279
963.88        63.69998
964.27         64.9578
964.66        66.35124
965.04        67.13889
965.43        67.10287
965.82        66.52206
966.21        65.67931
966.60         65.0714
966.98        64.88976
967.37        64.96722
967.76        65.19721
968.15        65.41415
968.53         65.5656
968.92        65.70882
969.31        65.83649
969.69        65.89827
970.08        65.86054
970.47        65.70676
970.86        65.52094
971.24        65.47737
971.63        65.59827
972.02        65.85391
972.40        66.12325
972.79        66.12512
973.17         65.8783
973.56         65.4786
973.95        65.12595
974.33        65.17128
974.72         65.6778
975.11        66.46485
975.49        67.43479
975.88        68.35485
976.26        69.17711
976.65        69.89248
977.04        70.31682
977.42        70.14053
977.81        69.30209
978.19        67.81078
978.58        66.33456
978.96        66.08191
979.35        67.26335
979.74        69.36796
980.12        71.48331
980.51        72.29417
980.89        71.73416
981.28        70.08368
981.66        67.81824
982.05        66.21474
982.43        65.85283
982.82        66.42504
983.20        67.56306
983.59        68.64861
983.97        69.49179
984.35        70.24708
984.74        70.79742
985.12        70.98978
985.51        70.78122
985.89        70.26292
986.28        69.59768
986.66        69.10693
987.04        68.92657
987.43        68.90863
987.81        68.82727
988.20        69.69707
988.58        71.58405
988.96        71.86342
989.35        69.83421
989.73        75.52055
990.12        72.03776
990.50        72.33758
990.88        71.83689
991.27        71.08392
991.65        70.04633
992.03        68.91986
992.42        68.13419
992.80        67.80222
993.18        67.99539
993.56        68.70012
993.95        69.58979
994.33        70.07153
994.71        69.99622
995.10        69.49898
995.48        68.82934
995.86        68.41949
996.24        68.40147
996.63        68.54797
997.01        68.87691
997.39        69.21848
997.77        69.49222
998.15        69.77657
998.54        70.01441
998.92        69.98186
999.30        69.70684
999.68        69.24766
1000.06         68.8144
1000.45        68.80563
1000.83        69.42646
1001.21         70.4828
1001.59        71.74982
1001.97         72.8938
1002.35        73.76547
1002.73        74.40912
1003.12        74.81542
1003.50        75.03611
1003.88        75.09918
1004.26        75.00703
1004.64        74.78014
1005.02        74.49674
1005.40        74.18595
1005.78        73.81454
1006.16        73.47349
1006.54        73.25829
1006.92        73.20689
1007.30        73.41344
1007.69        73.56805
1008.07        73.28719
1008.45        72.49108
1008.83        71.19771
1009.21        70.11185
1009.59        70.64221
1009.97        72.88715
1010.35        76.01693
1010.73        78.80653
1011.11        80.18557
1011.49        80.17571
1011.86        78.81504
1012.24         76.3307
1012.62         76.8692
1013.00        77.90174
1013.38        78.77326
1013.76        77.78333
1014.14        82.13026
1014.52         87.5886
1014.90        80.23809
1015.28         80.7851
1015.66        82.06901
1016.04        79.36408
1016.41        80.75531
1016.79        81.09886
1017.17        81.15533
1017.55        80.28379
1017.93        78.90978
1018.31        77.64765
1018.69         77.0461
1019.06        77.35303
1019.44        78.27135
1019.82        79.22881
1020.20        79.41454
1020.58        78.65692
1020.95        77.02071
1021.33         74.9752
1021.71        73.88615
1022.09        74.50742
1022.46        76.11807
1022.84        77.94015
1023.22        79.58228
1023.60        81.07116
1023.97         82.6723
1024.35        84.12341
1024.73        84.73242
