SpectraSmart Spectrum 2.9.0.0
--------- Device Information -----------
Spectrum Name :  反射率_0
Saving Time :  2024/04/21 00:04:57
Spectro-Module Model Name : SE2030-DUVN
Spectro-Module Serial Number : OS361AC55029948
Wavelength Start : 200
Wavelength End : 1025
Wavelength Unit : Wavelength(nm)
Spectrum Unit : Reflectance(%)
-----------Spectrum Setting ------------
Integration Time : 20ms
Average : 10
Boxcar : 0
Background removal :  enabled
linearity correction :  enabled
SC :  disabled
Intensity correction :  disabled
DWT denoise :  enabled
savitzky-golay :  disabled
FFT :  disabled
Running average :  disabled
Kalman :  disabled
High pass :  disabled
---------------BEGIN--------------------
Wavelength(nm)             Reflectance(%)
200.29               0
200.75       -117.6832
201.21       -43.05567
201.67      0.02029278
202.13        20.33533
202.58        28.88585
203.04        32.64188
203.50        32.20537
203.96        27.39292
204.42        19.07586
204.88        6.553639
205.34       -5.411281
205.80       -11.00123
206.26       -8.492097
206.72        6.369214
207.18        26.24354
207.64        29.17332
208.10        7.151948
208.55       -33.45098
209.01       -60.83004
209.47       -36.67845
209.93        6.563507
210.39        42.38577
210.85        65.26009
211.31        74.73785
211.77        74.27897
212.23        65.40925
212.69        44.05907
213.14        6.255939
213.60       -56.01596
214.06       -220.6297
214.52       -557.4023
214.98       -208.4875
215.44       -23.39769
215.90        35.16012
216.36        53.20778
216.81         52.7868
217.27        35.40128
217.73       -49.81827
218.19        990.3367
218.65        458.2433
219.11       -1036.448
219.57       -46.21951
220.02        18.58795
220.48        32.10389
220.94        30.19762
221.40        14.80608
221.86       -24.43022
222.32        -49.6608
222.77       -13.58365
223.23        16.97539
223.69        31.78064
224.15        35.86868
224.61        34.17463
225.06        29.80632
225.52        23.80636
225.98        17.43605
226.44        11.70816
226.90        5.263849
227.36        1.691229
227.81        6.962868
228.27        17.17723
228.73        27.50039
229.19        33.99184
229.65        34.55556
230.10        30.03665
230.56        21.82423
231.02        11.20556
231.48        3.801765
231.93        3.885309
232.39        9.503252
232.85        16.16198
233.31        19.93162
233.77        20.96204
234.22        20.95324
234.68         20.3843
235.14        20.02798
235.60        20.51543
236.05        20.71706
236.51        20.58306
236.97        25.95997
237.43        36.83377
237.88        43.31968
238.34        41.62888
238.80        62.00018
239.26         51.2137
239.71        48.34717
240.17        39.06955
240.63        29.29203
241.08        23.18164
241.54        24.42328
242.00        33.71027
242.46        40.29403
242.91         41.6341
243.37        39.45222
243.83        35.14891
244.28        33.93167
244.74        38.31422
245.20        43.89132
245.66        48.31829
246.11        50.34472
246.57        49.68275
247.03         47.2743
247.48        42.19302
247.94        32.07703
248.40        11.35859
248.85       -43.38545
249.31       -227.6118
249.77       -434.8518
250.22       -174.3544
250.68       -47.83414
251.14       -2.399255
251.59        14.29793
252.05        20.61936
252.51        23.47209
252.96        23.18173
253.42        20.74126
253.88        18.06767
254.33         15.9158
254.79        18.46808
255.25        26.71199
255.70         36.4045
256.16        44.77056
256.62        50.82628
257.07        54.19622
257.53         56.0165
257.99        56.94795
258.44         56.9717
258.90        56.68331
259.35        55.80269
259.81        54.76758
260.27        53.72467
260.72        52.92879
261.18        52.61632
261.63        52.36689
262.09        52.03907
262.55        51.09243
263.00        49.53061
263.46         47.7821
263.91         46.0803
264.37        45.13304
264.83        44.87217
265.28         44.9733
265.74        45.16897
266.19        44.92421
266.65        44.22607
267.11        43.21015
267.56        42.02285
268.02        40.97491
268.47        40.09921
268.93        39.32177
269.38        38.56288
269.84        37.77153
270.30         36.9169
270.75        36.05371
271.21        35.19421
271.66        34.27608
272.12        33.33864
272.57        32.37583
273.03        31.50372
273.48        30.85337
273.94        30.44993
274.39         30.2076
274.85        30.01044
275.31        29.61596
275.76        28.98091
276.22        28.22828
276.67        27.47763
277.13        26.97386
277.58        26.71594
278.04        26.63785
278.49        26.59299
278.95         26.4592
279.40        26.15674
279.86        25.75889
280.31        25.28127
280.77        24.82724
281.22        24.39157
281.68        24.01113
282.13        23.61249
282.59        23.16635
283.04        22.65819
283.50        22.13653
283.95        21.71107
284.41        21.56739
284.86        21.70684
285.32         22.0649
285.77        22.44949
286.22        22.59647
286.68        22.48056
287.13        22.15665
287.59        21.83156
288.04        21.71465
288.50        21.82929
288.95        22.21655
289.41         22.7811
289.86        22.89347
290.32        22.43905
290.77         23.4225
291.22        22.62793
291.68        22.81005
292.13        23.03664
292.59        23.36946
293.04        23.79747
293.50        24.38074
293.95        25.13909
294.40        26.03977
294.86        27.03625
295.31        28.03815
295.77        29.02167
296.22        29.99525
296.68        31.00623
297.13        32.12428
297.58        33.37587
298.04        34.73466
298.49        36.16376
298.95        37.62539
299.40        39.08268
299.85        40.55293
300.31        42.01961
300.76         43.4384
301.21        44.81456
301.67        46.17637
302.12        47.55673
302.58        49.10172
303.03        50.80793
303.48        52.68664
303.94        54.65396
304.39        56.52821
304.84        58.27689
305.30        59.95253
305.75        61.62115
306.20        63.48604
306.66        65.55944
307.11        67.70839
307.57        69.79852
308.02        71.57024
308.47        72.99895
308.93        74.21423
309.38        75.29678
309.83        76.40937
310.29        77.69545
310.74        79.01865
311.19         80.3746
311.65        81.70529
312.10        82.96741
312.55        84.18192
313.00        85.34177
313.46        86.43179
313.91        87.43114
314.36        88.34743
314.82        89.17822
315.27        89.92321
315.72        90.60261
316.18        91.22469
316.63        91.83413
317.08        92.50391
317.53        93.23824
317.99        94.00545
318.44         94.7413
318.89        95.32623
319.35        95.73229
319.80        96.00804
320.25        96.20137
320.70        96.39875
321.16        96.62653
321.61        96.87595
322.06        97.15672
322.51        97.49013
322.97        97.85967
323.42        98.30196
323.87        98.74615
324.32        99.08566
324.78        99.27905
325.23        99.38346
325.68        99.46925
326.13        99.68803
326.59        100.0512
327.04         100.565
327.49         101.108
327.94        101.5094
328.39        101.7196
328.85        101.7546
329.30         101.768
329.75        101.8915
330.20         102.172
330.66        102.5329
331.11        102.9519
331.56        103.2583
332.01        103.4182
332.46        103.4869
332.92        103.5071
333.37        103.6846
333.82        104.0222
334.27        104.4758
334.72        105.0034
335.17        105.5358
335.63        106.0129
336.08        106.5145
336.53        107.0013
336.98        107.4551
337.43         107.873
337.88        108.2426
338.34         108.582
338.79        108.9852
339.24        109.4445
339.69        109.9481
340.14        110.4328
340.59         110.803
341.05        111.0423
341.50        111.1796
341.95        111.3071
342.40        111.5785
342.85        112.0265
343.30        112.6133
343.75        113.1982
344.20        113.5605
344.66        113.6672
345.11        113.5694
345.56        113.4508
346.01        113.5974
346.46        114.0662
346.91        114.7464
347.36        115.4278
347.81        115.8425
348.26        115.9342
348.72         115.619
349.17         115.393
349.62        115.2893
350.07        115.4752
350.52        115.8426
350.97        116.2297
351.42        116.3714
351.87         116.194
352.32        115.7922
352.77        115.2954
353.22        114.8934
353.67        114.6363
354.13        114.4744
354.58        114.3009
355.03        114.0061
355.48        113.5612
355.93        113.0138
356.38        112.4321
356.83        111.9082
357.28        111.4564
357.73        111.0372
358.18         110.586
358.63        110.0106
359.08        109.2981
359.53        108.4931
359.98        107.6593
360.43        106.8838
360.88        106.1887
361.33        105.5479
361.78        104.9305
362.23        104.2894
362.68        103.6121
363.13         102.917
363.58        102.2151
364.03        101.5192
364.48        100.8328
364.93        100.1477
365.38        99.46122
365.83        98.77616
366.28        98.08938
366.73        97.39149
367.18        96.68892
367.63        95.99243
368.08        95.30337
368.53        94.62917
368.98        93.92619
369.43        93.11523
369.88        92.18412
370.33        91.15287
370.78        90.11974
371.23        89.26938
371.68        88.65852
372.13        88.24102
372.58        87.90625
373.03        87.46345
373.48        86.85213
373.93        86.12055
374.38        85.34034
374.83        84.64055
375.28         84.0691
375.72        83.57462
376.17        83.13216
376.62        82.63838
377.07        82.06068
377.52         81.4142
377.97        80.76173
378.42         80.2208
378.87        79.82284
379.32         79.5332
379.77        79.24726
380.22        78.80113
380.67        78.15916
381.11        77.37566
381.56        76.55488
382.01        75.89801
382.46         75.4724
382.91        75.22334
383.36        75.05077
383.81        74.79642
384.26        74.41351
384.71          73.947
385.15         73.4473
385.60        73.05348
386.05        72.76711
386.50        72.54372
386.95        72.31632
387.40        71.99473
387.85        71.57272
388.29        71.05472
388.74        70.59483
389.19        70.21489
389.64        69.91982
390.09        69.68024
390.54        69.46629
390.98        69.22054
391.43        68.96893
391.88        68.71868
392.33        68.48606
392.78        68.27752
393.23        68.08958
393.67        67.90714
394.12        67.79189
394.57        67.55756
395.02        67.34599
395.47        67.12691
395.91        66.94252
396.36        66.69913
396.81        66.42087
397.26        66.18307
397.71        65.98178
398.15        65.77588
398.60        65.64076
399.05        65.44728
399.50        65.25389
399.95        65.33253
400.39        65.59837
400.84        65.55225
401.29        65.18865
401.74        64.86128
402.18        64.62812
402.63        64.37144
403.08        64.09332
403.53        63.80357
403.97        63.51841
404.42        63.30663
404.87         63.1618
405.32        63.06999
405.76        63.02156
406.21        62.96838
406.66        62.90036
407.11         62.9684
407.55        63.10986
408.00        62.91676
408.45        62.47115
408.90        62.24399
409.34        62.27016
409.79        62.31445
410.24        62.30477
410.68        62.23915
411.13        62.10095
411.58        61.89504
412.03        61.67775
412.47        61.56764
412.92        61.57154
413.37        61.66334
413.81        61.78159
414.26        61.88372
414.71        61.93331
415.15        61.96283
415.60        61.94803
416.05        61.90074
416.49        61.83261
416.94        61.73356
417.39        61.63106
417.83        61.56057
418.28        61.53317
418.73        61.54068
419.17        61.56094
419.62        61.56382
420.07        61.53882
420.51        61.49006
420.96        61.45268
421.41         61.4307
421.85        61.40027
422.30         61.4063
422.74        61.41973
423.19        61.45693
423.64        61.52402
424.08        61.73702
424.53        61.96656
424.98        62.06751
425.42        62.03419
425.87        61.76144
426.31        61.41864
426.76        61.59877
427.21        62.18636
427.65         62.2868
428.10        61.88715
428.54        61.80856
428.99         62.1028
429.44        62.23575
429.88        62.17516
430.33        62.31521
430.77        62.53028
431.22        62.49637
431.66        62.27343
432.11        62.41528
432.56        62.90803
433.00        62.93201
433.45        62.35117
433.89        62.28909
434.34        62.85549
434.78         62.0046
435.23        62.16631
435.67        62.50941
436.12        63.35571
436.57        63.46437
437.01        62.89187
437.46        62.69507
437.90        63.61921
438.35        63.31169
438.79        63.83644
439.24        63.78942
439.68          63.752
440.13        63.64558
440.57          63.529
441.02        63.56178
441.46        63.71813
441.91        63.82008
442.35        63.84063
442.80        64.27915
443.24         64.9626
443.69        65.17361
444.13        64.88093
444.58         64.6244
445.02        64.48866
445.47        64.50051
445.91        64.62079
446.36        64.68015
446.80        64.66033
447.24        64.65594
447.69         64.6986
448.13        64.93693
448.58         65.1255
449.02        65.11506
449.47        64.87771
449.91        64.72488
450.36        64.69703
450.80        64.53523
451.25        64.32264
451.69        64.34959
452.13        64.57727
452.58        64.65926
453.02        64.55373
453.47        64.48238
453.91        64.42953
454.36        64.26271
454.80         64.0219
455.24        63.85736
455.69        63.80955
456.13        63.79175
456.58        63.80719
457.02        63.80183
457.46        63.80879
457.91        63.65366
458.35        63.49617
458.79        63.34606
459.24        63.25126
459.68        63.19393
460.13        63.19054
460.57        63.03978
461.01        62.60976
461.46        62.91861
461.90        62.32256
462.34        62.37751
462.79        62.24379
463.23        62.47196
463.68         62.7961
464.12        62.61731
464.56        62.08096
465.01        62.11304
465.45        62.55096
465.89        62.66406
466.34        62.45367
466.78        62.21435
467.22        61.98288
467.67        62.04286
468.11        61.55556
468.55        61.56622
468.99        61.73098
469.44         61.7091
469.88        61.47029
470.32        61.20369
470.77        60.99781
471.21         60.8874
471.65        60.89521
472.10        61.00795
472.54         61.1388
472.98        61.17762
473.42        61.10407
473.87        60.94962
474.31        60.74699
474.75        60.69187
475.20        60.76258
475.64        60.74584
476.08        60.63488
476.52        60.61143
476.97        60.66801
477.41        60.71871
477.85        60.65075
478.29        60.74076
478.74        60.09396
479.18        60.04744
479.62        60.41736
480.06        60.58553
480.50        60.59843
480.95        60.61245
481.39        60.52723
481.83        61.05585
482.27        60.96516
482.72        60.61866
483.16        60.61948
483.60        60.83963
484.04        60.74415
484.48        60.51923
484.93        60.70728
485.37        60.22023
485.81        60.69978
486.25        60.37407
486.69        61.79959
487.14        61.38759
487.58        60.98582
488.02        60.41278
488.46        60.34407
488.90        60.40575
489.34        60.40525
489.79        59.91121
490.23        60.46486
490.67        60.52191
491.11        60.52566
491.55        60.31067
491.99        59.99417
492.43        59.87331
492.88        59.96985
493.32        60.15819
493.76        60.31478
494.20        60.41839
494.64        60.46415
495.08        60.10764
495.52        59.96968
495.96        59.95214
496.41        60.14324
496.85        60.03977
497.29        59.66213
497.73        59.70461
498.17        59.80933
498.61        59.86207
499.05        59.70921
499.49        59.46585
499.93        59.24641
500.37         59.1761
500.82        59.27156
501.26        59.58037
501.70        60.08365
502.14        59.83933
502.58        59.45964
503.02         59.2537
503.46        59.35598
503.90        59.39146
504.34        59.31652
504.78        59.30092
505.22        59.36201
505.66        59.37863
506.10        59.33838
506.54         59.4561
506.98        59.77114
507.42        59.23933
507.86        59.82029
508.30        59.51653
508.74        59.61632
509.18        59.49707
509.62        59.38969
510.06        59.30244
510.50        59.21566
510.94         59.0741
511.38        58.90481
511.82        58.83487
512.26        58.87134
512.70        58.94979
513.14        59.03379
513.58        59.09439
514.02        59.11525
514.46        59.08421
514.90        58.98555
515.34        58.95647
515.78        58.82727
516.22        58.70866
516.66         58.4318
517.10        58.67778
517.54        58.52047
517.98        58.67675
518.42        58.83139
518.86        58.93657
519.30        58.96898
519.74        58.91187
520.18        58.82486
520.62        58.87333
521.06         59.0292
521.50        59.05511
521.93        58.94503
522.37        58.87985
522.81        58.86617
523.25        58.79891
523.69        58.68843
524.13        58.60272
524.57        58.54966
525.01         58.5109
525.45        58.48918
525.89        58.48734
526.32        58.50113
526.76        58.53801
527.20         58.5801
527.64        58.60028
528.08        58.59261
528.52        58.56323
528.96        58.53576
529.40        58.54142
529.83         58.5831
530.27         58.6774
530.71        58.77733
531.15        58.80626
531.59        58.75243
532.03        58.64483
532.46        58.52538
532.90        58.47418
533.34         58.5027
533.78        58.58378
534.22        58.67373
534.66        58.70597
535.09        58.65642
535.53        58.56883
535.97         58.4585
536.41        58.36444
536.85        58.30138
537.28        58.25792
537.72        58.23386
538.16        58.23103
538.60         58.2451
539.04        58.27785
539.47        58.30455
539.91        58.33399
540.35        58.34829
540.79        58.35133
541.22        58.34501
541.66        58.34809
542.10        58.35925
542.54        58.36887
542.97        58.37077
543.41         58.3887
543.85        58.41407
544.29        58.44758
544.72        58.46062
545.16         58.4504
545.60        58.40957
546.04        58.31357
546.47        58.20168
546.91        58.23289
547.35        58.38142
547.79        58.40744
548.22        58.29966
548.66        58.33778
549.10         58.4749
549.53        58.38021
549.97        58.11451
550.41        58.00599
550.84        58.07827
551.28         58.1737
551.72        58.26348
552.15        58.33114
552.59        58.36443
553.03        58.48153
553.46        58.46316
553.90         58.4521
554.34        58.37124
554.77        58.31294
555.21        58.33877
555.65        58.11441
556.08        58.32003
556.52        58.39757
556.96        58.49968
557.39        58.60006
557.83        58.67014
558.27        58.57566
558.70        58.37878
559.14        58.30212
559.57        58.35445
560.01         58.5271
560.45        58.69959
560.88        58.60209
561.32        58.33009
561.75        58.11974
562.19        58.07337
562.63        58.21017
563.06        58.43325
563.50        58.44225
563.93        58.24062
564.37        58.11818
564.80        58.10423
565.24        58.22921
565.68        58.43512
566.11        58.48364
566.55        58.39334
566.98        58.43607
567.42        58.60489
567.85        58.52035
568.29        58.29161
568.72        58.34065
569.16        58.67509
569.60        58.72485
570.03         58.7404
570.47        58.74948
570.90        58.84473
571.34        58.81085
571.77        59.06173
572.21        59.17802
572.64        59.15658
573.08        58.97883
573.51        58.91527
573.95        59.25425
574.38        59.16774
574.82        59.67234
575.25        59.62675
575.69        59.40565
576.12        59.17009
576.56        59.14417
576.99        59.62672
577.42        59.35075
577.86        59.39459
578.29        59.63643
578.73        59.87637
579.16        59.56151
579.60        59.04838
580.03        59.22115
580.47        59.37761
580.90         59.0579
581.33        59.46313
581.77        59.65348
582.20        59.90754
582.64        59.99363
583.07         59.5601
583.51        59.28056
583.94        59.08806
584.37        58.96919
584.81        58.75488
585.24        58.77478
585.68        59.21991
586.11         59.5021
586.54        59.22668
586.98        59.25517
587.41        58.80803
587.85        59.42663
588.28        59.39071
588.71        59.40228
589.15        59.56189
589.58        58.68887
590.01        58.43947
590.45        58.82568
590.88        58.96829
591.31        58.69754
591.75        58.39125
592.18        58.38215
592.61        58.81466
593.05        59.27057
593.48        59.50039
593.91        59.37041
594.35        59.23912
594.78        59.20705
595.21        59.09556
595.65         58.9854
596.08        58.80026
596.51        58.90923
596.94        58.76945
597.38        58.76682
597.81        58.75584
598.24        58.80949
598.68        58.99728
599.11        58.69503
599.54        58.95528
599.97        58.89264
600.41        58.91104
600.84        59.36312
601.27        59.04749
601.70        58.78586
602.14        58.74775
602.57        58.71772
603.00         58.7805
603.43        59.10696
603.87        59.34321
604.30        59.15901
604.73        58.89679
605.16        59.03688
605.60        58.60421
606.03        58.80691
606.46        59.24903
606.89        58.93378
607.32        58.66911
607.76        59.08052
608.19        59.09621
608.62        58.95229
609.05         59.5462
609.48        59.07327
609.92        59.24272
610.35        58.88778
610.78        59.15534
611.21        58.55912
611.64        58.84914
612.07        58.81216
612.50         58.8718
612.94        58.89997
613.37        58.89045
613.80        58.90868
614.23        58.94559
614.66        58.77158
615.09        58.72779
615.52        58.69536
615.96        58.77047
616.39         58.7061
616.82        58.46928
617.25        58.70266
617.68        58.44911
618.11        58.40203
618.54        58.43964
618.97         58.4093
619.40        58.36579
619.84        58.31132
620.27        58.47245
620.70        58.41501
621.13        58.23841
621.56        58.18648
621.99        58.29433
622.42        58.40117
622.85        58.41473
623.28        58.55317
623.71        58.44503
624.14        58.39701
624.57        58.43443
625.00         58.7698
625.43        58.44164
625.86        58.40202
626.29         58.3924
626.72        58.31184
627.15        58.26954
627.58        58.32499
628.01        58.55249
628.44        58.26328
628.87        58.11963
629.30        58.54903
629.73        58.19468
630.16        58.06005
630.59         57.9341
631.02        58.20017
631.45        58.07612
631.88        58.07978
632.31        57.95028
632.74        58.04343
633.17        57.86518
633.60        57.80997
634.03        57.74176
634.46        57.71949
634.89        57.65973
635.32        57.66893
635.75        57.72427
636.18        57.81581
636.61        57.90919
637.04        57.94992
637.47        57.92531
637.89        57.85274
638.32        57.76167
638.75        57.72016
639.18        57.74297
639.61        57.83186
640.04        57.94148
640.47        57.94817
640.90        57.85846
641.33        57.80914
641.76        57.81696
642.18        57.81116
642.61        57.78497
643.04        57.80053
643.47        57.84263
643.90        57.85952
644.33        57.84471
644.76        57.80231
645.18        57.75534
645.61        57.76038
646.04        57.80882
646.47        57.83445
646.90        57.81021
647.33        57.80024
647.75        57.78913
648.18        57.77557
648.61        57.77517
649.04        57.74166
649.47        57.66149
649.89        57.88067
650.32        57.76993
650.75        57.83669
651.18        57.87406
651.61        57.87004
652.03        57.84038
652.46        57.75341
652.89         57.6757
653.32        57.76447
653.74        57.97845
654.17         57.8775
654.60        57.85691
655.03        57.45692
655.46        57.46751
655.88        58.16819
656.31        59.32739
656.74        63.15162
657.16        61.64887
657.59        60.16381
658.02        58.18141
658.45        58.06124
658.87        58.01569
659.30        58.63014
659.73        57.77971
660.15        57.43388
660.58        58.08989
661.01        58.36674
661.44        58.43964
661.86        58.35747
662.29        58.17394
662.72        58.04375
663.14        58.01015
663.57        57.97599
664.00        57.92814
664.42        57.88773
664.85        57.86196
665.27        57.75174
665.70          57.752
666.13        57.72565
666.55        57.73601
666.98        57.76631
667.41        57.80534
667.83        57.84564
668.26        57.88651
668.69        57.86987
669.11        57.80246
669.54        57.88952
669.96        58.18183
670.39         57.8916
670.82        58.35519
671.24        58.28141
671.67         58.1106
672.09        57.98967
672.52        57.98753
672.94        58.07729
673.37        58.20301
673.80        58.19135
674.22        58.06221
674.65        58.00675
675.07        58.05194
675.50        58.04303
675.92        57.99918
676.35        58.00569
676.77        58.05124
677.20        58.16284
677.62        58.33814
678.05        58.35253
678.47        58.14696
678.90         58.5948
679.32        58.26566
679.75        58.31622
680.17        58.31107
680.60        58.49084
681.02        58.45937
681.45         58.5001
681.87        58.51264
682.30        58.48352
682.72        58.44293
683.15        58.42686
683.57        58.41426
684.00        58.47475
684.42        58.24844
684.85        58.20595
685.27        58.23444
685.70        58.27329
686.12        58.28768
686.54        58.29471
686.97         58.2845
687.39        58.26426
687.82        58.24837
688.24        58.27227
688.66        58.30098
689.09        58.47349
689.51        58.35878
689.94        58.43214
690.36         58.5403
690.78        58.61229
691.21        58.64187
691.63        58.55347
692.06        58.37582
692.48        58.55504
692.90         58.4933
693.33        58.54028
693.75        58.52983
694.17         58.5136
694.60         58.4789
695.02         58.6092
695.44        58.64236
695.87        58.57831
696.29        58.43343
696.71         58.5032
697.14        58.75859
697.56        59.02443
697.98        59.23518
698.41        59.10197
698.83        59.20081
699.25        59.00614
699.68        58.75148
700.10         58.5682
700.52        58.49494
700.94        58.48999
701.37        58.51142
701.79        58.54434
702.21        58.55431
702.64        58.56425
703.06        58.57288
703.48        58.57899
703.90        58.58789
704.33         58.5921
704.75        58.59965
705.17        58.60902
705.59        58.62217
706.01        58.63593
706.44        58.66459
706.86        58.74667
707.28        58.87005
707.70        59.02127
708.12        59.16464
708.55        59.23774
708.97        59.22132
709.39        59.13979
709.81        59.02555
710.23        58.94231
710.66        58.91408
711.08        58.93599
711.50        58.96883
711.92        58.96408
712.34        58.91233
712.76        58.83194
713.19        58.74744
713.61        58.74161
714.03        58.80598
714.45        58.92686
714.87        59.07201
715.29         59.1538
715.71        59.14803
716.13        59.22971
716.56        59.12048
716.98        59.10516
717.40        59.09807
717.82        59.09612
718.24        59.09641
718.66        59.09993
719.08        59.10943
719.50        59.12741
719.92        59.15396
720.34        59.18371
720.76        59.21619
721.19        59.24525
721.61        59.28772
722.03        59.34414
722.45        59.41434
722.87        59.49317
723.29        59.57796
723.71        59.66575
724.13        59.75179
724.55        59.83165
724.97        59.89724
725.39        59.93774
725.81        59.95073
726.23        59.93942
726.65         59.9104
727.07        59.87882
727.49        59.85436
727.91        59.82691
728.33         59.8012
728.75        59.82084
729.17        59.87163
729.59        59.86568
730.01         59.8342
730.43        59.90078
730.85        60.06786
731.27        60.25532
731.69        60.41508
732.10        60.45403
732.52        60.53596
732.94        60.28588
733.36        59.86282
733.78        59.67704
734.20        59.80155
734.62        59.94248
735.04        59.98656
735.46        60.40578
735.88        60.22962
736.30        60.21936
736.72        60.13472
737.13        60.08544
737.55        60.04142
737.97        59.99577
738.39        59.95019
738.81         59.8566
739.23        59.74471
739.65        59.77197
740.06        59.88568
740.48        59.96306
740.90        59.96664
741.32        59.98114
741.74         60.0311
742.16        60.11703
742.57        60.24957
742.99         60.4067
743.41        60.54295
743.83        60.57128
744.25        60.47841
744.67        60.28264
745.08        60.08729
745.50        60.02761
745.92        60.14927
746.34        60.41101
746.75          60.693
747.17        60.79676
747.59        60.68471
748.01        60.39091
748.42        60.05663
748.84        59.95787
749.26        60.11856
749.68        60.34025
750.09        60.52742
750.51        60.61661
750.93        60.59258
751.35        60.54282
751.76         60.4956
752.18         60.4158
752.60        60.31386
753.01        60.26917
753.43        60.26231
753.85        60.19307
754.27        60.03911
754.68        60.18327
755.10        60.00587
755.52        60.03932
755.93         60.0942
756.35        60.19042
756.77        60.30181
757.18         60.3574
757.60        60.34143
758.02        60.32944
758.43        60.41782
758.85        60.22315
759.26        60.69298
759.68        60.92478
760.10        60.49188
760.51        60.27777
760.93        60.77075
761.34        60.78693
761.76        60.57367
762.18        60.59522
762.59        60.79951
763.01        60.95049
763.42        60.29151
763.84        60.45728
764.26        60.77493
764.67        61.17808
765.09        61.41232
765.50        61.32173
765.92        61.00847
766.33        60.84489
766.75        60.85933
767.16        60.84072
767.58        60.74348
768.00        60.83903
768.41        61.10753
768.83        61.13997
769.24        60.90289
769.66        61.14313
770.07        60.89559
770.49        60.87498
770.90        60.81715
771.32        60.80399
771.73         60.8354
772.15        60.86911
772.56        60.92003
772.97         61.0032
773.39        61.08096
773.80        61.14612
774.22        61.16283
774.63        61.16008
775.05        61.14175
775.46         61.1626
775.88        61.21236
776.29        61.29449
776.70        61.37331
777.12        61.40324
777.53        61.38981
777.95        61.34436
778.36        61.27673
778.77        61.19574
779.19        61.11098
779.60        61.02878
780.02        60.97385
780.43        60.99862
780.84        61.10575
781.26        61.27224
781.67        61.47925
782.09        61.59728
782.50        61.61282
782.91        61.64652
783.33        61.68167
783.74        61.68769
784.15        61.63878
784.57        61.58294
784.98        61.56867
785.39        61.62861
785.81        61.76808
786.22        61.97416
786.63        62.18114
787.04        62.28547
787.46         62.2765
787.87        62.16119
788.28        62.01666
788.70        61.95556
789.11        61.98701
789.52        62.09158
789.93        62.21972
790.35        62.28043
790.76        62.26693
791.17        62.21526
791.58        62.16973
792.00        62.18001
792.41        62.28783
792.82        62.47046
793.23         62.7217
793.65        62.92561
794.06        63.07772
794.47        63.38013
794.88        63.78227
795.29        63.57159
795.71        63.70575
796.12        63.45554
796.53        63.16473
796.94        63.03714
797.35        63.06455
797.76        62.92963
798.18        62.66068
798.59        62.57893
799.00        62.69361
799.41         62.8426
799.82        62.94282
800.23        62.93657
800.64        62.80095
801.06          62.529
801.47        62.26313
801.88        62.17394
802.29        62.30273
802.70        62.59232
803.11        62.93517
803.52        63.14373
803.93         63.1663
804.34        63.06359
804.75        62.90124
805.17        62.81675
805.58        62.88401
805.99        62.92588
806.40        62.95042
806.81        63.26385
807.22        63.70969
807.63        63.64407
808.04        63.17414
808.45        63.06335
808.86        63.37398
809.27        63.66544
809.68        63.85306
810.09        63.98973
810.50        64.04011
810.91        63.99897
811.32        63.87889
811.73        63.70052
812.14        63.48648
812.55        63.23996
812.96        63.02444
813.37        62.94236
813.78        63.01343
814.19        63.21229
814.60        63.44764
815.01        63.57093
815.42        63.54539
815.83        63.40677
816.24         63.2196
816.65        63.11124
817.05        63.13409
817.46         63.2254
817.87        63.36339
818.28        63.47729
818.69        63.54695
819.10        63.59366
819.51        63.64557
819.92        63.74537
820.33        63.89416
820.74        64.06009
821.14        64.19566
821.55        64.25479
821.96        64.21791
822.37         64.1112
822.78        63.96051
823.19        63.81246
823.60        63.69222
824.00        63.60078
824.41        63.53417
824.82         63.5438
825.23        63.62796
825.64        63.77932
826.04        63.94534
826.45        64.00187
826.86        63.93734
827.27        63.78274
827.68        63.60735
828.08        63.55923
828.49        63.61327
828.90        63.78035
829.31        64.02565
829.72        64.18729
830.12        64.23215
830.53        64.58263
830.94         64.4762
831.35        64.47993
831.75        64.38711
832.16        64.19784
832.57        63.99995
832.97          63.943
833.38        64.05329
833.79        64.27834
834.20        64.53931
834.60        64.71465
835.01        64.76653
835.42        64.73138
835.82         64.6388
836.23        64.49766
836.64        64.34578
837.04        64.19439
837.45        64.05268
837.86        63.99089
838.26        64.03628
838.67        64.16958
839.08        64.36692
839.48        64.56979
839.89        64.74548
840.29        64.88985
840.70        65.02927
841.11        65.20938
841.51        65.44333
841.92         65.6776
842.33        65.84386
842.73        65.83299
843.14        65.59227
843.54        65.20438
843.95        64.78781
844.35         64.5539
844.76        64.54967
845.17        64.71747
845.57        64.98911
845.98        65.20906
846.38        65.35115
846.79        65.44061
847.19        65.49757
847.60        65.47865
848.00         65.4228
848.41        65.28876
848.81        65.19363
849.22        65.27935
849.62        65.59924
850.03        66.06435
850.43        66.54567
850.84        66.73488
851.24        66.61337
851.65        66.19637
852.05        65.68235
852.46        65.34614
852.86        65.28637
853.27        65.45976
853.67        65.65771
854.07        65.71736
854.48        65.57037
854.88        65.30206
855.29         64.9906
855.69        64.93185
856.10        65.10738
856.50        65.50549
856.90        65.91583
857.31        66.04043
857.71        65.85677
858.12        65.41136
858.52        64.86233
858.92        64.41819
859.33         64.1488
859.73         64.0378
860.13        64.04953
860.54        64.11933
860.94        64.26935
861.34        64.48429
861.75        64.68239
862.15        64.79605
862.55        64.76398
862.96        64.57426
863.36        64.31236
863.76          64.081
864.17        63.91416
864.57        63.82807
864.97        63.74242
865.38        63.50191
865.78        63.12229
866.18        62.64927
866.58        62.27698
866.99        62.30985
867.39        62.83371
867.79        63.70466
868.19        64.63365
868.60        65.14478
869.00        65.22607
869.40        65.16873
869.80        65.04374
870.21        64.79285
870.61         64.5332
871.01         64.3426
871.41        64.17043
871.81        63.85148
872.22        63.39299
872.62         62.8687
873.02        62.41421
873.42        62.43971
873.82        62.80386
874.22        62.88062
874.63        62.81013
875.03        62.92104
875.43        63.20688
875.83         64.4521
876.23        63.90845
876.63        63.21091
877.03        62.10981
877.44        59.97207
877.84        171.3099
878.24        61.06435
878.64        61.93018
879.04        63.58337
879.44        64.18996
879.84        60.81062
880.24        65.83061
880.64        65.87095
881.04        63.27593
881.44        61.45526
881.84        61.04737
882.24        62.10164
882.65        63.74573
883.05        64.22533
883.45        63.20773
883.85        61.66233
884.25         60.2699
884.65        59.70916
885.05        60.18686
885.45        61.37428
885.85        62.73653
886.25         63.5314
886.65        63.57726
887.05        63.13147
887.45        62.42995
887.85        61.86273
888.25         61.5929
888.65        61.47952
889.04        61.54689
889.44        61.85695
889.84        62.35229
890.24        63.00188
890.64        63.61042
891.04        63.87355
891.44        63.74287
891.84        63.31204
892.24        62.71502
892.64        62.21106
893.04        61.90829
893.44        61.74075
893.83        61.74061
894.23        61.91134
894.63        62.23795
895.03         62.7382
895.43        63.25745
895.83        63.52325
896.23        63.48261
896.63        63.19333
897.02        62.86043
897.42        62.86304
897.82        63.23483
898.22        63.85638
898.62        64.48776
899.01        64.74802
899.41        64.52187
899.81        63.95057
900.21        63.24108
900.61        62.73021
901.00        62.51423
901.40        62.56377
901.80        62.77127
902.20         62.8231
902.59        62.63762
902.99        62.58771
903.39        62.87639
903.79         62.0759
904.18        62.97299
904.58        63.26106
904.98        63.57922
905.38        63.59552
905.77        63.26872
906.17        62.72563
906.57        62.12355
906.96        61.82121
907.36        61.91072
907.76        62.30328
908.15        62.89596
908.55        63.36931
908.95        63.66077
909.34        63.78611
909.74        63.84392
910.14        63.95305
910.53         64.1386
910.93        64.34705
911.33        64.42856
911.72        64.15762
912.12        63.53082
912.52        62.65723
912.91        61.78734
913.31        61.38205
913.70        61.51839
914.10        62.07439
914.49        62.81272
914.89        63.24065
915.29        63.23707
915.68        62.90922
916.08        62.49396
916.47        62.32375
916.87         62.5149
917.26        62.95291
917.66        63.43605
918.05        63.67093
918.45         63.5666
918.84        63.22805
919.24          62.862
919.64        62.85606
920.03        63.28359
920.42        63.98685
920.82        64.66518
921.21        64.86177
921.61        64.50611
922.00        63.82904
922.40        63.15947
922.79        62.87847
923.19        62.71453
923.58         63.4395
923.98        65.28755
924.37        65.53057
924.77        62.70839
925.16        70.90749
925.55        64.69183
925.95        65.14672
926.34        65.06664
926.74         64.2803
927.13        62.80147
927.52        61.91391
927.92        62.15364
928.31        62.82317
928.70        63.72682
929.10        64.50198
929.49        65.05766
929.89        65.51703
930.28          65.773
930.67        65.54161
931.07        64.83196
931.46        63.61335
931.85        62.33269
932.24        62.21849
932.64        63.46082
933.03        65.08957
933.42         66.1365
933.82        68.60361
934.21        66.88736
934.60        65.40193
934.99        63.87047
935.39        63.50505
935.78        64.38103
936.17        66.79047
936.56        73.57858
936.96        66.73428
937.35        70.56306
937.74        67.15239
938.13        64.59531
938.53        62.63527
938.92        62.09187
939.31        63.41309
939.70        65.22296
940.09        66.13833
940.49        65.84572
940.88         64.8386
941.27        63.56673
941.66        62.86555
942.05        63.05232
942.44        63.77914
942.84        64.62654
943.23        65.13059
943.62         65.1396
944.01        64.79863
944.40        64.40171
944.79        64.41585
945.18         64.9434
945.57        65.82186
945.97        66.60997
946.36        66.74989
946.75        66.08409
947.14        64.79474
947.53        63.39288
947.92         62.7555
948.31        63.10957
948.70        64.17803
949.09        65.40531
949.48        65.93311
949.87        65.55952
950.26        64.56033
950.65        63.36104
951.04        62.65151
951.43        62.64608
951.82        63.13274
952.21        63.83023
952.60         64.2691
952.99        64.28437
953.38        64.02435
953.77        63.69049
954.16        63.55349
954.55        63.68503
954.94        64.01359
955.33        64.34435
955.72        64.35467
956.11        63.96877
956.50        63.28386
956.89        62.64307
957.28        62.57297
957.66        63.20143
958.05        64.29263
958.44        65.40342
958.83        65.86555
959.22        65.52435
959.61        64.51496
960.00        63.28955
960.39         62.7245
960.78        63.07904
961.16        64.11574
961.55         65.1608
961.94        65.39817
962.33        64.68467
962.72        63.24535
963.11        61.65285
963.49        61.06973
963.88        61.84487
964.27        63.53042
964.66        65.36876
965.04        66.34663
965.43        66.19456
965.82        65.27734
966.21        63.99871
966.60        63.07504
966.98        62.77864
967.37        62.87688
967.76         63.2159
968.15        63.54957
968.53        63.79498
968.92        64.05762
969.31        64.30811
969.69        64.45043
970.08        64.44712
970.47        64.26731
970.86        64.07218
971.24        64.17761
971.63        64.61431
972.02        65.29083
972.40        65.93592
972.79        66.05544
973.17        65.62322
973.56        64.78648
973.95        63.88846
974.33        63.53578
974.72        63.89956
975.11        64.77885
975.49        65.93198
975.88        66.88046
976.26        67.52372
976.65        67.90901
977.04        68.09669
977.42        68.14529
977.81        68.05353
978.19        67.74795
978.58        67.49216
978.96        67.66158
979.35        68.27441
979.74        69.17935
980.12         70.0631
980.51          70.325
980.89        69.99818
981.28        69.13744
981.66        67.98253
982.05        67.22384
982.43        67.11494
982.82        67.53369
983.20        68.14332
983.59        68.36674
983.97        68.10583
984.35        67.48505
984.74        66.74564
985.12        66.39273
985.51        66.52476
985.89        67.04069
986.28        67.60439
986.66        67.81228
987.04        67.63309
987.43        67.09465
987.81        66.24154
988.20        66.74888
988.58        68.90149
988.96        69.62745
989.35        68.01756
989.73        74.35665
990.12        70.80889
990.50        71.04897
990.88        70.47643
991.27         69.9978
991.65        69.64574
992.03        69.49702
992.42        69.60941
992.80        69.48909
993.18        69.06394
993.56        68.54615
993.95        68.01073
994.33        67.51337
994.71        67.12826
995.10        66.81095
995.48        66.72198
995.86        67.11726
996.24        67.99135
996.63        69.15395
997.01        70.37848
997.39        71.11765
997.77        71.20724
998.15        70.74231
998.54        70.01197
998.92        69.37737
999.30        69.02698
999.68        68.98273
1000.06        69.00799
1000.45        68.60259
1000.83        67.80019
1001.21        66.76928
1001.59        66.22519
1001.97        67.15773
1002.35        69.46891
1002.73        72.54738
1003.12        75.42126
1003.50        76.93411
1003.88        76.90039
1004.26        75.68085
1004.64        73.74792
1005.02        72.15816
1005.40        71.40749
1005.78        71.20394
1006.16        71.40215
1006.54        71.67711
1006.92        71.87477
1007.30        72.24001
1007.69        72.49229
1008.07        72.24084
1008.45        71.42496
1008.83        70.05364
1009.21        68.76715
1009.59        68.93405
1009.97        70.73632
1010.35        73.41895
1010.73        75.97771
1011.11         77.6265
1011.49        78.40885
1011.86        78.27851
1012.24        77.24245
1012.62        78.54798
1013.00         79.4882
1013.38         79.7112
1013.76         77.7562
1014.14        81.32114
1014.52        86.61706
1014.90        78.17773
1015.28        78.44579
1015.66        79.73707
1016.04        76.71487
1016.41        78.62373
1016.79         79.5602
1017.17        80.14598
1017.55        79.63529
1017.93        78.46144
1018.31        77.46882
1018.69        77.61203
1019.06        79.11981
1019.44        81.44289
1019.82        83.58266
1020.20        84.25658
1020.58        83.17503
1020.95        80.37014
1021.33        76.43444
1021.71        73.70349
1022.09        73.68614
1022.46        75.51759
1022.84        77.72588
1023.22        79.14896
1023.60        79.74876
1023.97        79.99028
1024.35         80.0694
1024.73        80.26077
