SpectraSmart Spectrum 2.9.0.0
--------- Device Information -----------
Spectrum Name :  反射率_0
Saving Time :  2024/04/20 23:56:22
Spectro-Module Model Name : SE2030-DUVN
Spectro-Module Serial Number : OS361AC55029948
Wavelength Start : 200
Wavelength End : 1025
Wavelength Unit : Wavelength(nm)
Spectrum Unit : Reflectance(%)
-----------Spectrum Setting ------------
Integration Time : 20ms
Average : 10
Boxcar : 0
Background removal :  enabled
linearity correction :  enabled
SC :  disabled
Intensity correction :  disabled
DWT denoise :  enabled
savitzky-golay :  disabled
FFT :  disabled
Running average :  disabled
Kalman :  disabled
High pass :  disabled
---------------BEGIN--------------------
Wavelength(nm)             Reflectance(%)
200.29               0
200.75       -26.59017
201.21        8.109991
201.67        23.85816
202.13        28.23862
202.58        25.98974
203.04        19.52827
203.50         10.0091
203.96        1.586399
204.42       -2.725563
204.88       -4.385014
205.34       -3.852803
205.80       -2.307462
206.26       0.2625605
206.72        7.146885
207.18        15.36118
207.64        16.09378
208.10         6.80373
208.55       -10.61768
209.01        -20.4439
209.47       -4.086319
209.93        20.23194
210.39        39.40389
210.85         51.2283
211.31        55.60401
211.77        54.27509
212.23        47.93552
212.69         32.8178
213.14        2.342538
213.60       -57.60961
214.06       -237.2463
214.52       -647.9517
214.98       -274.6983
215.44       -54.05886
215.90        18.76753
216.36        42.06866
216.81        42.80217
217.27        23.69262
217.73       -72.57526
218.19        1088.036
218.65        473.7433
219.11       -1002.633
219.57       -32.40122
220.02        29.13032
220.48        39.84603
220.94        33.45802
221.40        8.770755
221.86       -52.01605
222.32       -97.27267
222.77        -48.8217
223.23       -3.446739
223.69        20.52968
224.15        29.93635
224.61        32.07822
225.06        31.51238
225.52        28.87793
225.98        24.17044
226.44        18.00661
226.90        9.268079
227.36        2.607814
227.81        6.677258
228.27        17.86093
228.73        29.85918
229.19        37.80256
229.65        39.28781
230.10        35.35197
230.56        27.58151
231.02        17.41321
231.48        10.68008
231.93        11.51951
232.39         17.7016
232.85        24.62518
233.31        28.42862
233.77        29.31655
234.22        28.95444
234.68        28.01041
235.14        27.62465
235.60        28.49148
236.05        29.46715
236.51        30.19727
236.97        35.17692
237.43        44.23132
237.88        49.00544
238.34        45.99509
238.80        63.88834
239.26        52.79037
239.71         49.4455
240.17        40.31871
240.63        31.72296
241.08         28.1922
241.54        33.72469
242.00        46.64182
242.46        53.61848
242.91        50.89012
243.37        38.06743
243.83        18.56978
244.28        8.874019
244.74        18.10203
245.20        37.25113
245.66        54.92315
246.11        60.06027
246.57         51.6997
247.03         33.6524
247.48        9.046703
247.94       -17.61971
248.40       -50.06874
248.85       -118.0708
249.31       -315.0048
249.77       -468.5102
250.22       -168.6242
250.68        -42.8273
251.14       -1.854057
251.59         10.3391
252.05        11.27049
252.51        5.905963
252.96       -4.876572
253.42       -13.06519
253.88       -11.15341
254.33       -1.663597
254.79          13.216
255.25         29.3757
255.70        42.66482
256.16        52.31477
256.62        58.67095
257.07         62.2012
257.53        64.15294
257.99        64.95776
258.44        64.46875
258.90        63.23402
259.35        61.08923
259.81        58.75988
260.27        56.55652
260.72        54.91147
261.18        54.09216
261.63        53.56942
262.09        53.13525
262.55        52.17795
263.00         50.6567
263.46        48.98587
263.91        47.37754
264.37        46.51993
264.83        46.32772
265.28         46.4714
265.74        46.65829
266.19        46.31905
266.65        45.44276
267.11        44.16866
267.56        42.70016
268.02        41.43548
268.47         40.4281
268.93        39.59879
269.38        38.78936
269.84        37.82127
270.30         36.6554
270.75        35.39698
271.21        34.20074
271.66        33.22036
272.12        32.51856
272.57        31.99728
273.03        31.60003
273.48        31.20912
273.94        30.80115
274.39        30.37767
274.85        29.94033
275.31        29.42311
275.76        28.82768
276.22        28.21036
276.67        27.63571
277.13        27.27724
277.58        27.10653
278.04         27.0796
278.49        27.06106
278.95        26.93754
279.40         26.6384
279.86        26.24532
280.31        25.75629
280.77        25.25571
281.22        24.74183
281.68        24.25331
282.13        23.78337
282.59        23.39801
283.04        23.08246
283.50        22.85161
283.95        22.69129
284.41        22.60239
284.86        22.56666
285.32        22.59226
285.77        22.63642
286.22        22.65497
286.68        22.65833
287.13        22.62008
287.59        22.62145
288.04        22.67976
288.50        22.77352
288.95        23.00956
289.41        23.37242
289.86        23.34984
290.32        22.85906
290.77        23.85446
291.22        23.10755
291.68        23.31426
292.13        23.53835
292.59        23.86796
293.04        24.30731
293.50        24.93352
293.95        25.77209
294.40        26.77815
294.86        27.90631
295.31        29.07128
295.77        30.24216
296.22        31.42062
296.68        32.63278
297.13        33.91467
297.58        35.29284
298.04        36.76018
298.49        38.30126
298.95        39.91359
299.40        41.56971
299.85        43.27062
300.31        45.00923
300.76        46.75032
301.21         48.4921
301.67        50.26078
302.12          52.032
302.58        53.87711
303.03        55.77875
303.48        57.76368
303.94        59.83306
304.39        61.93217
304.84        64.04859
305.30        66.20201
305.75        68.33645
306.20        70.47668
306.66        72.62112
307.11          74.705
307.57        76.74682
308.02        78.70416
308.47        80.58858
308.93        82.43436
309.38        84.18616
309.83         85.8222
310.29        87.39428
310.74        88.84566
311.19        90.21449
311.65        91.52234
312.10        92.76624
312.55        93.95613
313.00        95.09599
313.46        96.19392
313.91        97.23137
314.36        98.20901
314.82        99.14028
315.27        100.0362
315.72        100.9047
316.18        101.7435
316.63        102.5118
317.08        103.1483
317.53         103.642
317.99        104.0094
318.44          104.32
318.89        104.6687
319.35        105.0832
319.80        105.5581
320.25        106.0353
320.70        106.4212
321.16        106.6867
321.61        106.8738
322.06        107.0552
322.51         107.358
322.97        107.7869
323.42        108.3303
323.87        108.8664
324.32        109.2143
324.78        109.3126
325.23        109.2641
325.68        109.1581
326.13        109.1736
326.59        109.3418
327.04        109.6659
327.49        110.0763
327.94        110.4878
328.39        110.8658
328.85        111.2124
329.30        111.5807
329.75        111.9163
330.20         112.216
330.66        112.4287
331.11        112.6727
331.56        113.0124
332.01        113.4689
332.46        114.0289
332.92        114.5541
333.37        114.9543
333.82        115.1535
334.27        115.2093
334.72        115.2682
335.17        115.5755
335.63        116.1579
336.08        116.9938
336.53        117.9196
336.98        118.7125
337.43        119.2901
337.88        119.7105
338.34        119.9879
338.79        120.2177
339.24        120.4192
339.69        120.5788
340.14        120.7461
340.59        121.0075
341.05         121.384
341.50         121.874
341.95        122.4341
342.40         122.982
342.85        123.4836
343.30        123.9485
343.75        124.3731
344.20        124.7625
344.66        125.1274
345.11        125.4383
345.56        125.7032
346.01        125.9429
346.46        126.1683
346.91        126.3515
347.36        126.4796
347.81        126.6132
348.26        126.7686
348.72        126.6403
349.17        126.7821
349.62        126.7559
350.07        126.7386
350.52        126.7113
350.97        126.6824
351.42        126.6574
351.87        126.6199
352.32        126.5574
352.77        126.4458
353.22        126.2458
353.67        125.9516
354.13        125.6031
354.58        125.1676
355.03        124.6536
355.48        124.0797
355.93        123.4452
356.38        122.8385
356.83        122.3884
357.28        122.0952
357.73        121.9111
358.18        121.6747
358.63        121.1283
359.08        120.2308
359.53        119.0799
359.98        117.8531
360.43        116.8215
360.88        116.0488
361.33        115.4448
361.78        114.9114
362.23        114.2901
362.68        113.5329
363.13        112.7054
363.58        111.8179
364.03        110.8789
364.48        109.9052
364.93        108.8803
365.38         107.874
365.83         107.011
366.28        106.3073
366.73        105.7262
367.18        105.1598
367.63        104.4292
368.08        103.5018
368.53        102.4499
368.98        101.3579
369.43        100.3471
369.88        99.45079
370.33        98.62176
370.78        97.85867
371.23        97.17641
371.68        96.57101
372.13        96.04478
372.58        95.54076
373.03        94.95052
373.48        94.24432
373.93        93.44641
374.38        92.60859
374.83        91.83559
375.28         91.1697
375.72         90.5678
376.17        90.03918
376.62        89.51574
377.07        88.96229
377.52        88.37646
377.97        87.76258
378.42        87.14377
378.87        86.54417
379.32        85.97864
379.77        85.41615
380.22        84.79514
380.67        84.10073
381.11        83.34864
381.56        82.62177
382.01        82.08379
382.46        81.77692
382.91        81.65927
383.36        81.58252
383.81        81.31659
384.26        80.80973
384.71        80.12073
385.15         79.3931
385.60         78.9186
386.05        78.72499
386.50        78.72577
386.95        78.73758
387.40        78.48139
387.85        77.91807
388.29        77.11867
388.74        76.36616
389.19        75.84323
389.64        75.57733
390.09        75.47333
390.54        75.41435
390.98        75.20441
391.43        74.84401
391.88        74.40144
392.33        73.94489
392.78        73.57639
393.23        73.32365
393.67        73.07143
394.12          72.893
394.57          72.819
395.02        72.78583
395.47        72.57993
395.91        72.24229
396.36        72.00159
396.81         71.8952
397.26        71.81925
397.71        71.69534
398.15        71.45039
398.60        71.15596
399.05        70.68821
399.50        70.21407
399.95        70.13784
400.39        70.37706
400.84        70.46893
401.29        70.30579
401.74        69.80926
402.18        69.14411
402.63          68.898
403.08        69.03262
403.53        68.87897
403.97        68.41692
404.42        68.10844
404.87        67.97688
405.32        67.87024
405.76        67.77906
406.21        67.72229
406.66         67.6619
407.11        67.62778
407.55        67.58649
408.00        67.31725
408.45          66.899
408.90         66.6231
409.34         66.5293
409.79        66.51141
410.24        66.51595
410.68         66.5006
411.13        66.44714
411.58        66.38039
412.03          66.311
412.47        66.26553
412.92        66.23017
413.37        66.20863
413.81        66.20309
414.26        66.27338
414.71        66.40063
415.15        66.58096
415.60        66.74077
416.05        66.80912
416.49        66.76624
416.94        66.62978
417.39        66.43746
417.83        66.24191
418.28         66.0667
418.73        65.89256
419.17        65.73814
419.62        65.64418
420.07        65.62131
420.51        65.66213
420.96        65.73512
421.41         65.7773
421.85        65.75563
422.30        65.61145
422.74        65.40806
423.19        65.61182
423.64        66.10117
424.08        66.22412
424.53         65.9285
424.98        65.86238
425.42        66.07185
425.87        66.10651
426.31        65.99859
426.76        66.10211
427.21        66.36639
427.65        66.45151
428.10        66.34041
428.54        66.29797
428.99        66.36442
429.44        66.44543
429.88        66.46082
430.33        66.31669
430.77        66.03012
431.22        65.92921
431.66        66.00608
432.11        66.13695
432.56        66.31882
433.00        66.40202
433.45        66.20571
433.89        66.21264
434.34        66.55573
434.78        65.69919
435.23        65.84578
435.67        66.54106
436.12        66.97745
436.57        67.18134
437.01        66.85457
437.46        66.63272
437.90        67.05358
438.35        67.10315
438.79        67.03901
439.24        66.97294
439.68        66.95365
440.13        66.91287
440.57        66.88963
441.02        67.02202
441.46        67.26841
441.91        67.50826
442.35        67.62251
442.80        67.84671
443.24        68.07883
443.69        68.05293
444.13        67.80118
444.58        67.55812
445.02        67.39507
445.47        67.49554
445.91        67.76482
446.36        67.86137
446.80        67.73757
447.24        67.56173
447.69        67.44987
448.13        67.44819
448.58        67.75153
449.02        67.81879
449.47        67.69238
449.91        67.60718
450.36         67.5843
450.80         67.3767
451.25        67.09859
451.69        67.10511
452.13        67.36642
452.58        67.49966
453.02        67.44217
453.47        67.39838
453.91        67.34451
454.36        67.16189
454.80        66.90848
455.24        66.71446
455.69        66.61882
456.13        66.62419
456.58        66.76888
457.02        66.59607
457.46        66.85371
457.91        66.83243
458.35        66.85003
458.79         66.7898
459.24        66.69076
459.68         66.5551
460.13        66.46832
460.57        66.30152
461.01        66.05117
461.46        66.55948
461.90        66.22452
462.34        66.33321
462.79        65.81912
463.23        65.71601
463.68        66.23945
464.12        66.05507
464.56        65.44006
465.01        65.52106
465.45        66.07233
465.89         66.0701
466.34        65.62643
466.78        65.42052
467.22        65.43423
467.67        65.84377
468.11        65.32162
468.55        65.15178
468.99        64.98856
469.44        64.85509
469.88        64.75589
470.32        64.68011
470.77        64.62295
471.21         64.5543
471.65        64.47115
472.10        64.38843
472.54        64.30129
472.98        64.24174
473.42        64.21981
473.87        64.18591
474.31        64.12703
474.75        64.24245
475.20        64.44989
475.64        64.41982
476.08         64.2186
476.52        64.09563
476.97        64.00308
477.41         64.1405
477.85        64.52927
478.29        63.74726
478.74        63.58905
479.18        64.09338
479.62        63.85839
480.06        64.04213
480.50        64.10423
480.95        64.14071
481.39         64.0364
481.83        64.38539
482.27        64.51311
482.72        64.02872
483.16        64.22159
483.60        64.31461
484.04        64.47031
484.48        64.08289
484.93         63.7814
485.37        64.06074
485.81        64.18652
486.25        63.52994
486.69        65.07406
487.14        64.94987
487.58         64.1286
488.02        64.01823
488.46        63.88029
488.90        63.92249
489.34        63.57915
489.79        63.12011
490.23        63.38238
490.67        63.48191
491.11        63.62139
491.55        63.53624
491.99         63.2961
492.43        63.23646
492.88        63.36713
493.32        63.50675
493.76        63.55119
494.20        63.54902
494.64         63.5147
495.08        63.10333
495.52        62.92154
495.96        62.94708
496.41         63.2509
496.85        63.31429
497.29         63.1016
497.73        63.21606
498.17         63.2678
498.61        63.30292
499.05        63.18121
499.49        62.75678
499.93        62.24833
500.37        62.38522
500.82        63.01023
501.26        63.26204
501.70        63.06089
502.14          62.568
502.58          62.418
503.02        62.26631
503.46        62.25018
503.90        62.35294
504.34        62.50312
504.78        62.63723
505.22        62.72671
505.66        62.75071
506.10        62.70695
506.54        62.68304
506.98        62.69959
507.42        62.31357
507.86        62.50035
508.30        62.12545
508.74        62.23026
509.18        62.16356
509.62        62.14851
510.06        62.17486
510.50        62.21365
510.94        62.19978
511.38        62.12519
511.82         62.0675
512.26        62.02785
512.70        61.95343
513.14        61.87784
513.58        61.86858
514.02        61.92855
514.46         62.0692
514.90        62.20814
515.34        62.16917
515.78        61.97462
516.22           61.81
516.66        61.56545
517.10        61.74504
517.54        61.49494
517.98        61.56145
518.42        61.66823
518.86        61.74574
519.30        61.77145
519.74        61.77506
520.18        61.77502
520.62        61.78487
521.06        61.80604
521.50        61.80858
521.93        61.78974
522.37        61.76562
522.81        61.73937
523.25         61.7077
523.69        61.66311
524.13        61.59546
524.57        61.50782
525.01        61.40676
525.45        61.32138
525.89        61.29646
526.32        61.33832
526.76        61.43748
527.20        61.55487
527.64        61.63692
528.08        61.66755
528.52        61.64407
528.96        61.59731
529.40        61.61106
529.83         61.6732
530.27        61.70559
530.71         61.6888
531.15         61.6737
531.59        61.65717
532.03        61.60132
532.46        61.52422
532.90        61.49148
533.34        61.50542
533.78        61.54982
534.22        61.58511
534.66        61.55043
535.09        61.42996
535.53        61.26835
535.97        61.10645
536.41        61.02386
536.85        61.03872
537.28         61.1255
537.72        61.24231
538.16        61.32167
538.60        61.34122
539.04        61.32224
539.47        61.27277
539.91        61.25614
540.35        61.26865
540.79        61.29831
541.22        61.32904
541.66        61.35308
542.10        61.35922
542.54        61.34544
542.97        61.32009
543.41        61.32706
543.85        61.36628
544.29        61.43984
544.72        61.49161
545.16        61.49039
545.60        61.42251
546.04        61.23036
546.47        61.01624
546.91        61.10671
547.35        61.43822
547.79        61.60664
548.22        61.54441
548.66        61.46763
549.10        61.39782
549.53        61.26912
549.97        61.12547
550.41        61.01586
550.84        60.96295
551.28        60.98001
551.72        61.03775
552.15        61.08268
552.59        61.11658
553.03        61.05007
553.46        61.09769
553.90        61.05441
554.34        60.97736
554.77        60.96254
555.21        61.08439
555.65        60.78286
556.08        61.06297
556.52         61.1577
556.96         61.2953
557.39        61.28128
557.83        61.15191
558.27        61.06041
558.70        61.03715
559.14        61.02155
559.57         61.0082
560.01        61.14328
560.45        61.32276
560.88        61.24834
561.32          61.008
561.75        60.80671
562.19        60.74405
562.63        60.86256
563.06        61.07681
563.50        61.07736
563.93        60.86253
564.37        60.76141
564.80        60.77565
565.24        60.80599
565.68        60.84762
566.11        60.88221
566.55        60.91705
566.98        61.03709
567.42        61.24197
567.85        61.09714
568.29        61.16464
568.72         61.1179
569.16        61.16156
569.60        61.22857
570.03        61.22396
570.47        61.32161
570.90        61.45847
571.34        61.38855
571.77        61.84925
572.21        61.65504
572.64        61.66381
573.08        61.60309
573.51         61.4431
573.95        61.87284
574.38        61.75785
574.82        62.26321
575.25        61.97473
575.69        61.81307
576.12         61.4818
576.56        61.66261
576.99        61.64861
577.42        61.70541
577.86        62.02018
578.29        62.20396
578.73        62.69565
579.16        62.15736
579.60        61.51129
580.03        61.94252
580.47         61.7738
580.90        62.00807
581.33        61.95414
581.77        62.21029
582.20        62.60495
582.64        62.67706
583.07        62.32959
583.51        61.95708
583.94        61.51133
584.37        61.53431
584.81        61.32618
585.24        61.43235
585.68        61.99124
586.11        61.82302
586.54        61.85773
586.98         62.0913
587.41        61.31036
587.85        61.72807
588.28        61.98265
588.71        62.04348
589.15        61.95119
589.58        61.56675
590.01        61.36406
590.45        61.53896
590.88        61.55301
591.31        61.32525
591.75         61.3712
592.18        61.24559
592.61        61.16451
593.05        61.39386
593.48         62.0476
593.91        61.56158
594.35        61.50696
594.78        61.47782
595.21        61.31594
595.65         61.3842
596.08        61.43654
596.51        61.62885
596.94        61.35585
597.38         61.3283
597.81        61.46276
598.24        61.34387
598.68        61.09127
599.11        61.37503
599.54        61.60944
599.97        61.33078
600.41        61.35186
600.84        61.52404
601.27        61.45864
601.70        61.37616
602.14        61.37208
602.57         61.2767
603.00        61.20908
603.43        61.22094
603.87        61.82039
604.30        61.60618
604.73        61.24566
605.16        61.22141
605.60        61.53969
606.03        61.42109
606.46        61.49866
606.89        61.25394
607.32        61.14617
607.76        61.57799
608.19        61.47367
608.62        61.34874
609.05        61.95336
609.48        61.48168
609.92        61.57743
610.35        61.21538
610.78        61.51633
611.21        61.35889
611.64        61.35794
612.07        61.33265
612.50         61.3989
612.94        61.39934
613.37        61.32882
613.80        61.35863
614.23        61.48106
614.66         61.0727
615.09        61.00326
615.52        60.87073
615.96        60.91643
616.39         60.9416
616.82        60.95306
617.25        60.88023
617.68        61.10971
618.11        61.01402
618.54        60.92729
618.97        60.84743
619.40        60.79787
619.84        60.91707
620.27        60.64121
620.70        60.61572
621.13        60.65745
621.56        60.69687
621.99        60.73772
622.42        60.77448
622.85        60.77832
623.28        60.93036
623.71        60.81065
624.14        60.82877
624.57        61.06408
625.00        60.89031
625.43        60.74976
625.86         60.6717
626.29        60.82061
626.72        60.50121
627.15        60.60277
627.58        60.61095
628.01        60.78658
628.44        60.52152
628.87         60.3709
629.30        60.56833
629.73        60.40789
630.16        60.42648
630.59         60.2919
631.02        60.66866
631.45        60.62398
631.88        60.74868
632.31         60.7902
632.74        60.48716
633.17        60.49192
633.60         60.3351
634.03        60.23163
634.46        60.20784
634.89        60.16825
635.32        60.18752
635.75        60.22334
636.18        60.28331
636.61        60.35518
637.04        60.42006
637.47        60.47057
637.89         60.5122
638.32        60.52616
638.75         60.5118
639.18        60.47254
639.61        60.41246
640.04        60.35293
640.47        60.32864
640.90        60.34671
641.33        60.39676
641.76        60.46018
642.18        60.51074
642.61        60.52436
643.04        60.51743
643.47        60.49331
643.90        60.46244
644.33        60.43138
644.76        60.38447
645.18         60.3365
645.61        60.33532
646.04        60.37119
646.47        60.37543
646.90        60.34821
647.33        60.34666
647.75        60.36531
648.18        60.38158
648.61        60.40089
649.04        60.41609
649.47        60.39068
649.89        60.54705
650.32         60.2703
650.75        60.35554
651.18        60.56342
651.61        60.57188
652.03        60.39654
652.46        60.31601
652.89        60.38235
653.32        60.46689
653.74        60.51193
654.17        60.63505
654.60        60.08702
655.03        60.09592
655.46        60.43556
655.88        60.80894
656.31        61.50099
656.74        65.46596
657.16        64.00504
657.59        62.35126
658.02        60.99379
658.45        60.40631
658.87         60.9091
659.30        60.45369
659.73        60.49655
660.15        60.12049
660.58        60.51053
661.01        60.82758
661.44        61.12355
661.86        60.96342
662.29        60.43379
662.72        60.18901
663.14        60.29387
663.57        60.38457
664.00         60.4015
664.42         60.4156
664.85         60.4187
665.27        60.28666
665.70        60.24768
666.13         60.2084
666.55        60.24364
666.98        60.31746
667.41        60.40633
667.83        60.48071
668.26        60.53755
668.69         60.5352
669.11        60.46721
669.54        60.53753
669.96        60.79752
670.39         60.3765
670.82        60.73119
671.24        60.69048
671.67        60.66774
672.09        60.65198
672.52        60.66175
672.94        60.57165
673.37        60.42386
673.80        60.42784
674.22        60.57687
674.65        60.64211
675.07         60.6275
675.50        60.64567
675.92        60.70374
676.35        60.73927
676.77        60.74785
677.20        60.75734
677.62        60.79327
678.05        60.81599
678.47        60.81252
678.90        61.05841
679.32        61.02931
679.75        61.08889
680.17        61.08226
680.60        61.03857
681.02        60.97647
681.45        60.93458
681.87        60.93337
682.30        60.92949
682.72          60.946
683.15        61.02058
683.57        61.11043
684.00        61.24191
684.42        61.05914
684.85        61.01193
685.27        60.99261
685.70        60.92889
686.12        60.82443
686.54        60.76427
686.97        60.75098
687.39        60.79094
687.82        60.86259
688.24        60.89812
688.66        60.86347
689.09        61.01909
689.51        60.91865
689.94        60.98318
690.36        61.06623
690.78        61.12285
691.21        61.14392
691.63        61.10436
692.06        61.05215
692.48        61.10675
692.90        61.24778
693.33        61.32404
693.75        61.33377
694.17        61.31065
694.60        61.26014
695.02        61.37853
695.44        61.38525
695.87        61.34018
696.29        61.21748
696.71        61.13343
697.14         61.1127
697.56        61.28447
697.98        61.58706
698.41        61.47343
698.83        61.53908
699.25        61.38977
699.68        61.24395
700.10        61.12017
700.52        61.04338
700.94        60.99889
701.37        60.97364
701.79        61.00552
702.21        61.07043
702.64        61.16927
703.06        61.26685
703.48        61.31215
703.90        61.29961
704.33        61.24115
704.75        61.16966
705.17        61.12266
705.59        61.11305
706.01         61.1232
706.44        61.16301
706.86        61.25304
707.28        61.37253
707.70        61.55044
708.12        61.73278
708.55        61.74691
708.97        61.61045
709.39        61.53703
709.81        61.55164
710.23        61.53852
710.66        61.51022
711.08        61.56698
711.50        61.67444
711.92        61.74306
712.34         61.7599
712.76        61.74926
713.19        61.72231
713.61        61.74256
714.03        61.79755
714.45        61.88263
714.87        61.97661
715.29        62.00808
715.71        61.96007
716.13        62.01022
716.56        61.87554
716.98        61.86772
717.40        61.89502
717.82         61.9485
718.24        61.99975
718.66        62.00737
719.08        61.96591
719.50        61.89286
719.92        61.81168
720.34         61.7552
720.76        61.73587
721.19        61.73602
721.61        61.77192
722.03        61.84105
722.45        61.93787
722.87         62.0595
723.29        62.18549
723.71        62.28127
724.13        62.33338
724.55        62.35045
724.97        62.36765
725.39        62.36112
725.81        62.32473
726.23        62.41638
726.65        62.65683
727.07        62.25379
727.49        62.52597
727.91        62.40883
728.33        62.32729
728.75        62.33387
729.17        62.43288
729.59        62.51891
730.01        62.55943
730.43        62.60598
730.85        62.64809
731.27        62.64084
731.69        62.61825
732.10        62.60167
732.52        62.78829
732.94        62.77266
733.36        62.64146
733.78        62.60104
734.20        62.66437
734.62        62.70358
735.04        62.70971
735.46        62.72969
735.88        62.76434
736.30        62.80798
736.72        62.83918
737.13        62.85878
737.55        62.83052
737.97        62.71128
738.39        62.56432
738.81         62.6399
739.23        62.89296
739.65        62.94362
740.06        62.74295
740.48        62.66274
740.90        62.68441
741.32        62.45119
741.74        62.33677
742.16        62.28591
742.57        62.43092
742.99        62.68374
743.41        62.96266
743.83        63.11214
744.25        63.09322
744.67         62.9558
745.08        62.79632
745.50        62.73359
745.92        62.81733
746.34        63.00403
746.75        63.22187
747.17        63.33931
747.59        63.32144
748.01        63.21843
748.42        63.09407
748.84        62.97567
749.26        62.90058
749.68        63.00573
750.09        63.20781
750.51        63.10433
750.93        62.77848
751.35        62.79736
751.76        63.11789
752.18        63.21205
752.60        63.05628
753.01        62.95958
753.43        62.92027
753.85        62.85248
754.27        62.75597
754.68        62.66691
755.10        62.62572
755.52        62.59715
755.93        62.57139
756.35        62.86031
756.77        62.89028
757.18        62.95545
757.60        62.87098
758.02        62.74866
758.43        62.72826
758.85        62.49592
759.26        63.08271
759.68        63.44905
760.10         63.0324
760.51         62.9375
760.93        63.53183
761.34        62.71996
761.76        63.37506
762.18        63.26225
762.59        62.92385
763.01        63.02653
763.42        62.68987
763.84        62.89452
764.26        62.97303
764.67        63.26332
765.09        63.56957
765.50        63.74953
765.92        63.79669
766.33        63.69046
766.75        63.48536
767.16        63.40107
767.58        63.41333
768.00        63.58625
768.41        63.86416
768.83        63.72953
769.24        63.25396
769.66        63.59502
770.07         63.7536
770.49        63.84801
770.90        63.60982
771.32        63.45613
771.73        63.44096
772.15        63.45124
772.56        63.52079
772.97        63.62884
773.39        63.72636
773.80        63.93681
774.22        64.13734
774.63        64.00571
775.05        63.60845
775.46        63.43294
775.88        63.51001
776.29        63.61104
776.70        63.68039
777.12        63.74325
777.53        63.79764
777.95        63.83978
778.36        63.86398
778.77         63.8514
779.19        63.80032
779.60        63.71542
780.02        63.64697
780.43         63.6787
780.84        63.81891
781.26        64.07643
781.67        64.38237
782.09        64.42757
782.50         64.2337
782.91        64.14652
783.33        64.17903
783.74        64.18638
784.15        64.14838
784.57        64.20646
784.98        64.35122
785.39        64.46875
785.81         64.5408
786.22        64.59383
786.63          64.634
787.04        64.67129
787.46        64.72154
787.87        64.75626
788.28        64.77195
788.70        64.76023
789.11        64.70264
789.52        64.61182
789.93        64.53214
790.35        64.52425
790.76        64.61799
791.17        64.80323
791.58        65.00521
792.00        65.11498
792.41        65.14118
792.82        65.00517
793.23        64.84274
793.65        65.04137
794.06        65.52105
794.47        65.79503
794.88        65.87162
795.29        65.61768
795.71        66.02359
796.12        66.01522
796.53        65.87103
796.94        65.78937
797.35        65.75442
797.76         65.5288
798.18        65.17957
798.59        65.01375
799.00        65.06071
799.41        65.19767
799.82        65.34267
800.23        65.40283
800.64        65.34438
801.06        65.17567
801.47        65.00441
801.88        64.93781
802.29        65.00578
802.70        65.16155
803.11        65.35513
803.52        65.50319
803.93        65.58467
804.34        65.63469
804.75        65.65417
805.17        65.68914
805.58        65.78777
805.99        65.74577
806.40        65.63265
806.81         65.9828
807.22        66.60246
807.63        66.53565
808.04        65.88786
808.45        65.67603
808.86        65.97509
809.27        66.19366
809.68        66.25373
810.09        66.29928
810.50        66.30664
810.91         66.2486
811.32        66.13508
811.73        65.97945
812.14        65.80149
812.55        65.61179
812.96        65.46909
813.37        65.46529
813.78        65.61171
814.19        65.87141
814.60        66.16251
815.01        66.35683
815.42        66.41871
815.83        66.38205
816.24        66.26701
816.65        66.12172
817.05        65.98751
817.46        65.83244
817.87        65.72491
818.28        65.72292
818.69        65.83697
819.10        66.06223
819.51        66.34912
819.92        66.59562
820.33        66.75417
820.74        66.82417
821.14        66.83749
821.55        66.87694
821.96        66.94781
822.37         67.0313
822.78        67.05977
823.19        66.92201
823.60        66.60429
824.00        66.16841
824.41        65.71461
824.82        65.46936
825.23        65.49232
825.64        65.73471
826.04        66.08511
826.45        66.32095
826.86        66.39468
827.27        66.36129
827.68        66.30734
828.08        66.40807
828.49        66.63531
828.90        66.96879
829.31        67.33708
829.72        67.54664
830.12        67.55768
830.53        67.76126
830.94        67.50194
831.35        67.35402
831.75        67.15648
832.16        66.90517
832.57        66.65972
832.97        66.51255
833.38        66.48601
833.79        66.55834
834.20        66.70663
834.60        66.88927
835.01        67.07857
835.42        67.27449
835.82        67.44772
836.23        67.50547
836.64          67.446
837.04        67.30029
837.45        67.09861
837.86        66.95427
838.26        66.91498
838.67        66.95267
839.08         67.0514
839.48        67.16385
839.89        67.26725
840.29        67.37391
840.70        67.51207
841.11        67.72483
841.51        68.02077
841.92        68.33096
842.33        68.59785
842.73        68.73116
843.14        68.66869
843.54        68.48559
843.95        68.22955
844.35        68.00481
844.76        67.84598
845.17        67.73082
845.57        67.70834
845.98        67.81564
846.38        68.07006
846.79        68.43599
847.19        68.81686
847.60        68.97357
848.00        68.89046
848.41        68.58436
848.81        68.24425
849.22        68.13221
849.62        68.35412
850.03        68.78703
850.43        69.28605
850.84        69.51952
851.24        69.45544
851.65        69.11535
852.05        68.69823
852.46        68.45943
852.86        68.48666
853.27        68.73727
853.67        68.97371
854.07        69.00774
854.48        68.76937
854.88        68.34303
855.29        67.87018
855.69        67.77056
856.10         68.0528
856.50        68.68755
856.90        69.34117
857.31        69.50311
857.71        69.10593
858.12        68.25066
858.52        67.26469
858.92        66.64234
859.33        66.52869
859.73        66.82121
860.13         67.3128
860.54        67.65488
860.94        67.78459
861.34        67.76707
861.75        67.63883
862.15        67.53139
862.55        67.45406
862.96        67.34367
863.36        67.21683
863.76        67.06773
864.17        66.89758
864.57        66.75609
864.97        66.63889
865.38         66.5093
865.78        66.40479
866.18        66.32269
866.58        66.31337
866.99         66.4387
867.39        66.73127
867.79        67.13447
868.19        67.53974
868.60        67.70686
869.00        67.66368
869.40        67.63139
869.80        67.59424
870.21        67.34164
870.61        66.94816
871.01        66.54993
871.41        66.18345
871.81        65.80473
872.22        65.43935
872.62        65.10616
873.02        64.88803
873.42        65.09167
873.82        65.54451
874.22         65.6899
874.63        65.63776
875.03        65.65984
875.43        65.75838
875.83        66.68059
876.23        65.93066
876.63        65.14796
877.03        64.12759
877.44        62.26558
877.84        166.8593
878.24        63.55737
878.64        64.25341
879.04        65.57998
879.44        65.92462
879.84        62.62844
880.24        67.51509
880.64         67.7588
881.04        65.54413
881.44         63.9458
881.84        63.49821
882.24        64.30824
882.65        65.62737
883.05        65.90556
883.45        64.85572
883.85        63.36204
884.25        62.09177
884.65        61.71864
885.05        62.41639
885.45        63.84993
885.85         65.4139
886.25         66.2602
886.65        66.19218
887.05        65.49232
887.45         64.4772
887.85           63.68
888.25        63.31547
888.65        63.22561
889.04        63.37968
889.44        63.73382
889.84        64.21271
890.24        64.82901
890.64        65.45684
891.04        65.89571
891.44        66.10427
891.84        66.11272
892.24        65.97506
892.64        65.81744
893.04        65.68929
893.44        65.55753
893.83        65.46148
894.23        65.42229
894.63        65.45597
895.03        65.59277
895.43        65.75377
895.83        65.79449
896.23        65.69198
896.63        65.46605
897.02        65.26357
897.42          65.368
897.82        65.78137
898.22        66.41911
898.62        67.02147
899.01        67.17908
899.41        66.78524
899.81         65.9818
900.21        65.07118
900.61        64.55132
901.00        64.54646
901.40        64.98092
901.80        65.60042
902.20         65.8736
902.59        65.66561
902.99        65.37183
903.39        65.33017
903.79        64.44489
904.18        65.38358
904.58        65.91573
904.98        66.48115
905.38        66.53174
905.77        65.98631
906.17        65.04845
906.57        64.04097
906.96        63.58255
907.36        63.82029
907.76        64.57833
908.15        65.57639
908.55          66.193
908.95         66.2942
909.34        66.01254
909.74        65.60184
910.14        65.42776
910.53         65.5908
910.93        65.94405
911.33        66.29612
911.72        66.35928
912.12        66.07757
912.52        65.57165
912.91        64.99608
913.31        64.66083
913.70        64.61801
914.10        64.77149
914.49        65.02109
914.89        65.11801
915.29        65.02174
915.68        64.80098
916.08        64.56503
916.47        64.42976
916.87        64.46342
917.26        64.61608
917.66        64.83983
918.05        65.08215
918.45        65.29627
918.84        65.50285
919.24        65.70593
919.64         65.9722
920.03        66.30041
920.42        66.62987
920.82        66.87092
921.21        66.90611
921.61        66.74627
922.00         66.5117
922.40         66.3399
922.79        66.31516
923.19        66.12537
923.58        66.56451
923.98        67.98743
924.37        68.07767
924.77        65.52248
925.16        73.24777
925.55        67.74147
925.95        68.26836
926.34        68.16481
926.74        67.30848
927.13        65.73745
927.52        64.67762
927.92        64.66575
928.31        65.06438
928.70        65.67711
929.10        66.12975
929.49        66.34408
929.89        66.46264
930.28        66.46925
930.67        66.22874
931.07        65.77909
931.46        65.03831
931.85        64.33161
932.24        64.64914
932.64        66.09004
933.03         67.7802
933.42        68.84997
933.82        71.17679
934.21        69.63979
934.60        68.28059
934.99        66.86524
935.39        66.54897
935.78        67.40472
936.17        69.67722
936.56        75.93391
936.96         69.7494
937.35        73.24063
937.74         70.1219
938.13        67.70813
938.53        65.68982
938.92         64.8247
939.31        65.60498
939.70        66.89497
940.09        67.54615
940.49        67.27289
940.88        66.49704
941.27        65.58835
941.66        65.21235
942.05        65.59566
942.44        66.43002
942.84        67.30811
943.23        67.77997
943.62        67.72258
944.01        67.28488
944.40        66.78905
944.79         66.7659
945.18        67.33236
945.57        68.29008
945.97        69.22486
946.36        69.61468
946.75        69.28638
947.14        68.41902
947.53        67.34996
947.92         66.6656
948.31        66.55304
948.70        66.83353
949.09        67.25572
949.48        67.42638
949.87        67.24494
950.26        66.86861
950.65        66.43391
951.04        66.14211
951.43        66.06919
951.82        66.12808
952.21        66.29475
952.60        66.55264
952.99        66.84155
953.38        67.12768
953.77        67.34781
954.16        67.39923
954.55        67.27686
954.94         67.0535
955.33        66.70251
955.72        66.20567
956.11        65.61604
956.50         64.9298
956.89        64.45745
957.28        64.67065
957.66        65.63148
958.05        67.11312
958.44        68.54841
958.83        69.07346
959.22        68.51159
959.61         67.0498
960.00        65.27576
960.39        64.36574
960.78         64.6825
961.16        65.87508
961.55        67.19817
961.94        67.73732
962.33          67.306
962.72        66.18276
963.11        64.80771
963.49        64.07919
963.88        64.31943
964.27        65.19958
964.66        66.27171
965.04         66.9557
965.43         67.0547
965.82        66.80582
966.21        66.39916
966.60        66.15208
966.98        66.17754
967.37        66.33585
967.76        66.54894
968.15        66.70635
968.53         66.7899
968.92        66.85592
969.31        66.89008
969.69        66.83913
970.08        66.67616
970.47        66.37934
970.86          66.125
971.24        66.23003
971.63         66.7092
972.02          67.466
972.40        68.15829
972.79        68.18344
973.17         67.5126
973.56        66.34122
973.95        65.10286
974.33        64.58202
974.72         64.9901
975.11        66.02397
975.49        67.42715
975.88        68.68933
976.26        69.65467
976.65          70.397
977.04        70.75442
977.42        70.44206
977.81        69.42419
978.19        67.69219
978.58        65.96671
978.96         65.5891
979.35        66.82143
979.74        69.12067
980.12        71.52382
980.51        72.66608
980.89        72.47019
981.28        71.22101
981.66        69.36875
982.05        68.09135
982.43        67.89303
982.82        68.45906
983.20        69.40507
983.59        70.10271
983.97        70.39301
984.35        70.46124
984.74        70.31667
985.12        70.03674
985.51        69.64529
985.89        69.16093
986.28        68.64507
986.66        68.25675
987.04         68.0832
987.43        68.04708
987.81        67.87402
988.20        68.54514
988.58        70.20152
988.96         70.1432
989.35        67.76735
989.73        74.04497
990.12        71.04797
990.50        72.38265
990.88        73.04329
991.27        73.20296
991.65        72.64423
992.03        71.61001
992.42        70.52179
992.80        69.60208
993.18        69.01845
993.56        68.78082
993.95        68.75739
994.33        68.65298
994.71         68.4127
995.10        68.14178
995.48        68.00349
995.86        68.23127
996.24        68.85631
996.63        69.66805
997.01        70.60024
997.39        71.38297
997.77        71.89233
998.15        72.14906
998.54        72.21749
998.92        72.09997
999.30        71.87562
999.68        71.60827
1000.06        71.24043
1000.45        70.65362
1000.83        70.01054
1001.21         69.3729
1001.59        69.16408
1001.97        69.95171
1002.35        71.62485
1002.73        73.78432
1003.12        75.80474
1003.50        76.95708
1003.88        77.12103
1004.26         76.5443
1004.64        75.43933
1005.02        74.31361
1005.40        73.44855
1005.78        72.69145
1006.16        72.21073
1006.54        72.22808
1006.92        72.72507
1007.30        73.73292
1007.69        74.70489
1008.07        74.87733
1008.45        74.10531
1008.83        72.55703
1009.21        70.92413
1009.59         70.7093
1009.97        72.18472
1010.35        74.50157
1010.73        76.81091
1011.11        78.49851
1011.49        79.60352
1011.86         80.1741
1012.24         79.8606
1012.62        80.72887
1013.00        80.33733
1013.38         78.6161
1013.76        74.61031
1014.14        78.37915
1014.52         85.3488
1014.90        78.70053
1015.28        81.71458
1015.66        84.03432
1016.04        80.95144
1016.41        80.29559
1016.79        78.10555
1017.17        76.33288
1017.55        74.63014
1017.93        73.06209
1018.31        72.30524
1018.69        72.82903
1019.06        74.67077
1019.44        77.52264
1019.82        80.21413
1020.20        81.19233
1020.58        80.17605
1020.95         77.1377
1021.33         73.0592
1021.71        71.24686
1022.09        73.23182
1022.46        77.35228
1022.84        81.35285
1023.22        83.63149
1023.60        84.28201
1023.97         83.9674
1024.35        83.09744
1024.73        82.41328
