SpectraSmart Spectrum 2.9.0.0
--------- Device Information -----------
Spectrum Name :  反射率_0
Saving Time :  2024/04/21 00:48:26
Spectro-Module Model Name : SE2030-DUVN
Spectro-Module Serial Number : OS361AC55029948
Wavelength Start : 200
Wavelength End : 1025
Wavelength Unit : Wavelength(nm)
Spectrum Unit : Reflectance(%)
-----------Spectrum Setting ------------
Integration Time : 20ms
Average : 10
Boxcar : 0
Background removal :  enabled
linearity correction :  enabled
SC :  disabled
Intensity correction :  disabled
DWT denoise :  enabled
savitzky-golay :  disabled
FFT :  disabled
Running average :  disabled
Kalman :  disabled
High pass :  disabled
---------------BEGIN--------------------
Wavelength(nm)             Reflectance(%)
200.29               0
200.75       -89.39877
201.21       -19.14679
201.67        18.33481
202.13        31.24648
202.58        29.78406
203.04         19.6398
203.50         3.32893
203.96       -10.79345
204.42       -16.99173
204.88       -18.40683
205.34       -16.24005
205.80       -12.42936
206.26       -7.143374
206.72        4.123673
207.18        17.36366
207.64          20.245
208.10        8.469191
208.55       -15.44615
209.01       -32.21057
209.47       -17.23627
209.93        9.347913
210.39        31.09615
210.85        44.65503
211.31        49.43582
211.77        47.23513
212.23         38.6443
212.69        18.83389
213.14       -20.76539
213.60       -96.51884
214.06       -314.7918
214.52       -795.3741
214.98       -336.3122
215.44       -74.84765
215.90        9.321205
216.36        37.57131
216.81        44.18091
217.27        36.99017
217.73        -12.8786
218.19        622.6514
218.65        302.6681
219.11        -653.559
219.57       -18.16712
220.02        22.51114
220.48        27.74833
220.94        19.61921
221.40       -4.987771
221.86       -60.37652
222.32       -89.92233
222.77        -33.4312
223.23        12.42477
223.69         34.9127
224.15        42.54165
224.61        42.60863
225.06        38.90527
225.52        32.89462
225.98         26.4231
226.44         20.6363
226.90         14.1065
227.36        9.894065
227.81        13.40405
228.27        21.59224
228.73        30.36349
229.19        35.98904
229.65         36.3091
230.10        32.02071
230.56        24.46046
231.02        14.85781
231.48        8.392233
231.93        8.874727
232.39        14.37746
232.85         20.6987
233.31        24.24119
233.77        25.14255
234.22        24.94499
234.68        24.01255
235.14        22.94043
235.60        22.33506
236.05        21.22342
236.51        19.58497
236.97        23.49279
237.43        33.34921
237.88        38.84113
238.34        35.87288
238.80        58.22433
239.26        47.62453
239.71        47.16701
240.17        41.36197
240.63        35.09605
241.08        31.05321
241.54        31.89479
242.00        38.35362
242.46        42.03056
242.91        40.95672
243.37        35.82551
243.83        28.76337
244.28        27.37201
244.74        34.83038
245.20        45.95826
245.66        54.72441
246.11         55.4749
246.57        47.93903
247.03        34.22011
247.48        16.09439
247.94       -3.682903
248.40       -28.53914
248.85       -82.07108
249.31       -236.4124
249.77       -347.6213
250.22       -108.8737
250.68       -11.30885
251.14        18.63034
251.59        24.35804
252.05        19.05324
252.51        5.296173
252.96        -15.1255
253.42       -27.10543
253.88       -19.06629
254.33        1.713997
254.79        24.98249
255.25        41.31066
255.70        50.03204
256.16        54.65594
256.62        57.38028
257.07        59.59841
257.53        61.83827
257.99        63.53544
258.44        64.01525
258.90        63.40693
259.35        61.52608
259.81        59.30243
260.27        57.09514
260.72        55.36296
261.18        54.41335
261.63        53.71646
262.09        53.10258
262.55         51.9999
263.00        50.35983
263.46        48.57732
263.91        46.85132
264.37        45.85006
264.83        45.49382
265.28        45.47586
265.74         45.5031
266.19        45.00423
266.65        43.97583
267.11        42.56851
267.56         41.0154
268.02        39.75656
268.47        38.85186
268.93         38.2002
269.38        37.61176
269.84        36.86066
270.30        35.87873
270.75        34.75943
271.21        33.65348
271.66        32.71569
272.12        32.00998
272.57        31.44887
273.03        30.95532
273.48        30.38262
273.94        29.72442
274.39        29.01249
274.85        28.33612
275.31        27.75576
275.76        27.28527
276.22         26.9256
276.67        26.63954
277.13        26.45286
277.58        26.30689
278.04        26.19933
278.49        26.05983
278.95        25.86669
279.40         25.5699
279.86        25.21987
280.31        24.77814
280.77        24.27165
281.22        23.70216
281.68         23.1491
282.13        22.64306
282.59        22.29868
283.04        22.10492
283.50        22.03284
283.95         22.0667
284.41        22.20588
284.86        22.40993
285.32        22.68335
285.77        22.89927
286.22        22.89202
286.68        22.67385
287.13        22.26998
287.59        21.90554
288.04        21.81907
288.50        22.02885
288.95        22.57049
289.41        23.29457
289.86        23.48799
290.32         23.0251
290.77        23.92469
291.22        23.05054
291.68        23.22639
292.13        23.55279
292.59        24.07612
293.04        24.74935
293.50        25.57398
293.95        26.55334
294.40        27.66581
294.86         28.9101
295.31        30.26556
295.77        31.70803
296.22        33.20708
296.68        34.72298
297.13        36.19698
297.58        37.63839
298.04        39.07104
298.49        40.54894
298.95        42.17881
299.40        43.96094
299.85         45.8688
300.31        47.83421
300.76        49.72351
301.21        51.51841
301.67        53.28183
302.12        55.05011
302.58        56.98983
303.03        59.09254
303.48        61.33955
303.94        63.66844
304.39        65.92793
304.84        68.07948
305.30        70.17462
305.75        72.18362
306.20        74.17772
306.66        76.17496
307.11        78.09576
307.57        79.96758
308.02         81.7543
308.47        83.47157
308.93        85.16212
309.38        86.75508
309.83        88.20765
310.29        89.56104
310.74        90.76586
311.19        91.88982
311.65        93.00661
312.10        94.11515
312.55        95.20401
313.00        96.22519
313.46        97.10299
313.91        97.81097
314.36        98.39571
314.82        98.92175
315.27        99.47706
315.72        100.0947
316.18        100.7431
316.63        101.3932
317.08        102.0013
317.53        102.5418
317.99        103.0247
318.44        103.4341
318.89        103.7277
319.35        103.9095
319.80        104.0089
320.25        104.0795
320.70        104.2177
321.16        104.4406
321.61        104.7345
322.06        105.0721
322.51        105.4129
322.97        105.7181
323.42        106.0339
323.87         106.305
324.32        106.4613
324.78        106.4769
325.23        106.4058
325.68        106.3186
326.13        106.3671
326.59        106.5641
327.04        106.9301
327.49        107.3509
327.94        107.6614
328.39        107.8186
328.85        107.8429
329.30        107.8847
329.75        108.0624
330.20        108.4149
330.66         108.849
331.11        109.3628
331.56        109.8185
332.01        110.1729
332.46         110.457
332.92        110.6319
333.37        110.7798
333.82         110.879
334.27        110.9377
334.72        111.0092
335.17        111.1839
335.63        111.4576
336.08         111.873
336.53        112.3739
336.98        112.9034
337.43        113.4296
337.88        113.9573
338.34         114.432
338.79        114.8309
339.24        115.1229
339.69        115.3158
340.14        115.4684
340.59        115.6844
341.05        115.9951
341.50        116.3905
341.95        116.8234
342.40        117.2141
342.85        117.5387
343.30        117.8159
343.75        118.0812
344.20        118.3951
344.66        118.7704
345.11         119.155
345.56        119.4972
346.01        119.7196
346.46        119.8142
346.91        119.8013
347.36         119.711
347.81        119.6512
348.26        119.6561
348.72        119.4789
349.17        119.5387
349.62        119.5513
350.07        119.6369
350.52        119.7718
350.97        119.8774
351.42        119.8172
351.87        119.5581
352.32        119.1399
352.77        118.6552
353.22        118.2471
353.67        117.9493
354.13        117.7381
354.58        117.5093
355.03         117.151
355.48        116.6396
355.93         116.018
356.38        115.3738
356.83        114.8325
357.28        114.4093
357.73        114.0511
358.18        113.6589
358.63        113.0841
359.08        112.2992
359.53        111.3639
359.98        110.3709
360.43        109.4529
360.88        108.6454
361.33        107.9117
361.78        107.2054
362.23        106.4532
362.68        105.6402
363.13        104.8005
363.58        103.9632
364.03        103.1672
364.48        102.4187
364.93        101.6926
365.38        100.9768
365.83        100.2602
366.28        99.53279
366.73        98.79587
367.18        98.03451
367.63        97.22594
368.08        96.37487
368.53         95.5001
368.98         94.6186
369.43        93.74568
369.88        92.88244
370.33        92.01807
370.78        91.17175
371.23        90.39122
371.68        89.69344
372.13        89.07145
372.58        88.48367
373.03        87.84847
373.48        87.13972
373.93        86.37827
374.38        85.60052
374.83        84.87902
375.28        84.24597
375.72        83.67065
376.17        83.15995
376.62        82.65203
377.07        82.11936
377.52         81.5606
377.97        80.99358
378.42        80.46502
378.87        79.99346
379.32        79.56976
379.77        79.14743
380.22        78.64645
380.67        78.04414
381.11         77.3652
381.56        76.66278
382.01        76.05153
382.46        75.57691
382.91        75.21836
383.36        74.91218
383.81        74.55488
384.26        74.11646
384.71        73.62009
385.15        73.11568
385.60        72.74176
386.05        72.49368
386.50        72.33246
386.95        72.15904
387.40        71.83001
387.85        71.33523
388.29        70.69641
388.74           70.12
389.19        69.70319
389.64        69.45725
390.09        69.32329
390.54        69.21639
390.98        68.99021
391.43        68.65086
391.88        68.24032
392.33        67.81797
392.78        67.45734
393.23        67.17443
393.67        66.92823
394.12        66.75996
394.57        66.52232
395.02        66.22175
395.47        65.99075
395.91        65.83383
396.36        65.62713
396.81        65.38534
397.26        65.19532
397.71        65.05888
398.15        64.89471
398.60        64.75726
399.05        64.63376
399.50        64.54421
399.95        64.40615
400.39        64.24355
400.84        64.31013
401.29         64.4894
401.74        64.06612
402.18         63.1876
402.63        62.83958
403.08        62.99911
403.53        62.83097
403.97        62.31101
404.42        61.94482
404.87        61.78535
405.32        61.68588
405.76        61.63138
406.21        61.73244
406.66         61.8784
407.11         61.7321
407.55        61.35284
408.00        61.15456
408.45        61.18202
408.90        61.06215
409.34        60.82548
409.79        60.82896
410.24        61.01666
410.68        61.10107
411.13        61.05766
411.58        60.99076
412.03        60.91203
412.47        60.90018
412.92        60.81316
413.37          60.766
413.81        60.70428
414.26        60.65995
414.71        60.61826
415.15        60.59172
415.60        60.56258
416.05        60.54816
416.49        60.55152
416.94        60.55807
417.39        60.55967
417.83        60.53587
418.28        60.48706
418.73        60.41947
419.17        60.34056
419.62        60.27456
420.07        60.22879
420.51        60.19118
420.96        60.18799
421.41        60.21144
421.85        60.23094
422.30        60.28595
422.74        60.33396
423.19        60.39483
423.64        60.45472
424.08        60.56736
424.53        60.64908
424.98        60.65747
425.42        60.59898
425.87        60.42701
426.31        60.23674
426.76        60.30691
427.21        60.63794
427.65        60.89124
428.10        60.89882
428.54        61.24237
428.99        61.03369
429.44         60.8522
429.88        60.53689
430.33        60.58169
430.77        60.85815
431.22        60.98668
431.66        60.96218
432.11        61.10396
432.56         61.4338
433.00        61.57179
433.45         61.3308
433.89        61.33908
434.34        61.72095
434.78        60.88738
435.23        60.65932
435.67        61.66364
436.12        61.65723
436.57        61.84992
437.01         61.5102
437.46        61.31449
437.90        61.94802
438.35        61.52645
438.79        61.82926
439.24        61.78662
439.68         61.8633
440.13        62.07811
440.57         62.3364
441.02        62.27109
441.46        61.95094
441.91        61.95404
442.35        62.19042
442.80         62.5016
443.24        62.79036
443.69        62.87832
444.13        62.72565
444.58        62.80263
445.02        62.60221
445.47        62.59348
445.91        62.59625
446.36        62.57435
446.80        62.52052
447.24        62.43505
447.69        62.38177
448.13        62.60147
448.58        62.86469
449.02        62.98679
449.47        62.90262
449.91        62.85364
450.36         62.8574
450.80        62.68737
451.25        62.42955
451.69        62.35511
452.13        62.44907
452.58        62.42403
453.02        62.25327
453.47         62.1339
453.91        62.05442
454.36        61.90463
454.80        61.72074
455.24        61.63533
455.69        61.67789
456.13        61.77097
456.58        61.87085
457.02        61.98017
457.46        61.77979
457.91        61.75661
458.35        61.87994
458.79        61.83099
459.24         61.6631
459.68        61.46989
460.13        61.30212
460.57        61.15839
461.01        61.08003
461.46        60.93269
461.90        60.75651
462.34        60.95152
462.79        60.29627
463.23        60.43576
463.68        60.86414
464.12        60.84698
464.56         60.4245
465.01        60.43462
465.45        60.75738
465.89         60.8121
466.34        60.62805
466.78        60.48319
467.22          60.381
467.67        60.41409
468.11        59.91917
468.55        59.85677
468.99        59.97385
469.44        59.93761
469.88        59.72643
470.32        59.52826
470.77        59.39379
471.21        59.29489
471.65        59.24426
472.10        59.25573
472.54        59.27119
472.98        59.23624
473.42        59.16132
473.87        59.00052
474.31        58.77673
474.75        58.84446
475.20        59.19122
475.64        58.92816
476.08        59.14048
476.52        59.07368
476.97        58.97241
477.41        59.04493
477.85        59.30401
478.29        58.70421
478.74        57.91293
479.18        58.83302
479.62        58.48622
480.06        58.77431
480.50        58.76114
480.95         58.8319
481.39        58.89797
481.83        59.03867
482.27        59.23016
482.72        58.91245
483.16        58.89061
483.60        59.13763
484.04        59.12972
484.48        58.96877
484.93        59.04718
485.37        58.71307
485.81        59.09225
486.25        58.23789
486.69        59.62379
487.14        59.83683
487.58        59.09927
488.02        59.04539
488.46        58.65359
488.90        58.80091
489.34        58.50392
489.79        57.94161
490.23        58.49987
490.67        58.52942
491.11        58.48648
491.55        58.37563
491.99        58.26079
492.43        58.20823
492.88        58.21647
493.32        58.25827
493.76        58.25621
494.20        58.23135
494.64        58.19507
495.08        57.79685
495.52        57.70698
495.96        57.70625
496.41        57.92108
496.85        58.16737
497.29        58.29091
497.73        58.31592
498.17        57.97679
498.61        57.89937
499.05        57.99089
499.49        57.86604
499.93        57.58038
500.37        57.54685
500.82        57.74642
501.26        57.87101
501.70        57.84207
502.14        57.89064
502.58        57.61972
503.02        57.54344
503.46        57.50399
503.90        57.45026
504.34        57.36959
504.78        57.34943
505.22        57.42138
505.66        57.47632
506.10        57.46355
506.54        57.57331
506.98        57.84671
507.42        57.20166
507.86        57.54348
508.30        57.42672
508.74         57.3756
509.18        57.35476
509.62        57.35622
510.06        57.38612
510.50        57.40247
510.94        57.35957
511.38        57.26341
511.82        57.18417
512.26        57.12872
512.70        57.05842
513.14        56.97615
513.58         56.9066
514.02        56.85366
514.46        56.81044
514.90        56.77181
515.34         56.7721
515.78        56.81642
516.22        56.85302
516.66        56.71657
517.10        57.01419
517.54        56.76988
517.98        56.74883
518.42        56.69379
518.86        56.68006
519.30        56.71507
519.74        56.75295
520.18        56.78918
520.62        56.88207
521.06        56.98079
521.50        56.88863
521.93        56.65552
522.37        56.54225
522.81        56.57471
523.25        56.62254
523.69         56.6489
524.13        56.62538
524.57         56.5387
525.01        56.44631
525.45         56.4031
525.89        56.26239
526.32        56.40355
526.76        56.50849
527.20        56.64358
527.64         56.7347
528.08        56.76257
528.52        56.74419
528.96         56.6925
529.40        56.63039
529.83         56.5674
530.27         56.5267
530.71        56.49736
531.15        56.46133
531.59        56.41863
532.03        56.38031
532.46        56.35638
532.90        56.37189
533.34         56.4217
533.78        56.49524
534.22        56.55843
534.66        56.56098
535.09        56.48658
535.53        56.36976
535.97        56.23688
536.41        56.14555
536.85        56.11205
537.28         56.1226
537.72        56.15368
538.16        56.16683
538.60        56.15043
539.04        56.11798
539.47        56.07484
539.91         56.0748
540.35        56.10817
540.79        56.16232
541.22        56.21209
541.66        56.23116
542.10        56.20926
542.54        56.15892
542.97        56.09255
543.41        56.05674
543.85        56.05388
544.29        56.08194
544.72         56.1171
545.16        56.14334
545.60        56.13898
546.04        56.12838
546.47        56.13729
546.91        56.13191
547.35        56.13125
547.79        56.31887
548.22        56.58067
548.66        56.50618
549.10        56.17587
549.53        56.10258
549.97        56.28726
550.41         56.3019
550.84        56.12336
551.28        56.04368
551.72         56.0894
552.15        56.04607
552.59        55.89674
553.03        56.22065
553.46        56.02503
553.90        56.05986
554.34        56.02696
554.77        55.95064
555.21        55.87149
555.65        55.86528
556.08         55.9445
556.52        56.07296
556.96        56.19442
557.39        56.28328
557.83        56.31108
558.27        56.16984
558.70        55.93944
559.14        55.85723
559.57        55.93882
560.01        56.13267
560.45        56.33523
560.88        56.36256
561.32        56.26453
561.75        56.14406
562.19        56.08355
562.63        56.14901
563.06        56.28006
563.50        56.21743
563.93        55.97644
564.37        55.86493
564.80        55.87976
565.24        55.90653
565.68        55.93243
566.11        55.97638
566.55        56.04758
566.98        56.15381
567.42        56.27543
567.85        56.27644
568.29        56.20846
568.72        56.15688
569.16        56.18208
569.60        56.23159
570.03        56.39874
570.47        56.52917
570.90        56.54201
571.34        56.88404
571.77        57.06383
572.21        56.67614
572.64        56.66786
573.08        56.53409
573.51        56.53826
573.95        56.89642
574.38        56.65842
574.82        57.28025
575.25        57.15184
575.69        57.00403
576.12        56.59793
576.56        56.48389
576.99        56.85443
577.42         56.9762
577.86        56.98594
578.29        57.17995
578.73        57.90182
579.16        57.65908
579.60        56.56223
580.03        56.94382
580.47        57.15451
580.90        56.82887
581.33        57.12354
581.77        57.03234
582.20        57.40575
582.64        57.59631
583.07        57.43484
583.51        57.13167
583.94        56.80626
584.37        56.68898
584.81        56.39558
585.24        56.41286
585.68        56.81462
586.11        57.11258
586.54        56.69799
586.98        56.84083
587.41         56.3948
587.85        56.96685
588.28        56.90098
588.71        56.76131
589.15        56.74146
589.58         56.6305
590.01        56.17995
590.45        56.48024
590.88        56.72992
591.31        56.47591
591.75         56.2061
592.18        56.01684
592.61         56.1829
593.05        56.47369
593.48        56.85902
593.91         57.1093
594.35        56.82667
594.78         56.8344
595.21        56.50098
595.65        56.52607
596.08        56.73943
596.51         56.5905
596.94        56.52405
597.38        56.46063
597.81        56.62949
598.24        56.41867
598.68        56.25523
599.11        56.55017
599.54        56.80829
599.97        56.49923
600.41        56.46865
600.84        56.87174
601.27        56.77592
601.70        56.51686
602.14        56.40191
602.57        56.25804
603.00        56.30779
603.43        56.44489
603.87        56.65449
604.30        56.67622
604.73        56.85296
605.16         56.1605
605.60        56.17483
606.03         56.2614
606.46        56.77718
606.89        56.51807
607.32         56.0219
607.76        56.50949
608.19        56.57606
608.62        56.39085
609.05        57.15159
609.48        56.59313
609.92        56.66748
610.35        56.35492
610.78        56.54892
611.21        56.31004
611.64        56.33223
612.07        56.30779
612.50        56.37779
612.94         56.4091
613.37        56.40548
613.80        56.41931
614.23        56.43473
614.66        56.34349
615.09         56.2431
615.52        56.18477
615.96        56.20169
616.39        56.19756
616.82        56.08115
617.25          56.207
617.68        56.22118
618.11        56.09375
618.54        55.93761
618.97        55.90724
619.40        56.02413
619.84        55.90742
620.27        55.86889
620.70        55.62079
621.13        55.64096
621.56        55.60463
621.99        55.88415
622.42        55.93539
622.85        55.80571
623.28        55.81767
623.71        56.15365
624.14        55.94087
624.57         55.7177
625.00        56.25534
625.43        55.70876
625.86        55.91574
626.29        56.28748
626.72        55.89934
627.15         55.9994
627.58        55.85068
628.01        55.92289
628.44        55.46717
628.87        55.20997
629.30        55.67057
629.73         55.5714
630.16        55.73865
630.59        55.52078
631.02        55.78474
631.45        55.66111
631.88         55.6892
632.31        55.64066
632.74         55.5356
633.17        55.47607
633.60        55.40041
634.03        55.34972
634.46        55.36584
634.89        55.34759
635.32        55.35086
635.75        55.34128
636.18         55.3259
636.61        55.31264
637.04         55.3163
637.47        55.34044
637.89        55.38417
638.32        55.42294
638.75        55.44262
639.18        55.43875
639.61        55.41544
640.04        55.38957
640.47         55.3892
640.90        55.41827
641.33        55.46586
641.76        55.50998
642.18        55.52091
642.61        55.47936
643.04        55.40609
643.47         55.3191
643.90        55.25279
644.33        55.21834
644.76         55.1903
645.18        55.17394
645.61        55.20307
646.04        55.26313
646.47        55.28715
646.90        55.26699
647.33        55.26738
647.75        55.28308
648.18          55.241
648.61        55.18617
649.04        55.25555
649.47        55.37665
649.89        55.58766
650.32        55.29677
650.75        55.25362
651.18        55.29917
651.61        55.29708
652.03        55.26498
652.46        55.26942
652.89        55.31273
653.32        55.36682
653.74        55.40708
654.17        55.16856
654.60        55.14824
655.03        54.83192
655.46        55.01775
655.88        56.02363
656.31        56.91187
656.74        60.21698
657.16        59.29866
657.59        57.82985
658.02        56.12427
658.45        55.72359
658.87        55.36341
659.30        55.48376
659.73        55.49278
660.15        54.95131
660.58        55.40753
661.01        55.55242
661.44        55.74429
661.86        55.65812
662.29         55.3437
662.72        55.06913
663.14        54.94046
663.57        55.06875
664.00        55.36759
664.42        55.50471
664.85        55.45144
665.27          55.302
665.70        55.28206
666.13        55.24158
666.55        55.25505
666.98        55.30737
667.41        55.37172
667.83        55.41411
668.26        55.43223
668.69        55.38755
669.11        55.28998
669.54        55.35196
669.96        55.62187
670.39        55.29686
670.82        55.68187
671.24          55.646
671.67        55.56459
672.09        55.47242
672.52        55.40699
672.94        55.25887
673.37        55.07681
673.80        55.05902
674.22        55.19262
674.65        55.24852
675.07        55.22572
675.50        55.23551
675.92        55.28532
676.35        55.31638
676.77        55.32504
677.20        55.34253
677.62        55.39399
678.05        55.43068
678.47        55.43375
678.90        55.71177
679.32        55.68158
679.75        55.75796
680.17        55.76071
680.60        55.77084
681.02        55.77331
681.45        55.63122
681.87        55.42012
682.30        55.39591
682.72         55.5591
683.15        55.66999
683.57        55.66344
684.00        55.72021
684.42        55.47565
684.85        55.44825
685.27        55.52795
685.70        55.59857
686.12        55.60975
686.54        55.63222
686.97        55.66741
687.39        55.49443
687.82        55.55285
688.24        55.51644
688.66        55.49978
689.09        55.70292
689.51        55.69684
689.94        55.82753
690.36        55.93906
690.78        55.99105
691.21        55.98365
691.63        55.91881
692.06        55.84711
692.48         55.8645
692.90        55.95251
693.33        55.97964
693.75        55.94818
694.17        55.89355
694.60        55.82554
695.02        55.92954
695.44          55.952
695.87        55.93581
696.29        55.85733
696.71        55.84324
697.14        55.90181
697.56        56.09847
697.98        56.37509
698.41        56.27415
698.83        56.34151
699.25        56.18974
699.68        56.02029
700.10        55.86522
700.52         55.7527
700.94         55.6713
701.37        55.61351
701.79        55.61969
702.21        55.67036
702.64        55.76461
703.06        55.87413
703.48        55.95804
703.90        56.00664
704.33        56.02281
704.75        56.01896
705.17        56.00137
705.59        55.97801
706.01        55.94439
706.44        55.92176
706.86        55.96067
707.28        56.05548
707.70        56.19362
708.12        56.33926
708.55         56.4277
708.97        56.43709
709.39        56.39021
709.81        56.31455
710.23        56.26385
710.66        56.25938
711.08        56.29986
711.50          56.346
711.92        56.35091
712.34        56.30659
712.76        56.22628
713.19        56.14951
713.61        56.18216
714.03        56.31626
714.45        56.52962
714.87         56.7522
715.29        56.83934
715.71        56.75913
716.13        56.69921
716.56        56.44232
716.98        56.34558
717.40        56.35139
717.82        56.43303
718.24        56.54654
718.66        56.62308
719.08        56.64296
719.50        56.62873
719.92        56.60204
720.34        56.59236
720.76        56.60895
721.19        56.63031
721.61        56.66307
722.03        56.69512
722.45        56.72366
722.87        56.75549
723.29         56.7905
723.71        56.82617
724.13        56.86291
724.55        56.89786
724.97        56.93942
725.39        57.00288
725.81        57.08789
726.23        57.18643
726.65        57.27699
727.07        57.33242
727.49        57.34801
727.91        57.31731
728.33        57.26294
728.75        57.26313
729.17        57.31247
729.59        57.31207
730.01        57.27152
730.43         57.2863
730.85         57.3568
731.27        57.41035
731.69        57.44157
732.10        57.43595
732.52        57.55217
732.94        57.39509
733.36        57.08469
733.78        56.92196
734.20        56.94766
734.62        57.00217
735.04        57.05534
735.46        57.12695
735.88        57.19984
736.30        57.27157
736.72        57.33331
737.13        57.37614
737.55        57.36274
737.97        57.33008
738.39        57.29948
738.81        57.26366
739.23        57.25019
739.65        57.36324
740.06        57.51721
740.48        57.58625
740.90        57.52766
741.32        57.41497
741.74        57.30204
742.16        57.25415
742.57        57.30549
742.99        57.42345
743.41        57.55518
743.83        57.59812
744.25        57.53205
744.67        57.38307
745.08        57.24742
745.50         57.2479
745.92        57.42348
746.34        57.72668
746.75        58.04468
747.17        58.19619
747.59        58.14262
748.01        57.91001
748.42        57.61914
748.84        57.51053
749.26        57.60616
749.68        57.73463
750.09        57.82101
750.51        57.82364
750.93        57.74174
751.35        57.66312
751.76        57.61991
752.18        57.57833
752.60         57.5517
753.01        57.59834
753.43        57.65385
753.85        57.62962
754.27        57.51582
754.68         57.3436
755.10        57.19828
755.52         57.1893
755.93         57.3359
756.35        57.59914
756.77         57.8956
757.18        58.08284
757.60        58.12287
758.02         58.0505
758.43        57.93493
758.85        57.76122
759.26        57.92974
759.68         57.7905
760.10        57.75494
760.51        57.42598
760.93        57.61707
761.34        57.59506
761.76        57.59911
762.18        57.77963
762.59        58.03908
763.01        58.24031
763.42         57.6354
763.84        57.77794
764.26        58.02692
764.67        58.36387
765.09        58.57401
765.50         58.7242
765.92         58.7811
766.33         58.5732
766.75        58.18263
767.16        57.97367
767.58        57.94212
768.00        58.09784
768.41        58.37373
768.83        58.19331
769.24        57.63237
769.66        58.05716
770.07        58.29633
770.49        58.34854
770.90        57.93588
771.32        57.76107
771.73        57.87126
772.15        57.90175
772.56         57.8747
772.97        57.97276
773.39        58.13858
773.80        58.24984
774.22        58.25383
774.63        58.20493
775.05        58.12173
775.46        58.08183
775.88        58.08772
776.29        58.13863
776.70        58.18948
777.12        58.18538
777.53        58.12973
777.95        58.03067
778.36        57.93848
778.77        57.92745
779.19        58.01288
779.60        58.17825
780.02        58.35595
780.43        58.47457
780.84        58.52105
781.26        58.44256
781.67        58.33006
782.09        58.45387
782.50        58.76289
782.91        58.81243
783.33        58.78454
783.74        58.85538
784.15         59.0474
784.57         59.2107
784.98        59.31224
785.39         59.2905
785.81        59.16796
786.22        59.07959
786.63        59.05581
787.04        59.03802
787.46        59.04485
787.87        59.10743
788.28        59.21582
788.70        59.28791
789.11        59.28595
789.52        59.30152
789.93        59.32484
790.35        59.18599
790.76        58.97155
791.17        59.02151
791.58         59.2831
792.00         59.3661
792.41        59.27069
792.82        59.17794
793.23        59.18994
793.65        59.35317
794.06        59.65714
794.47        60.07484
794.88        60.51637
795.29        60.39589
795.71        60.60214
796.12        60.39893
796.53        60.11623
796.94        59.90358
797.35        59.81085
797.76        59.76277
798.18        59.72709
798.59        59.69244
799.00        59.63896
799.41        59.57601
799.82        59.50774
800.23         59.4393
800.64        59.37618
801.06        59.30063
801.47        59.24661
801.88        59.20508
802.29        59.17894
802.70        59.16229
803.11        59.18066
803.52        59.27458
803.93        59.44631
804.34         59.6806
804.75        59.90929
805.17        60.02923
805.58        60.04343
805.99        59.91941
806.40        59.73997
806.81        59.75981
807.22        59.95502
807.63        60.02935
808.04        59.97883
808.45        60.01915
808.86        60.14373
809.27        60.21143
809.68        60.21069
810.09        60.19285
810.50        60.16143
810.91        60.10811
811.32        60.03455
811.73        59.94637
812.14        59.85192
812.55        59.75316
812.96        59.69204
813.37        59.73301
813.78        59.87977
814.19         60.1073
814.60        60.33294
815.01        60.42956
815.42        60.37199
815.83        60.19588
816.24        59.97645
816.65        59.85933
817.05        59.90258
817.46        60.04046
817.87        60.24525
818.28        60.43651
818.69        60.58785
819.10        60.72171
819.51        60.84519
819.92        60.96522
820.33        61.07611
820.74        61.15495
821.14        61.18908
821.55        61.18987
821.96        61.14797
822.37        61.06926
822.78        60.95024
823.19        60.78404
823.60         60.5802
824.00        60.36412
824.41        60.14428
824.82        59.98573
825.23        59.90771
825.64        59.90875
826.04        59.97562
826.45        60.04466
826.86        60.11177
827.27        60.18782
827.68        60.29096
828.08        60.47321
828.49        60.66707
828.90        60.89135
829.31        61.12844
829.72         61.2472
830.12        61.22599
830.53        61.51739
830.94        61.28624
831.35        61.14269
831.75        60.87029
832.16        60.49836
832.57        60.15495
832.97         60.0477
833.38         60.2183
833.79        60.59198
834.20        61.05485
834.60        61.43403
835.01        61.67043
835.42        61.80578
835.82        61.86081
836.23        61.83649
836.64        61.76278
837.04        61.63924
837.45         61.4843
837.86        61.39056
838.26        61.38984
838.67        61.46064
839.08        61.56643
839.48        61.62398
839.89         61.6036
840.29        61.52224
840.70        61.43368
841.11        61.42099
841.51        61.51559
841.92         61.6637
842.33         61.8031
842.73        61.82846
843.14         61.6851
843.54        61.45295
843.95        61.22555
844.35        61.17188
844.76         61.3242
845.17        61.61972
845.57        62.00533
845.98        62.36315
846.38        62.66095
846.79        62.89272
847.19        63.04292
847.60         63.0156
848.00        62.83936
848.41        62.51029
848.81        62.14925
849.22        61.90993
849.62        61.87803
850.03        61.98174
850.43        62.18475
850.84        62.31304
851.24        62.36609
851.65        62.33185
852.05        62.27604
852.46        62.22802
852.86        62.20647
853.27        62.23122
853.67        62.22088
854.07        62.19772
854.48        62.13443
854.88        62.05078
855.29        61.95765
855.69        62.02135
856.10        62.18078
856.50         62.4716
856.90         62.7212
857.31        62.68677
857.71        62.37297
858.12         61.8145
858.52        61.18937
858.92        60.74641
859.33        60.56341
859.73        60.62178
860.13        60.84193
860.54        61.07895
860.94        61.32734
861.34        61.57799
861.75        61.79509
862.15        61.99254
862.55        62.12502
862.96        62.15457
863.36        62.09261
863.76        61.92643
864.17        61.66733
864.57        61.36547
864.97        61.03702
865.38        60.68736
865.78        60.37377
866.18        60.10173
866.58        59.96477
866.99          60.084
867.39        60.48882
867.79        61.09792
868.19        61.72534
868.60         62.0152
869.00        61.99012
869.40        61.94132
869.80        61.86369
870.21        61.54335
870.61        61.06707
871.01        60.57509
871.41         60.1798
871.81        59.93721
872.22         59.8929
872.62        60.05706
873.02        60.33011
873.42        60.71014
873.82        60.92594
874.22         60.4314
874.63        59.65507
875.03        59.43894
875.43        59.90434
875.83        61.74529
876.23        61.70759
876.63         61.1286
877.03         59.6206
877.44        56.60448
877.84        178.7629
878.24        56.63811
878.64        57.81746
879.04        60.20288
879.44        61.51015
879.84        58.31588
880.24        63.71439
880.64        63.60843
881.04        60.54081
881.44         58.2414
881.84        57.48112
882.24        58.30746
882.65        59.84548
883.05        60.24793
883.45        59.16451
883.85        57.66861
884.25        56.43716
884.65        56.07436
885.05        56.75549
885.45        58.12986
885.85        59.65456
886.25        60.59573
886.65         60.7635
887.05        60.40485
887.45        59.71344
887.85         59.0136
888.25         58.4727
888.65         57.9952
889.04        57.69632
889.44        57.78415
889.84        58.24636
890.24        59.01105
890.64        59.83486
891.04        60.34001
891.44        60.44042
891.84        60.23725
892.24        59.83586
892.64        59.44201
893.04        59.16042
893.44        58.95371
893.83        58.88069
894.23         58.9931
894.63        59.29889
895.03        59.79118
895.43         60.3784
895.83        60.88409
896.23        61.23624
896.63        61.44109
897.02        61.52658
897.42        61.61209
897.82        61.69746
898.22        61.75008
898.62        61.72167
899.01        61.54625
899.41        61.20969
899.81        60.78595
900.21        60.35098
900.61        60.01431
901.00        59.80225
901.40        59.74443
901.80        59.84993
902.20        59.97456
902.59        60.05496
902.99        60.40282
903.39        61.05442
903.79        60.24662
904.18         60.8651
904.58        60.62542
904.98        60.37155
905.38         60.0037
905.77        59.55182
906.17        59.05141
906.57        58.65089
906.96        58.70074
907.36         59.2427
907.76        60.18019
908.15        61.24152
908.55        61.82123
908.95        61.80565
909.34        61.30062
909.74        60.62306
910.14        60.25871
910.53         60.3385
910.93        60.70291
911.33        61.10228
911.72        61.13805
912.12        60.73272
912.52        60.05161
912.91        59.30186
913.31        58.87285
913.70          58.836
914.10        59.06008
914.49        59.41802
914.89        59.62706
915.29        59.61922
915.68        59.46662
916.08        59.25751
916.47         59.0733
916.87          58.986
917.26        58.96777
917.66        59.00593
918.05        59.10471
918.45        59.24303
918.84        59.42885
919.24        59.68153
919.64        60.08607
920.03        60.62424
920.42        61.21228
920.82        61.69788
921.21         61.8666
921.61        61.70618
922.00         61.3648
922.40        61.02176
922.79        60.81763
923.19        60.41188
923.58        60.73195
923.98        62.22319
924.37         62.1669
924.77        59.00143
925.16        68.12591
925.55        61.55702
925.95        62.24847
926.34        62.25605
926.74        61.42888
927.13        59.82512
927.52        58.90085
927.92        59.24838
928.31        60.09054
928.70        61.12864
929.10        61.85778
929.49        62.17418
929.89        62.25378
930.28        62.13317
930.67        61.77605
931.07        61.25707
931.46        60.46287
931.85        59.67332
932.24         59.8559
932.64        61.11979
933.03        62.53851
933.42        63.24203
933.82        65.68288
934.21        63.80839
934.60        62.35581
934.99        60.90369
935.39        60.55962
935.78        61.35321
936.17        63.70843
936.56        70.89028
936.96        63.14515
937.35        67.33079
937.74        63.58192
938.13        60.85933
938.53        58.83799
938.92        58.39051
939.31        60.01049
939.70        62.15742
940.09        63.29363
940.49        63.08213
940.88        62.05085
941.27        60.71094
941.66        60.01535
942.05        60.30981
942.44        61.19794
942.84        62.17976
943.23        62.68309
943.62        62.53823
944.01        61.93195
944.40        61.23005
944.79        61.02658
945.18        61.45757
945.57        62.30877
945.97        63.09198
946.36        63.17036
946.75        62.36464
947.14        60.91052
947.53        59.30153
947.92        58.38285
948.31        58.41151
948.70        59.12904
949.09        60.12663
949.48        60.76876
949.87        60.87804
950.26        60.65609
950.65        60.30914
951.04        60.16747
951.43        60.32948
951.82        60.64161
952.21        60.99783
952.60        61.25188
952.99        61.33325
953.38         61.3069
953.77        61.18378
954.16        60.94928
954.55        60.63367
954.94        60.27091
955.33        59.91767
955.72        59.69384
956.11        59.64605
956.50        59.72097
956.89        59.97071
957.28        60.45626
957.66          61.174
958.05        62.02571
958.44        62.74831
958.83        62.94613
959.22        62.54517
959.61        61.58881
960.00        60.47029
960.39        59.96658
960.78        60.29404
961.16        61.26911
961.55        62.23049
961.94        62.36523
962.33        61.52893
962.72        59.93177
963.11        58.15516
963.49        57.39492
963.88        58.04242
964.27         59.6774
964.66        61.52747
965.04        62.54687
965.43        62.46144
965.82        61.62868
966.21        60.52455
966.60        59.98647
966.98        60.27177
967.37        61.07586
967.76        62.04247
968.15        62.61229
968.53        62.62904
968.92        62.28668
969.31        61.75102
969.69        61.25582
970.08        60.88081
970.47         60.5278
970.86        60.28111
971.24        60.30892
971.63         60.5978
972.02        61.12267
972.40        61.64647
972.79        61.70265
973.17        61.27029
973.56        60.46899
973.95        59.61603
974.33        59.29276
974.72        59.65705
975.11        60.50161
975.49        61.60928
975.88        62.53862
976.26        63.20568
976.65        63.67134
977.04        63.93449
977.42        63.96123
977.81        63.73406
978.19        63.16335
978.58        62.67831
978.96        62.95518
979.35        64.03535
979.74        65.62534
980.12        67.08171
980.51        67.38853
980.89        66.54189
981.28        64.70023
981.66        62.36837
982.05        60.92729
982.43        60.91828
982.82         62.0218
983.20        63.59294
983.59        64.59035
983.97        64.76583
984.35        64.40022
984.74        63.70024
985.12        63.10755
985.51        62.78369
985.89        62.65551
986.28        62.66383
986.66        62.82844
987.04        63.19278
987.43        63.69033
987.81        64.05004
988.20        65.39519
988.58        67.76227
988.96        68.15871
989.35        65.87605
989.73        72.37685
990.12        68.61551
990.50         69.1411
990.88        68.78488
991.27        68.12544
991.65        67.08738
992.03        65.93378
992.42        64.99081
992.80        64.11073
993.18        63.37958
993.56        62.90966
993.95        62.75695
994.33        62.92154
994.71        63.38232
995.10         64.0795
995.48        64.88811
995.86        65.61038
996.24        66.14916
996.63        66.41752
997.01        66.55389
997.39        66.61652
997.77        66.60461
998.15        66.48557
998.54        66.24304
998.92        65.72179
999.30        64.97151
999.68         64.1449
1000.06        63.35309
1000.45        62.76656
1000.83        62.62025
1001.21        62.85617
1001.59         63.6735
1001.97        65.32954
1002.35        67.60374
1002.73        70.14124
1003.12        72.39449
1003.50        73.78365
1003.88        74.21376
1004.26        73.86519
1004.64        72.89727
1005.02        71.71185
1005.40        70.55653
1005.78        69.37788
1006.16        68.34318
1006.54        67.64005
1006.92        67.34444
1007.30        67.59423
1007.69        68.08566
1008.07        68.40097
1008.45        68.42381
1008.83        68.16853
1009.21        68.11459
1009.59        69.20032
1009.97        71.36198
1010.35        73.89567
1010.73        75.98197
1011.11         77.0426
1011.49        77.18909
1011.86        76.35338
1012.24        74.45911
1012.62        75.16153
1013.00        75.54698
1013.38         75.1671
1013.76        72.46376
1014.14        77.32812
1014.52        84.57168
1014.90        76.80859
1015.28        78.92625
1015.66        80.70038
1016.04         76.6717
1016.41        76.07255
1016.79        74.12819
1017.17        73.25644
1017.55        72.96603
1017.93        73.39688
1018.31        74.56358
1018.69        75.72772
1019.06         76.7021
1019.44        77.58621
1019.82        78.17751
1020.20        78.16577
1020.58        77.53185
1020.95        76.11088
1021.33        74.39881
1021.71        73.76131
1022.09        74.79631
1022.46        76.82894
1022.84        78.78597
1023.22        79.94634
1023.60        80.36742
1023.97        80.33705
1024.35         80.0602
1024.73        79.89618
