SpectraSmart Spectrum 2.9.0.0
--------- Device Information -----------
Spectrum Name :  反射率_0
Saving Time :  2024/04/21 00:37:25
Spectro-Module Model Name : SE2030-DUVN
Spectro-Module Serial Number : OS361AC55029948
Wavelength Start : 200
Wavelength End : 1025
Wavelength Unit : Wavelength(nm)
Spectrum Unit : Reflectance(%)
-----------Spectrum Setting ------------
Integration Time : 20ms
Average : 10
Boxcar : 0
Background removal :  enabled
linearity correction :  enabled
SC :  disabled
Intensity correction :  disabled
DWT denoise :  enabled
savitzky-golay :  disabled
FFT :  disabled
Running average :  disabled
Kalman :  disabled
High pass :  disabled
---------------BEGIN--------------------
Wavelength(nm)             Reflectance(%)
200.29               0
200.75       -57.77294
201.21        6.790954
201.67        41.28995
202.13        53.32906
202.58        52.12662
203.04         42.9924
203.50        27.62335
203.96        12.48688
204.42        2.739975
204.88       -3.844059
205.34       -7.613172
205.80       -10.01938
206.26       -11.66091
206.72       -8.192271
207.18       -2.995681
207.64       -6.671228
208.10        -21.2611
208.55        -44.1692
209.01       -54.15611
209.47       -28.33457
209.93        7.036421
210.39        34.62372
210.85         51.9163
211.31        59.51022
211.77        60.25042
212.23        55.37671
212.69        42.03046
213.14        16.21155
213.60       -31.59151
214.06       -168.5807
214.52       -482.3071
214.98       -209.3659
215.44       -43.87738
215.90        11.97011
216.36        29.98829
216.81         30.0235
217.27        13.57067
217.73       -67.95939
218.19        917.6899
218.65        400.9897
219.11       -898.2459
219.57       -41.99531
220.02        13.27961
220.48        23.98969
220.94        20.85957
221.40        4.412447
221.86       -36.13617
222.32       -61.65269
222.77       -23.78418
223.23         8.39705
223.69        24.35214
224.15        29.51113
224.61        29.08986
225.06        26.14056
225.52        21.79495
225.98        17.36761
226.44        13.72263
226.90        9.664549
227.36        7.744393
227.81        12.03587
228.27        19.59328
228.73        27.17784
229.19        31.91635
229.65        32.10756
230.10        28.44167
230.56        22.34768
231.02        14.92723
231.48        10.20347
231.93        11.11763
232.39        16.09424
232.85        21.75732
233.31        25.29215
233.77        26.89416
234.22        27.90109
234.68        28.28951
235.14        27.90387
235.60        27.06673
236.05        25.02014
236.51        22.31931
236.97        26.00693
237.43        36.70689
237.88        44.11961
238.34        44.33398
238.80        65.00317
239.26        56.13231
239.71        54.22936
240.17        46.42166
240.63        38.62039
241.08         35.0549
241.54        38.28456
242.00        48.50803
242.46        57.05657
242.91        62.12957
243.37        65.16026
243.83        65.60612
244.28        62.41105
244.74        56.24488
245.20        47.74255
245.66         38.5009
246.11        29.75915
246.57        20.99103
247.03        12.35864
247.48        2.594567
247.94       -11.22463
248.40       -35.20768
248.85       -93.98505
249.31       -274.8432
249.77       -423.5559
250.22       -146.7781
250.68       -30.86399
251.14        8.109335
251.59        23.32383
252.05        31.38374
252.51        38.18892
252.96        44.64834
253.42        50.07959
253.88        52.73375
254.33        52.68426
254.79        54.11504
255.25        58.67983
255.70        64.00806
256.16        68.66913
256.62        71.70599
257.07        72.69764
257.53         72.7094
257.99        72.04757
258.44         70.7838
258.90        69.73235
259.35        68.39542
259.81        67.17068
260.27        65.83806
260.72        64.30975
261.18        63.02866
261.63        61.72276
262.09        60.59249
262.55        59.32624
263.00        57.83018
263.46         56.3867
263.91        54.95679
264.37        53.96566
264.83         53.3236
265.28        52.84217
265.74          52.456
266.19        51.84406
266.65        51.02649
267.11         50.0293
267.56        48.88666
268.02        47.75596
268.47         46.6297
268.93        45.50922
269.38        44.35907
269.84        43.19736
270.30        42.02436
270.75         40.8697
271.21        39.78299
271.66        38.75456
272.12         37.8245
272.57        36.97016
273.03        36.22258
273.48        35.57448
273.94        35.03232
274.39         34.5387
274.85        34.08046
275.31        33.56746
275.76         32.9737
276.22        32.36423
276.67        31.74257
277.13        31.20461
277.58        30.72354
278.04        30.30406
278.49        29.89548
278.95        29.51544
279.40        29.11186
279.86        28.72762
280.31        28.30234
280.77        27.83934
281.22        27.31377
281.68        26.79742
282.13         26.2998
282.59         25.9175
283.04        25.63758
283.50        25.45534
283.95        25.35573
284.41        25.34706
284.86        25.40588
285.32        25.54878
285.77        25.70002
286.22         25.7717
286.68        25.77504
287.13        25.69373
287.59        25.67102
288.04        25.81688
288.50        26.11955
288.95        26.63525
289.41        27.26604
289.86        27.39651
290.32        26.93402
290.77        27.78156
291.22        26.95091
291.68         27.1035
292.13        27.38591
292.59        27.86141
293.04        28.51885
293.50        29.40869
293.95        30.53894
294.40        31.87043
294.86        33.35474
295.31         34.8962
295.77        36.45365
296.22        38.01719
296.68        39.58841
297.13        41.17139
297.58        42.79248
298.04        44.45225
298.49        46.17514
298.95        48.02508
299.40        49.98252
299.85        52.02887
300.31        54.10746
300.76        56.09674
301.21        57.98414
301.67        59.83126
302.12        61.65839
302.58        63.62011
303.03        65.70877
303.48        67.92271
303.94        70.23128
304.39        72.52302
304.84        74.76781
305.30        77.00271
305.75        79.16682
306.20        81.29311
306.66        83.39063
307.11        85.38604
307.57        87.32078
308.02         89.1683
308.47        90.95535
308.93         92.7216
309.38          94.398
309.83        95.96483
310.29        97.44439
310.74        98.80638
311.19        100.1076
311.65        101.4154
312.10        102.7183
312.55         103.992
313.00        105.1931
313.46        106.2551
313.91        107.1464
314.36        107.9165
314.82        108.5884
315.27        109.1816
315.72        109.7344
316.18        110.2459
316.63        110.7799
317.08        111.4416
317.53        112.2292
317.99        113.0898
318.44        113.9125
318.89        114.5007
319.35        114.8065
319.80        114.9073
320.25        114.8748
320.70        114.8389
321.16        114.8517
321.61        114.9016
322.06        115.0275
322.51        115.2964
322.97        115.6893
323.42        116.2317
323.87         116.799
324.32        117.1945
324.78        117.3445
325.23        117.3322
325.68        117.2475
326.13        117.2867
326.59        117.4773
327.04        117.8237
327.49        118.2186
327.94        118.5186
328.39        118.6856
328.85        118.7442
329.30        118.8315
329.75        119.0199
330.20        119.3428
330.66        119.7202
331.11         120.193
331.56        120.6799
332.01        121.1543
332.46         121.628
332.92        122.0273
333.37        122.3904
333.82        122.6657
334.27        122.8658
334.72        123.0501
335.17        123.3228
335.63         123.683
336.08        124.1773
336.53        124.7342
336.98        125.2812
337.43        125.7867
337.88        126.2592
338.34        126.6858
338.79        127.1168
339.24        127.5286
339.69        127.9116
340.14        128.2475
340.59        128.5165
341.05        128.7281
341.50        128.9118
341.95        129.1169
342.40         129.425
342.85        129.8494
343.30        130.3556
343.75        130.8862
344.20        131.3528
344.66        131.7302
345.11        132.0175
345.56        132.2206
346.01        132.3546
346.46         132.443
346.91        132.4556
347.36        132.4061
347.81        132.4219
348.26        132.5305
348.72        132.3348
349.17        132.4999
349.62        132.4686
350.07        132.4372
350.52         132.385
350.97        132.2872
351.42        132.0942
351.87        131.7913
352.32        131.3977
352.77        130.9489
353.22        130.4953
353.67        130.0536
354.13        129.6363
354.58        129.1922
355.03         128.695
355.48        128.1442
355.93        127.5518
356.38        126.9719
356.83        126.4817
357.28        126.0765
357.73        125.7145
358.18        125.2999
358.63        124.6879
359.08        123.8561
359.53        122.8644
359.98        121.8041
360.43        120.8089
360.88        119.9168
361.33        119.0899
361.78        118.3017
362.23        117.5097
362.68        116.6972
363.13        115.8826
363.58        115.0497
364.03        114.1665
364.48         113.226
364.93        112.2282
365.38        111.2059
365.83        110.2206
366.28        109.2902
366.73        108.4027
367.18        107.5297
367.63        106.6243
368.08        105.6803
368.53        104.7228
368.98        103.7741
369.43        102.8519
369.88        101.9582
370.33        101.0854
370.78        100.2296
371.23        99.40479
371.68        98.62392
372.13        97.88181
372.58        97.20008
373.03        96.59625
373.48        96.05363
373.93        95.56133
374.38        95.03964
374.83         94.3727
375.28        93.55637
375.72         92.6192
376.17        91.71375
376.62         90.9801
377.07        90.43219
377.52        90.00845
377.97        89.61594
378.42        89.11318
378.87        88.47857
379.32        87.78214
379.77        87.07665
380.22        86.41918
380.67        85.81316
381.11        85.22279
381.56        84.65244
382.01        84.14322
382.46        83.70636
382.91        83.34873
383.36        82.98595
383.81         82.4807
384.26        81.81165
384.71        81.01365
385.15        80.21072
385.60        79.66418
386.05        79.38973
386.50         79.3129
386.95        79.25894
387.40        78.95742
387.85        78.37244
388.29        77.57423
388.74        76.82955
389.19        76.29621
389.64        76.00408
390.09        75.86956
390.54        75.80566
390.98        75.66096
391.43        75.42255
391.88        75.13226
392.33        74.84567
392.78        74.50774
393.23        74.11371
393.67        73.89393
394.12        73.93298
394.57        73.10841
395.02        72.92451
395.47        72.72171
395.91        72.87574
396.36        72.81721
396.81         72.5393
397.26        72.34274
397.71        72.20267
398.15        71.97768
398.60        71.75018
399.05        71.42272
399.50        71.09708
399.95         71.0652
400.39        71.25661
400.84        71.27077
401.29        71.04393
401.74        70.61697
402.18        70.10763
402.63        69.83405
403.08        69.78006
403.53        69.57246
403.97        69.20114
404.42        68.93903
404.87        68.82069
405.32        68.76789
405.76        68.76061
406.21         68.8692
406.66        68.97996
407.11        68.82583
407.55        68.42626
408.00        68.02293
408.45        67.73508
408.90        67.43772
409.34        67.17535
409.79        67.38517
410.24        67.51844
410.68        67.56691
411.13        67.36429
411.58         67.0502
412.03        66.72742
412.47        66.57832
412.92        66.63371
413.37        66.82909
413.81        67.05684
414.26         67.2189
414.71        67.26197
415.15        67.23867
415.60        67.14053
416.05        67.01448
416.49        66.88563
416.94        66.73003
417.39        66.57816
417.83        66.46806
418.28        66.41116
418.73        66.40874
419.17        66.41533
419.62        66.36044
420.07        66.22655
420.51        66.02329
420.96         65.8466
421.41        65.77248
421.85        65.78481
422.30        65.95925
422.74         66.1644
423.19        66.17071
423.64        66.00532
424.08        66.06179
424.53        66.28838
424.98        66.42587
425.42        66.48063
425.87        66.49893
426.31        66.52752
426.76        66.78396
427.21        67.16579
427.65        67.15631
428.10         66.7688
428.54        66.55184
428.99        66.56976
429.44        66.54151
429.88        66.45141
430.33        66.40419
430.77         66.3693
431.22        66.57351
431.66        66.91296
432.11        67.03029
432.56        66.95836
433.00        66.81568
433.45        66.44431
433.89        66.35624
434.34         66.7832
434.78        65.42483
435.23         65.8487
435.67        66.82624
436.12        67.03017
436.57          67.242
437.01        66.95529
437.46        66.65656
437.90         67.0059
438.35        67.47137
438.79        67.20684
439.24        67.22752
439.68        67.23471
440.13        67.30246
440.57        67.38861
441.02        67.31605
441.46        67.17551
441.91        67.33405
442.35        67.65664
442.80        68.12624
443.24        68.58882
443.69        68.60851
444.13        68.18832
444.58        68.13858
445.02        67.79755
445.47        67.89415
445.91        68.14066
446.36        68.19686
446.80        68.00896
447.24        67.91521
447.69        68.02824
448.13        67.68195
448.58        68.12468
449.02        67.99081
449.47        67.71955
449.91        67.64487
450.36        67.81095
450.80        67.91259
451.25        67.93699
451.69        68.07607
452.13         68.2613
452.58        68.16036
453.02        67.81995
453.47         67.6175
453.91        67.56837
454.36         67.4941
454.80        67.37484
455.24        67.22464
455.69        67.04372
456.13        66.89746
456.58        66.85956
457.02        66.57048
457.46        66.47375
457.91         66.6123
458.35        66.50758
458.79        66.48232
459.24        66.37663
459.68        66.23944
460.13        66.13132
460.57        65.95867
461.01        65.73598
461.46        65.77608
461.90        65.73509
462.34        65.42017
462.79        65.05417
463.23        65.16206
463.68        65.67099
464.12         65.5144
464.56        64.80769
465.01        64.85336
465.45        65.41217
465.89        65.30036
466.34        64.67266
466.78        64.46429
467.22        64.64297
467.67        64.98531
468.11        64.40331
468.55        64.31725
468.99        64.39147
469.44        64.33542
469.88        64.13543
470.32        63.91768
470.77        63.74546
471.21        63.65262
471.65        63.65458
472.10        63.73652
472.54        63.81887
472.98         63.8215
473.42        63.74443
473.87        63.55252
474.31        63.27187
474.75        63.26694
475.20        63.52192
475.64         63.1837
476.08        63.21277
476.52        63.11091
476.97        63.11815
477.41        63.20977
477.85        63.31086
478.29        63.20354
478.74        62.31247
479.18        62.91298
479.62        62.86409
480.06        63.08127
480.50        62.97894
480.95        62.99248
481.39        63.09095
481.83        63.06021
482.27         63.3926
482.72        62.99802
483.16         63.2823
483.60        63.19823
484.04        63.38395
484.48        63.05543
484.93        63.08206
485.37        62.70126
485.81        63.05638
486.25        62.86934
486.69        63.52091
487.14        63.63554
487.58        63.33729
488.02        62.85892
488.46        62.19053
488.90        62.86985
489.34        62.65604
489.79          62.158
490.23        62.42417
490.67        62.30323
491.11        62.29767
491.55        62.17873
491.99        62.02546
492.43        61.97562
492.88        62.03063
493.32        62.16322
493.76        62.26527
494.20        62.31142
494.64        62.31469
495.08        61.89663
495.52        61.68995
495.96        61.79726
496.41        62.24098
496.85        62.20361
497.29        61.72969
497.73        61.77653
498.17        61.99355
498.61        62.25331
499.05        62.32949
499.49        62.04074
499.93        61.56686
500.37        61.55847
500.82        61.94844
501.26        62.18141
501.70        62.15915
502.14        61.71878
502.58        61.47874
503.02        61.29857
503.46        61.30823
503.90        61.42559
504.34        61.54858
504.78        61.52205
505.22        61.38319
505.66        61.32575
506.10        61.36714
506.54        61.50248
506.98        61.73743
507.42          61.425
507.86        61.88004
508.30        61.65372
508.74        61.81025
509.18        61.73016
509.62        61.63035
510.06        61.54951
510.50        61.47517
510.94        61.33509
511.38        61.15241
511.82        61.05252
512.26        61.04492
512.70         61.0665
513.14        61.10038
513.58        61.15915
514.02         61.2337
514.46        61.28007
514.90        61.24532
515.34        61.31447
515.78        61.12508
516.22        60.95327
516.66        60.60356
517.10         60.7884
517.54         60.6363
517.98        60.81095
518.42        60.98737
518.86        61.07391
519.30        61.04095
519.74        60.89364
520.18        60.70919
520.62        60.68043
521.06         60.7892
521.50        60.78388
521.93        60.67312
522.37        60.66663
522.81        60.76644
523.25        60.84999
523.69        60.88759
524.13        60.88763
524.57        60.84494
525.01        60.75851
525.45        60.65854
525.89        60.59614
526.32        60.58193
526.76        60.60661
527.20        60.65045
527.64        60.68191
528.08        60.69027
528.52        60.69015
528.96        60.68209
529.40        60.65829
529.83        60.61953
530.27        60.59418
530.71        60.58123
531.15        60.57919
531.59        60.58893
532.03        60.61409
532.46        60.64082
532.90        60.65994
533.34        60.66239
533.78        60.65185
534.22        60.62853
534.66        60.59379
535.09        60.54166
535.53        60.49298
535.97        60.44356
536.41        60.40268
536.85        60.37509
537.28        60.36328
537.72        60.36547
538.16        60.37705
538.60        60.38917
539.04        60.40776
539.47        60.42726
539.91        60.45357
540.35        60.46242
540.79        60.60299
541.22        60.57863
541.66        60.55862
542.10        60.45798
542.54        60.29943
542.97        60.13199
543.41        60.06843
543.85        60.12611
544.29        60.28024
544.72        60.45146
545.16        60.56923
545.60        60.59924
546.04        60.49174
546.47        60.33054
546.91        60.40641
547.35        60.65679
547.79        60.71198
548.22        60.53741
548.66        60.35714
549.10        60.22361
549.53        60.14329
549.97        60.12962
550.41        60.09243
550.84        60.01234
551.28        60.03392
551.72        60.16594
552.15        60.16422
552.59        59.98963
553.03        60.46719
553.46        60.17943
553.90        60.23972
554.34        60.22712
554.77        60.17898
555.21        60.12241
555.65        60.11641
556.08         60.1711
556.52        60.25286
556.96        60.33422
557.39        60.41118
557.83        60.46501
558.27        60.43396
558.70         60.3303
559.14        60.20067
559.57        60.08641
560.01        60.11908
560.45        60.24253
560.88        60.27867
561.32        60.24706
561.75         60.1261
562.19        60.00012
562.63        60.04423
563.06        60.19709
563.50        60.13869
563.93         59.8872
564.37        59.75848
564.80        59.76627
565.24        59.86705
565.68        60.00705
566.11        60.06849
566.55        60.04977
566.98        60.03093
567.42        60.03695
567.85        59.96575
568.29        59.89828
568.72        59.93442
569.16        60.07984
569.60         60.2161
570.03        60.11167
570.47        60.14074
570.90        60.24284
571.34        60.10044
571.77        60.28904
572.21        60.48018
572.64         60.3179
573.08        60.43604
573.51        60.36298
573.95        60.79898
574.38        60.60248
574.82        61.06717
575.25        61.05256
575.69        60.62647
576.12        60.11637
576.56        60.59325
576.99        60.60171
577.42         60.7993
577.86        60.67982
578.29        61.08663
578.73        61.08195
579.16        60.94868
579.60         60.2565
580.03        60.49627
580.47        60.55665
580.90        60.73764
581.33        60.85496
581.77        60.87922
582.20        60.92389
582.64        61.28933
583.07        60.95672
583.51        60.85022
583.94        60.46502
584.37        60.45058
584.81        59.95312
585.24        60.05186
585.68        60.82416
586.11        60.57291
586.54        60.39806
586.98        60.63528
587.41        60.43133
587.85        60.47534
588.28        60.75855
588.71        60.80849
589.15        60.60691
589.58         60.4715
590.01        60.35246
590.45        60.07562
590.88        60.13446
591.31         59.9165
591.75        60.18086
592.18        60.19282
592.61        60.15617
593.05        60.27584
593.48        60.52441
593.91        60.69592
594.35        60.47612
594.78        60.58715
595.21        60.18587
595.65        60.07748
596.08        60.05371
596.51        60.24204
596.94        60.04387
597.38        60.12274
597.81        60.37616
598.24        60.10997
598.68        60.21751
599.11        60.44984
599.54        60.30906
599.97        60.39045
600.41        60.11021
600.84        60.40579
601.27        60.44992
601.70        59.90926
602.14        60.01373
602.57        59.86077
603.00         59.9271
603.43        60.09044
603.87        60.80733
604.30        60.60275
604.73        60.17635
605.16        59.83155
605.60        60.05992
606.03        60.16573
606.46        60.15466
606.89         60.1418
607.32        59.93071
607.76        60.19262
608.19        60.23832
608.62        60.12444
609.05        60.65589
609.48         60.1066
609.92         60.1146
610.35        60.05251
610.78         60.2084
611.21        60.06622
611.64        60.06058
612.07        59.98726
612.50         60.0085
612.94        59.98407
613.37        59.92062
613.80        60.20167
614.23        60.25483
614.66        60.10896
615.09        59.69542
615.52        59.57452
615.96        59.66954
616.39        59.78861
616.82         59.4367
617.25        59.67351
617.68        59.66617
618.11        59.61837
618.54        59.52568
618.97        59.46175
619.40        59.45046
619.84        59.57748
620.27        59.31226
620.70        59.38892
621.13        59.58401
621.56        59.59879
621.99        59.44911
622.42        59.40692
622.85        59.49721
623.28        59.56063
623.71        59.74464
624.14        59.83934
624.57        59.66442
625.00        59.96358
625.43        59.55585
625.86        59.60254
626.29         59.7971
626.72         59.3135
627.15         59.5338
627.58        59.40345
628.01        59.34547
628.44        59.46973
628.87         58.9907
629.30        59.58959
629.73        59.41645
630.16        59.47507
630.59        59.29923
631.02        59.51918
631.45        59.30703
631.88        59.35854
632.31        59.45702
632.74        59.30758
633.17        59.47964
633.60        59.40029
634.03        59.25038
634.46        59.09205
634.89        58.90067
635.32         58.8472
635.75        58.91418
636.18        59.09771
636.61        59.33419
637.04        59.40064
637.47        59.45662
637.89        59.39314
638.32         59.2974
638.75        59.21093
639.18        59.15166
639.61        59.21473
640.04        59.18237
640.47        59.20948
640.90        59.22739
641.33        59.25051
641.76        59.27053
642.18        59.28022
642.61        59.26579
643.04        59.23093
643.47        59.18896
643.90        59.16829
644.33        59.17441
644.76        59.18792
645.18        59.19419
645.61        59.19176
646.04         59.1637
646.47        59.05867
646.90         58.9131
647.33        58.84372
647.75        58.85691
648.18        58.91838
648.61        59.01515
649.04        59.05983
649.47        59.01988
649.89        59.25866
650.32        59.12561
650.75         59.1415
651.18        59.10946
651.61        59.01059
652.03        58.93594
652.46        58.91121
652.89        58.91188
653.32        59.18238
653.74        59.70064
654.17          58.896
654.60        58.93462
655.03        58.87986
655.46        58.74911
655.88        59.51823
656.31         60.4188
656.74        63.09608
657.16        61.71212
657.59         60.5786
658.02        59.42848
658.45        59.05662
658.87        59.26622
659.30        58.93824
659.73        58.89182
660.15        59.05372
660.58           59.38
661.01        59.57927
661.44        59.51497
661.86        59.25435
662.29        58.89824
662.72        58.75818
663.14        58.86667
663.57         58.9479
664.00        58.95692
664.42        59.00124
664.85        59.07008
665.27        58.97487
665.70        58.93736
666.13        58.90937
666.55        58.96566
666.98        59.05677
667.41        59.14285
667.83        59.17271
668.26        59.13926
668.69        59.00993
669.11        58.82032
669.54        58.81747
669.96        59.06295
670.39        58.74799
670.82        59.22834
671.24        59.16011
671.67        58.98571
672.09        58.93915
672.52        59.04007
672.94        59.04437
673.37        58.93764
673.80        58.82454
674.22        58.73672
674.65        58.66788
675.07        58.64617
675.50        58.64347
675.92        58.66765
676.35        58.72477
676.77        58.80724
677.20        58.92704
677.62        59.06947
678.05        59.12971
678.47        59.08262
678.90        59.23003
679.32         59.0885
679.75        59.14268
680.17        59.24831
680.60         59.4024
681.02        59.54123
681.45        59.57347
681.87        59.49013
682.30        59.28133
682.72        59.05346
683.15        58.99999
683.57        59.10231
684.00        59.30286
684.42        59.18453
684.85        59.19172
685.27        59.19292
685.70         59.1121
686.12         58.9734
686.54        58.91122
686.97         58.9465
687.39        59.03123
687.82        59.12844
688.24        59.25194
688.66        59.38289
689.09        59.36634
689.51        59.45976
689.94        59.47773
690.36        59.48478
690.78        59.42096
691.21        59.31784
691.63         59.2056
692.06        59.14064
692.48        59.23763
692.90        59.43194
693.33        59.50363
693.75        59.43365
694.17        59.27362
694.60        59.09656
695.02        59.17961
695.44        59.27018
695.87        59.45551
696.29        59.58392
696.71        59.51644
697.14         59.3483
697.56        59.41443
697.98         59.5989
698.41         60.0783
698.83        59.62122
699.25        59.49786
699.68        59.40081
700.10        59.31678
700.52        59.25691
700.94        59.25227
701.37        59.28004
701.79        59.30402
702.21        59.29732
702.64        59.27496
703.06        59.24961
703.48        59.25121
703.90        59.28879
704.33        59.34658
704.75        59.41106
705.17        59.44328
705.59         59.4386
706.01        59.40863
706.44        59.38699
706.86        59.44721
707.28        59.58292
707.70        59.75819
708.12        59.93514
708.55        60.04843
708.97        60.07375
709.39         60.0476
709.81        59.96049
710.23         59.8036
710.66        59.59875
711.08         59.3671
711.50        59.17269
711.92        59.12787
712.34         59.2494
712.76        59.50346
713.19        59.79349
713.61        59.99484
714.03        60.03994
714.45        59.97986
714.87        59.87373
715.29        59.77666
715.71        59.70978
716.13        59.80674
716.56        59.75687
716.98        59.79958
717.40        59.82755
717.82        59.85843
718.24        59.89178
718.66        59.92486
719.08        59.95959
719.50        59.99151
719.92        60.01683
720.34        60.03157
720.76        60.03604
721.19        60.02324
721.61        60.02157
722.03        60.04861
722.45        60.10864
722.87        60.19674
723.29        60.29041
723.71        60.35278
724.13        60.37367
724.55        60.35788
724.97        60.33303
725.39        60.34659
725.81        60.40771
726.23        60.50119
726.65         60.5865
727.07         60.6069
727.49        60.55504
727.91        60.43456
728.33        60.29574
728.75        60.27356
729.17         60.3667
729.59        60.42934
730.01        60.45847
730.43        60.55414
730.85        60.70401
731.27        60.82611
731.69         60.9058
732.10        60.90696
732.52        61.00721
732.94        60.81982
733.36        60.47691
733.78        60.29526
734.20        60.32284
734.62        60.37345
735.04        60.40977
735.46         60.5645
735.88        60.61263
736.30        60.72738
736.72        60.81046
737.13        60.83785
737.55        60.77085
737.97        60.58032
738.39        60.36228
738.81        60.39986
739.23        60.66335
739.65        60.80299
740.06        60.74308
740.48        60.74976
740.90        60.78433
741.32        60.69503
741.74        60.52965
742.16        60.46753
742.57         60.5483
742.99        60.70075
743.41        60.87022
743.83         60.9525
744.25        60.92299
744.67        60.81439
745.08        60.70796
745.50        60.69479
745.92        60.81375
746.34        61.03054
746.75          61.265
747.17        61.38719
747.59        61.36806
748.01        61.21502
748.42         61.0215
748.84        60.97454
749.26        61.07697
749.68        61.19622
750.09        61.26398
750.51        61.18441
750.93        61.00259
751.35        60.95967
751.76        61.05883
752.18        61.08118
752.60        61.02399
753.01        61.04601
753.43        61.09829
753.85        61.07423
754.27         60.9651
754.68        60.80087
755.10        60.65044
755.52        60.59847
755.93        60.66455
756.35        60.82952
756.77        61.03371
757.18        61.14684
757.60        61.14264
758.02        61.07023
758.43        61.03173
758.85        60.80088
759.26        61.38209
759.68        61.19181
760.10        61.04668
760.51        60.68228
760.93         61.0429
761.34        61.14286
761.76        61.33451
762.18        61.52016
762.59        61.63776
763.01        61.67449
763.42        60.90699
763.84        60.92616
764.26        61.13202
764.67        61.58477
765.09        61.99106
765.50        62.05809
765.92         61.8309
766.33        61.64485
766.75        61.55586
767.16        61.45174
767.58        61.31161
768.00        61.43493
768.41        61.76929
768.83        61.69661
769.24        61.26459
769.66         61.5933
770.07         61.6615
770.49        61.81633
770.90        61.73451
771.32        61.55149
771.73        61.36221
772.15        61.32402
772.56        61.48323
772.97        61.74237
773.39        61.98738
773.80        62.13835
774.22        62.12515
774.63        61.99538
775.05          61.805
775.46        61.69466
775.88        61.68377
776.29        61.75922
776.70        61.85475
777.12        61.87652
777.53        61.81746
777.95        61.70047
778.36        61.58593
778.77        61.56281
779.19        61.65501
779.60        61.83513
780.02        62.03393
780.43         62.2122
780.84        62.35881
781.26        62.32332
781.67        62.18944
782.09        62.43183
782.50         62.8686
782.91        62.62846
783.33        61.85505
783.74        61.62909
784.15        62.00346
784.57        62.47425
784.98        62.85372
785.39        62.87832
785.81         62.5694
786.22        62.34465
786.63        62.27908
787.04        62.16922
787.46        62.06087
787.87        62.09542
788.28        62.25997
788.70        62.41489
789.11        62.51151
789.52        62.62967
789.93        62.74517
790.35        62.72772
790.76        62.62502
791.17        62.62263
791.58        62.70113
792.00        62.69332
792.41        62.63418
792.82        62.53299
793.23        62.46891
793.65         62.7015
794.06        63.14342
794.47        63.31493
794.88        63.24726
795.29        63.19316
795.71        63.45713
796.12         63.5983
796.53        63.65129
796.94        63.55038
797.35        63.33772
797.76        63.26765
798.18        63.33419
798.59        63.27983
799.00        63.09648
799.41         62.9568
799.82        62.88462
800.23        62.83054
800.64         62.8011
801.06        62.79684
801.47        62.83816
801.88        62.88525
802.29        62.92598
802.70        62.94898
803.11         62.9747
803.52        63.04434
803.93        63.16988
804.34        63.34239
804.75        63.49761
805.17        63.57618
805.58        63.60067
805.99        63.42011
806.40          63.154
806.81        63.39454
807.22        63.98314
807.63        63.97898
808.04        63.46183
808.45        63.35618
808.86        63.71477
809.27         64.0033
809.68         64.1124
810.09        64.11478
810.50        63.98334
810.91        63.69892
811.32        63.37356
811.73        63.19516
812.14        63.21283
812.55          63.387
812.96        63.62165
813.37        63.73811
813.78        63.68868
814.19        63.53787
814.60        63.36173
815.01        63.27267
815.42        63.30507
815.83        63.41983
816.24        63.58986
816.65        63.76381
817.05         63.9175
817.46        64.04206
817.87        64.15285
818.28        64.23427
818.69        64.28929
819.10        64.31054
819.51        64.33008
819.92         64.4101
820.33        64.55456
820.74        64.73537
821.14        64.88967
821.55        64.93923
821.96        64.85537
822.37        64.66904
822.78        64.41763
823.19        64.17188
823.60        63.96581
824.00         63.7958
824.41        63.65002
824.82        63.56503
825.23        63.54268
825.64        63.59504
826.04        63.68536
826.45        63.70793
826.86        63.66008
827.27        63.56677
827.68         63.5049
828.08         63.6341
828.49        63.91423
828.90         64.3309
829.31         64.8089
829.72        65.13329
830.12        65.25483
830.53         65.5942
830.94        65.41284
831.35        65.27266
831.75        64.99074
832.16        64.57037
832.57        64.15098
832.97        63.96332
833.38         64.0542
833.79        64.35899
834.20        64.73485
834.60        64.95427
835.01        64.95692
835.42        64.80777
835.82        64.59542
836.23        64.43179
836.64        64.38196
837.04        64.41955
837.45        64.49334
837.86        64.58273
838.26        64.68036
838.67        64.77967
839.08        64.89758
839.48        65.04081
839.89         65.1972
840.29        65.35815
840.70        65.48804
841.11        65.53258
841.51        65.49583
841.92         65.3583
842.33        65.19286
842.73        65.11613
843.14        65.11919
843.54        65.21689
843.95        65.33028
844.35        65.35018
844.76        65.24493
845.17        65.04404
845.57        64.86595
845.98        64.87125
846.38        65.11164
846.79        65.50355
847.19        65.91312
847.60        66.04666
848.00        65.87989
848.41        65.47936
848.81        65.04869
849.22        64.86976
849.62        65.06233
850.03        65.48407
850.43        66.04339
850.84        66.49957
851.24        66.81997
851.65        67.00127
852.05        67.08103
852.46        67.02811
852.86        66.86425
853.27         66.6449
853.67        66.34846
854.07        66.08208
854.48        65.83842
854.88        65.62412
855.29        65.45054
855.69        65.48933
856.10         65.6679
856.50        66.02464
856.90        66.34945
857.31        66.33383
857.71        65.96829
858.12        65.29918
858.52        64.53146
858.92        63.96278
859.33        63.69053
859.73        63.67976
860.13        63.86485
860.54        64.12408
860.94        64.44681
861.34         64.8168
861.75        65.13732
862.15        65.31976
862.55         65.3017
862.96        65.08292
863.36        64.74886
863.76        64.40916
864.17        64.11088
864.57        63.86814
864.97        63.66862
865.38        63.46479
865.78        63.28955
866.18        63.16704
866.58          63.153
866.99        63.30107
867.39        63.63775
867.79        64.09977
868.19        64.58439
868.60        64.86124
869.00        64.97173
869.40        65.16254
869.80        65.37023
870.21        65.27705
870.61        64.91759
871.01        64.43376
871.41        63.97184
871.81        63.65587
872.22        63.53746
872.62        63.59901
873.02        63.72695
873.42        63.88312
873.82        63.83623
874.22        63.14136
874.63        62.20636
875.03         61.8311
875.43        62.14788
875.83        63.79335
876.23        63.78612
876.63        63.55093
877.03        62.75231
877.44         60.8713
877.84        169.4944
878.24        62.04929
878.64        62.78009
879.04        64.15144
879.44        64.51515
879.84        61.16958
880.24        66.39378
880.64        66.88307
881.04        64.82924
881.44         63.1596
881.84        62.35029
882.24        62.57387
882.65         63.3581
883.05        63.50001
883.45         62.7588
883.85        61.94733
884.25        61.40434
884.65        61.24659
885.05        61.53979
885.45        62.15998
885.85        62.81681
886.25        63.11963
886.65        62.98304
887.05        62.53674
887.45        61.95304
887.85        61.52341
888.25        61.36771
888.65        61.41292
889.04        61.63213
889.44        61.98326
889.84        62.40258
890.24        62.86521
890.64         63.3197
891.04        63.69625
891.44        63.96956
891.84         64.1529
892.24        64.17787
892.64        63.94908
893.04        63.48985
893.44        62.86488
893.83         62.2964
894.23        62.07935
894.63        62.28096
895.03        62.82119
895.43        63.50169
895.83        63.96964
896.23        64.12682
896.63        64.07668
897.02        63.93674
897.42        63.95265
897.82        64.14617
898.22        64.40701
898.62        64.67655
899.01        64.88021
899.41        64.96227
899.81        64.99414
900.21        64.90514
900.61        64.56818
901.00        63.98495
901.40        63.26616
901.80        62.66177
902.20        62.41938
902.59        62.57157
902.99        63.30835
903.39        64.46018
903.79        64.08433
904.18        64.69135
904.58        64.31558
904.98        63.84001
905.38        63.35693
905.77        62.94349
906.17        62.57336
906.57        62.31097
906.96        62.37946
907.36        62.79092
907.76        63.49447
908.15        64.32044
908.55        64.82336
908.95        64.92352
909.34        64.66886
909.74        64.25225
910.14        63.96088
910.53        63.88963
910.93        63.96656
911.33         64.0433
911.72        63.88148
912.12        63.44985
912.52        62.84034
912.91        62.25705
913.31        62.08888
913.70        62.37804
914.10        63.00155
914.49        63.69559
914.89        63.93695
915.29        63.62658
915.68        62.91209
916.08        62.11046
916.47        61.67717
916.87        61.76045
917.26         62.2033
917.66        62.79735
918.05        63.22488
918.45        63.36269
918.84        63.32642
919.24        63.20123
919.64        63.17912
920.03        63.31554
920.42         63.5118
920.82        63.68541
921.21        63.73782
921.61        63.67247
922.00         63.6063
922.40        63.64587
922.79        63.80313
923.19        63.71748
923.58        64.25834
923.98         65.7896
924.37         65.8242
924.77        62.95714
925.16        71.10554
925.55        65.00475
925.95        65.59694
926.34        65.70439
926.74        65.17711
927.13        63.94959
927.52        63.10183
927.92        63.11969
928.31        63.38375
928.70        63.84864
929.10        64.36349
929.49        64.87992
929.89        65.46908
930.28        65.92846
930.67        65.80372
931.07        65.05209
931.46         63.6936
931.85         62.2609
932.24        62.12622
932.64        63.50542
933.03        65.35975
933.42        66.64208
933.82        69.18787
934.21        67.46703
934.60        65.86486
934.99        64.16966
935.39        63.68869
935.78        64.53513
936.17        66.95282
936.56        73.75793
936.96        67.07104
937.35         70.9866
937.74        67.80112
938.13        65.43592
938.53        63.47367
938.92        62.67236
939.31        63.53323
939.70        64.89672
940.09        65.62299
940.49        65.43026
940.88        64.76633
941.27        63.93325
941.66        63.47031
942.05        63.59168
942.44        64.02311
942.84        64.53752
943.23        64.95203
943.62        65.16418
944.01        65.23631
944.40        65.24357
944.79        65.28717
945.18        65.39027
945.57        65.51765
945.97        65.51812
946.36        65.27533
946.75         64.7399
947.14        63.97863
947.53        63.23676
947.92        62.92822
948.31        63.14833
948.70         63.7613
949.09        64.47504
949.48        64.83126
949.87        64.72398
950.26        64.30351
950.65        63.75771
951.04        63.40089
951.43        63.33593
951.82        63.44082
952.21        63.66913
952.60        63.95198
952.99        64.21619
953.38        64.47381
953.77        64.62482
954.16        64.50449
954.55         64.1037
954.94        63.48631
955.33         62.7742
955.72         62.2174
956.11        61.93369
956.50        61.86877
956.89        62.04068
957.28        62.45098
957.66        63.07381
958.05         63.8068
958.44        64.47547
958.83        64.81147
959.22        64.75069
959.61        64.32404
960.00        63.68445
960.39        63.16249
960.78        62.91032
961.16        62.93118
961.55        63.01014
961.94        62.92078
962.33        62.61663
962.72         62.1581
963.11        61.78791
963.49        61.96624
963.88        62.77044
964.27        63.98529
964.66        65.15737
965.04        65.70737
965.43        65.48726
965.82        64.70841
966.21        63.71931
966.60        63.15285
966.98        63.21398
967.37        63.70928
967.76        64.39238
968.15        64.84839
968.53        64.95798
968.92        64.83999
969.31        64.58717
969.69        64.33039
970.08        64.09639
970.47        63.80882
970.86        63.53339
971.24        63.41258
971.63        63.45504
972.02        63.67044
972.40        63.89531
972.79        63.76292
973.17        63.29041
973.56        62.59618
973.95        61.98528
974.33        62.00557
974.72        62.76329
975.11        63.99664
975.49        65.48119
975.88        66.77287
976.26        67.75472
976.65        68.48341
977.04         68.8056
977.42        68.46488
977.81        67.42747
978.19        65.66203
978.58        63.94174
978.96        63.67239
979.35        65.10693
979.74        67.68884
980.12        70.27334
980.51        71.25894
980.89        70.53963
981.28        68.40431
981.66        65.57071
982.05        63.87708
982.43        64.06387
982.82        65.65765
983.20        67.72474
983.59        68.81056
983.97        68.58302
984.35        67.45932
984.74         65.9645
985.12        65.07211
985.51        65.08314
985.89        65.75309
986.28         66.6339
986.66        67.20057
987.04        67.37644
987.43        67.22166
987.81        66.84819
988.20        67.95895
988.58        70.69779
988.96        72.03778
989.35         71.0264
989.73        76.70629
990.12        72.86266
990.50        72.04987
990.88        70.25335
991.27        68.72746
991.65        67.68921
992.03        67.17828
992.42        67.24962
992.80        67.27194
993.18        67.10939
993.56         67.0303
993.95        67.00298
994.33        66.89776
994.71        66.73422
995.10        66.45397
995.48        66.32633
995.86        66.82928
996.24        68.00063
996.63        69.58347
997.01        71.21021
997.39        72.10591
997.77        72.07044
998.15        71.29146
998.54         70.2069
998.92        69.41199
999.30        69.15206
999.68        69.36137
1000.06        69.70756
1000.45        69.49191
1000.83        68.65632
1001.21        67.45663
1001.59        66.59338
1001.97        67.02766
1002.35        68.74606
1002.73        71.20704
1003.12        73.61334
1003.50         75.0501
1003.88        75.35024
1004.26        74.79351
1004.64        73.74239
1005.02        72.96729
1005.40         72.7944
1005.78        72.98698
1006.16        73.33012
1006.54        73.43202
1006.92        73.19528
1007.30        72.89765
1007.69        72.54723
1008.07        72.18806
1008.45        71.83371
1008.83        71.39105
1009.21         71.2248
1009.59        72.05492
1009.97        73.81544
1010.35        75.99155
1010.73        77.84315
1011.11        78.82365
1011.49        79.03116
1011.86        78.36213
1012.24        76.82645
1012.62        77.87154
1013.00        78.79501
1013.38        79.16146
1013.76        77.53059
1014.14        81.65974
1014.52        87.34482
1014.90        80.27407
1015.28        81.22171
1015.66        82.36929
1016.04        78.89381
1016.41        79.10564
1016.79        78.21803
1017.17        77.63618
1017.55        76.80965
1017.93        76.06252
1018.31         75.9179
1018.69        76.62865
1019.06        78.20264
1019.44        80.27208
1019.82         82.1625
1020.20         83.0406
1020.58        82.75861
1020.95        81.35528
1021.33        79.08135
1021.71        77.04173
1022.09        76.21976
1022.46        76.39887
1022.84        77.13136
1023.22        78.07631
1023.60        79.15518
1023.97        80.54441
1024.35        82.07032
1024.73        83.18988
