SpectraSmart Spectrum 2.9.0.0
--------- Device Information -----------
Spectrum Name :  反射率_0
Saving Time :  2024/04/21 00:26:15
Spectro-Module Model Name : SE2030-DUVN
Spectro-Module Serial Number : OS361AC55029948
Wavelength Start : 200
Wavelength End : 1025
Wavelength Unit : Wavelength(nm)
Spectrum Unit : Reflectance(%)
-----------Spectrum Setting ------------
Integration Time : 20ms
Average : 10
Boxcar : 0
Background removal :  enabled
linearity correction :  enabled
SC :  disabled
Intensity correction :  disabled
DWT denoise :  enabled
savitzky-golay :  disabled
FFT :  disabled
Running average :  disabled
Kalman :  disabled
High pass :  disabled
---------------BEGIN--------------------
Wavelength(nm)             Reflectance(%)
200.29               0
200.75        9.636168
201.21        28.49991
201.67        37.75572
202.13         41.3452
202.58        41.87344
203.04        41.14404
203.50        39.38589
203.96        37.22656
204.42        35.27312
204.88         32.8469
205.34        31.64724
205.80        34.01448
206.26        41.08857
206.72        55.11401
207.18        71.51961
207.64        77.19373
208.10         66.5517
208.55        43.77036
209.01        24.67417
209.47          31.161
209.93        49.56112
210.39        65.87754
210.85        77.06385
211.31        83.03331
211.77        85.70036
212.23        86.87062
212.69         86.3028
213.14        83.22691
213.60        71.69464
214.06        25.47563
214.52       -112.0648
214.98       -29.74584
215.44        37.94321
215.90        63.04992
216.36        71.31497
216.81        70.36473
217.27        60.15031
217.73        12.01461
218.19        592.0751
218.65        290.4935
219.11       -500.3091
219.57        21.23203
220.02        54.64151
220.48        61.01632
220.94        58.45545
221.40        46.66041
221.86          15.531
222.32       -13.41148
222.77        4.896515
223.23        25.64198
223.69        36.72869
224.15        39.92017
224.61        38.65623
225.06        35.56136
225.52        31.29946
225.98           26.44
226.44        21.66237
226.90        15.84334
227.36         12.2146
227.81        16.38606
228.27        25.15628
228.73         34.1278
229.19        39.79236
229.65        40.25311
230.10         36.2367
230.56        29.06291
231.02        19.80344
231.48        13.21152
231.93        12.99899
232.39         17.5669
232.85        23.16694
233.31        26.49268
233.77        27.65823
234.22        28.16742
234.68         28.1851
235.14        27.90987
235.60        27.74982
236.05        26.73943
236.51        25.30051
236.97         29.9257
237.43        40.90218
237.88        48.70591
238.34        49.63168
238.80        68.19556
239.26        58.81627
239.71        54.31613
240.17         43.2007
240.63        33.81334
241.08        32.95205
241.54        44.60194
242.00        64.77578
242.46        77.84072
242.91        79.62984
243.37        69.95362
243.83        51.46395
244.28        39.14816
244.74        42.86042
245.20        55.66771
245.66         69.0479
246.11        74.62919
246.57        71.60387
247.03        63.39939
247.48        52.51817
247.94        43.11663
248.40        36.36693
248.85        27.72528
249.31        19.70082
249.77        67.74391
250.22        97.97377
250.68        94.99187
251.14        90.61987
251.59        87.63443
252.05        85.14456
252.51         81.4103
252.96        74.56877
253.42        64.70215
253.88        54.83343
254.33        47.24096
254.79        45.76368
255.25        49.79399
255.70        55.45577
256.16        60.98774
256.62        64.53922
257.07        65.12825
257.53         64.1247
257.99        62.23417
258.44        60.12216
258.90        59.08115
259.35        58.46798
259.81        58.19654
260.27        57.67695
260.72        56.43965
261.18        54.95273
261.63        53.25773
262.09        51.70634
262.55        50.18478
263.00        48.61688
263.46        47.17159
263.91        45.78439
264.37         44.7913
264.83        44.11046
265.28        43.59959
265.74        43.20117
266.19        42.64835
266.65        41.94953
267.11        41.12238
267.56        40.18472
268.02        39.25536
268.47        38.32794
268.93        37.41558
269.38        36.49343
269.84        35.58932
270.30        34.70082
270.75        33.82935
271.21        33.02707
271.66         32.3038
272.12        31.67708
272.57        31.11201
273.03        30.56954
273.48        29.95129
273.94        29.26958
274.39        28.54034
274.85         27.8409
275.31        27.22216
275.76         26.6985
276.22        26.27761
276.67        25.94961
277.13        25.77119
277.58        25.68562
278.04        25.68098
278.49        25.64241
278.95        25.48276
279.40        25.15078
279.86        24.72174
280.31        24.21754
280.77        23.75368
281.22        23.33594
281.68        22.99476
282.13        22.69862
282.59        22.47469
283.04        22.29138
283.50         22.1535
283.95        22.06538
284.41        22.05675
284.86        22.10858
285.32         22.2235
285.77        22.30217
286.22        22.21692
286.68        21.98426
287.13        21.62245
287.59         21.3246
288.04        21.27659
288.50        21.48275
288.95        21.99206
289.41        22.67882
289.86        22.86452
290.32        22.42749
290.77        23.38373
291.22         22.5459
291.68        22.72001
292.13        22.98924
292.59        23.40707
293.04        23.94855
293.50         24.6501
293.95        25.52444
294.40         26.5444
294.86        27.67997
295.31        28.86471
295.77        30.07413
296.22        31.30381
296.68        32.56808
297.13        33.88726
297.58        35.28593
298.04        36.76271
298.49        38.32076
298.95        39.98561
299.40        41.73288
299.85        43.55227
300.31        45.41022
300.76        47.23156
301.21        49.00747
301.67        50.77938
302.12        52.54937
302.58        54.42751
303.03        56.40863
303.48        58.51266
303.94        60.72058
304.39        62.94687
304.84        65.16714
305.30        67.39825
305.75        69.60815
306.20        71.86105
306.66        74.15301
307.11        76.40162
307.57         78.5667
308.02         80.5154
308.47        82.25891
308.93         83.8768
309.38        85.39646
309.83        86.92837
310.29        88.54915
310.74          90.154
311.19        91.72964
311.65        93.21743
312.10        94.57785
312.55        95.84229
313.00         96.9943
313.46        98.00938
313.91        98.88095
314.36        99.63226
314.82        100.3408
315.27        101.1187
315.72        102.0017
316.18        102.9619
316.63        103.9291
317.08         104.787
317.53        105.4922
317.99        106.0615
318.44          106.54
318.89        106.9884
319.35        107.4263
319.80        107.8508
320.25        108.2197
320.70        108.4748
321.16        108.6056
321.61        108.6556
322.06        108.7157
322.51        108.9335
322.97        109.3229
323.42        109.8837
323.87        110.4743
324.32        110.8733
324.78          111.01
325.23         110.991
325.68         110.945
326.13        111.1203
326.59        111.5525
327.04        112.2135
327.49         112.954
327.94        113.5614
328.39        113.9627
328.85        114.1874
329.30         114.361
329.75        114.5525
330.20         114.803
330.66        115.0394
331.11        115.3317
331.56        115.6537
332.01        116.0068
332.46        116.4127
332.92        116.8019
333.37        117.1971
333.82        117.5452
334.27        117.8601
334.72        118.2045
335.17        118.6884
335.63        119.2983
336.08         120.056
336.53        120.8523
336.98        121.5596
337.43        122.1325
337.88        122.6007
338.34         122.974
338.79        123.3408
339.24        123.7055
339.69        124.0574
340.14        124.4107
340.59        124.7955
341.05        125.2175
341.50        125.6801
341.95        126.1774
342.40        126.6922
342.85        127.2142
343.30        127.7528
343.75        128.2602
344.20        128.6698
344.66        128.9808
345.11        129.1771
345.56        129.3625
346.01        129.7047
346.46        130.2306
346.91        130.8609
347.36        131.4138
347.81        131.7085
348.26        131.7264
348.72        131.1869
349.17        130.9473
349.62        130.8125
350.07        131.0526
350.52        131.5321
350.97        132.0722
351.42        132.3681
351.87        132.3156
352.32        132.0132
352.77         131.554
353.22        131.0727
353.67        130.6322
354.13        130.2272
354.58        129.8178
355.03        129.4056
355.48        128.9917
355.93        128.5744
356.38        128.2224
356.83        128.0281
357.28        127.9714
357.73        128.0001
358.18        127.9143
358.63        127.4055
359.08         126.431
359.53        125.1075
359.98        123.6883
360.43        122.5612
360.88        121.8189
361.33        121.3478
361.78        120.9844
362.23        120.4587
362.68        119.6969
363.13        118.8013
363.58         117.843
364.03        116.9261
364.48        116.0858
364.93        115.2635
365.38        114.4706
365.83        113.7439
366.28        113.0704
366.73        112.4365
367.18        111.7651
367.63        110.9263
368.08        109.9077
368.53        108.7738
368.98        107.5977
369.43        106.4791
369.88        105.4543
370.33        104.4953
370.78        103.6307
371.23        102.9226
371.68        102.3726
372.13        101.9518
372.58        101.5777
373.03        101.1039
373.48        100.4832
373.93        99.75602
374.38        98.93498
374.83        98.06654
375.28        97.19907
375.72        96.30886
376.17        95.52067
376.62        94.92798
377.07        94.51852
377.52        94.24449
377.97        93.97138
378.42         93.4893
378.87        92.77765
379.32        91.89632
379.77        90.95098
380.22        90.18163
380.67        89.63621
381.11         88.8364
381.56        88.49148
382.01        88.00443
382.46        87.58701
382.91        87.24056
383.36        86.90351
383.81        86.45663
384.26         85.8757
384.71        85.19404
385.15        84.50117
385.60        84.01289
386.05        83.73789
386.50        83.61338
386.95        83.51425
387.40        83.24958
387.85         82.7877
388.29         82.1556
388.74        81.56006
389.19        81.06834
389.64        80.69695
390.09        80.39633
390.54        80.12632
390.98        79.81611
391.43        79.49579
391.88        79.17844
392.33        78.88184
392.78        78.62834
393.23        78.42028
393.67        78.19199
394.12         78.0094
394.57        77.82213
395.02        77.59584
395.47         77.2464
395.91         76.8394
396.36        76.52504
396.81        76.34976
397.26        76.28259
397.71        76.20422
398.15        75.94209
398.60        75.56962
399.05         74.9829
399.50        74.40057
399.95        74.34245
400.39        74.73261
400.84         74.9617
401.29        74.88627
401.74        74.57175
402.18        74.09246
402.63        73.68419
403.08        73.40678
403.53        73.07685
403.97          72.733
404.42        72.60504
404.87        72.62827
405.32        72.59872
405.76        72.46904
406.21        72.28241
406.66        72.09798
407.11        72.02031
407.55        72.04485
408.00        72.12901
408.45        72.18243
408.90        71.76441
409.34         71.0461
409.79        70.88051
410.24        71.20325
410.68         71.2386
411.13        70.96437
411.58        70.84455
412.03        70.88738
412.47        70.88763
412.92        70.81023
413.37          70.728
413.81        70.65619
414.26        70.67312
414.71        70.76563
415.15        70.91895
415.60        71.04904
416.05        71.08084
416.49        70.99654
416.94        70.82029
417.39        70.61035
417.83        70.44592
418.28        70.35706
418.73        70.31832
419.17        70.31731
419.62        70.34229
420.07        70.37769
420.51        70.41676
420.96        70.46642
421.41        70.47677
421.85        70.41373
422.30        70.34988
422.74        70.27074
423.19        70.23116
423.64        70.23827
424.08        70.38667
424.53        70.57132
424.98        70.68588
425.42        70.72385
425.87        70.63246
426.31        70.50658
426.76        70.65817
427.21        71.02364
427.65        71.14405
428.10        70.97319
428.54        70.89669
428.99        70.96367
429.44        70.94918
429.88        70.84908
430.33        70.84684
430.77        70.90002
431.22        71.04356
431.66         71.2298
432.11        71.51801
432.56        71.86668
433.00         71.7569
433.45        71.07378
433.89        71.00086
434.34        71.71237
434.78        70.63728
435.23         70.8773
435.67         71.6469
436.12        71.79613
436.57        71.98222
437.01        71.73647
437.46        71.61211
437.90        72.33305
438.35        72.23235
438.79        72.60844
439.24        72.57853
439.68        72.48795
440.13        72.25441
440.57        71.99048
441.02         72.0105
441.46         72.2676
441.91        72.47536
442.35        72.51219
442.80        72.76658
443.24        73.13926
443.69        73.16677
444.13        72.86227
444.58        72.76259
445.02        72.93248
445.47        72.66225
445.91         73.0397
446.36        73.06828
446.80        73.06397
447.24        72.99515
447.69        72.92327
448.13        73.11551
448.58        73.30185
449.02        73.28571
449.47        73.05954
449.91        73.01975
450.36        73.20207
450.80        73.29424
451.25        73.30498
451.69        73.43204
452.13        73.60999
452.58        73.49074
453.02        73.11546
453.47        72.87326
453.91         72.7787
454.36        72.65439
454.80        72.54251
455.24        72.43044
455.69        72.28934
456.13         72.4149
456.58        72.87693
457.02        72.08101
457.46        72.29679
457.91        72.42416
458.35         71.9435
458.79        71.81145
459.24        71.72787
459.68        71.63557
460.13        71.54525
460.57        71.44624
461.01        71.36792
461.46        71.04469
461.90        71.43489
462.34        70.68164
462.79        70.94412
463.23        70.85588
463.68        71.26274
464.12         71.1032
464.56        70.59402
465.01        70.62206
465.45        71.01758
465.89        71.05447
466.34        70.75566
466.78        70.63943
467.22        70.73512
467.67        70.52442
468.11        70.15553
468.55        70.11758
468.99         70.3722
469.44        70.33961
469.88        69.97884
470.32         69.8227
470.77        69.47974
471.21         69.3119
471.65        69.20891
472.10         69.1938
472.54        69.21104
472.98         69.2186
473.42        69.20652
473.87        69.14839
474.31        69.04865
474.75        69.12186
475.20         69.3106
475.64        69.30689
476.08        69.11503
476.52         69.0162
476.97        69.00131
477.41        68.94263
477.85        68.83044
478.29        68.78627
478.74        68.55935
479.18        68.73571
479.62        68.75574
480.06        68.83491
480.50        68.85829
480.95        68.83062
481.39        68.69643
481.83         68.8218
482.27        69.38954
482.72        68.58889
483.16        69.09169
483.60        69.34386
484.04        69.30887
484.48        68.86804
484.93        68.52176
485.37        68.90298
485.81        69.42032
486.25        68.34171
486.69        70.24917
487.14        70.34675
487.58        69.39518
488.02        68.76109
488.46        68.39749
488.90        68.94038
489.34        68.49934
489.79        67.90758
490.23        68.49334
490.67        68.54645
491.11        68.58392
491.55        68.46503
491.99         68.2743
492.43        68.18526
492.88        68.19995
493.32        68.24612
493.76         68.2578
494.20        68.26529
494.64        68.27473
495.08        68.03366
495.52         68.0093
495.96        67.95733
496.41        67.95863
496.85        67.92065
497.29        67.79662
497.73        67.76202
498.17        67.49152
498.61        67.57063
499.05        67.79312
499.49        67.62812
499.93         67.2073
500.37        67.10902
500.82        67.33525
501.26        67.75159
501.70        68.17597
502.14        67.79661
502.58        67.29684
503.02         67.0315
503.46        67.16203
503.90        67.26927
504.34        67.25658
504.78        67.24286
505.22        67.23526
505.66        67.08448
506.10        66.84399
506.54        66.94392
506.98        67.41068
507.42        66.85375
507.86        67.48058
508.30        67.12128
508.74        67.36822
509.18         67.2878
509.62        67.18716
510.06        67.13407
510.50        67.10558
510.94         67.0163
511.38        66.86315
511.82        66.74433
512.26        66.66582
512.70        66.58142
513.14        66.50845
513.58        66.49065
514.02        66.52937
514.46         66.6137
514.90        66.69469
515.34        66.72197
515.78        66.68402
516.22        66.58474
516.66        66.31453
517.10        66.49068
517.54        66.36239
517.98        66.50067
518.42        66.62443
518.86        66.66365
519.30        66.59795
519.74        66.42343
520.18        66.23331
520.62        66.24183
521.06        66.42916
521.50         66.5468
521.93        66.54568
522.37        66.53078
522.81        66.49177
523.25         66.3518
523.69        66.15077
524.13        66.00108
524.57        65.92747
525.01        65.89785
525.45        65.91304
525.89        65.97479
526.32        66.06986
526.76        66.19957
527.20        66.33002
527.64        66.41143
528.08        66.43054
528.52        66.39051
528.96        66.31322
529.40        66.25585
529.83        66.21729
530.27        66.16315
530.71        66.09552
531.15        66.06796
531.59        66.08168
532.03        66.10683
532.46        66.12973
532.90        66.15691
533.34        66.17702
533.78        66.18941
534.22        66.17999
534.66        66.12934
535.09        66.02967
535.53        65.91064
535.97        65.79305
536.41        65.72776
536.85        65.72556
537.28        65.77342
537.72        65.83978
538.16        65.87301
538.60        65.85778
539.04        65.81049
539.47        65.74039
539.91        65.71644
540.35        65.73264
540.79        65.77769
541.22        65.82646
541.66        65.85534
542.10        65.85157
542.54        65.81988
542.97        65.77881
543.41        65.79163
543.85        65.85943
544.29         65.9728
544.72        66.07085
545.16        66.11483
545.60        66.08433
546.04        65.93355
546.47        65.74573
546.91        65.79754
547.35        66.03294
547.79        66.10873
548.22        65.98626
548.66          65.872
549.10         65.8047
549.53        65.77161
549.97        65.77169
550.41        65.72217
550.84        65.62266
551.28        65.54763
551.72        65.51257
552.15        65.50213
552.59        65.53159
553.03        65.57671
553.46        65.63934
553.90         65.6621
554.34        65.63792
554.77          65.574
555.21        65.51437
555.65        65.51761
556.08        65.58489
556.52         65.6899
556.96        65.79061
557.39        65.89436
557.83        65.97518
558.27        65.89733
558.70        65.71078
559.14        65.63086
559.57        65.66236
560.01        65.74419
560.45        65.81596
560.88        65.78813
561.32        65.70791
561.75        65.61358
562.19        65.56257
562.63        65.54457
563.06         65.5328
563.50        65.46332
563.93        65.33434
564.37        65.23901
564.80        65.18708
565.24        65.26472
565.68        65.42709
566.11        65.52387
566.55        65.55934
566.98        65.59241
567.42        65.65362
567.85        65.70819
568.29        65.80727
568.72        65.89502
569.16        65.97941
569.60        66.16125
570.03        66.20254
570.47        66.22982
570.90         66.1251
571.34        66.37788
571.77        66.52274
572.21        66.48161
572.64        66.62391
573.08        66.82588
573.51        66.46758
573.95        66.56722
574.38        66.57101
574.82        67.13045
575.25        67.15325
575.69        66.86318
576.12        66.52316
576.56        66.74033
576.99        66.76682
577.42        66.95868
577.86        66.77286
578.29        67.43534
578.73        68.01655
579.16          67.731
579.60        66.61259
580.03        66.81789
580.47        67.02097
580.90         67.0003
581.33        67.09325
581.77        67.14046
582.20        67.83936
582.64        67.88162
583.07        67.35052
583.51        66.97229
583.94        66.70264
584.37        66.35805
584.81        66.18788
585.24        66.27048
585.68        66.96703
586.11        66.90913
586.54         67.1105
586.98        66.77225
587.41        66.47549
587.85        66.98016
588.28        67.07736
588.71        67.40993
589.15        67.03256
589.58        66.60339
590.01        66.47604
590.45        66.16647
590.88        66.31569
591.31        65.89595
591.75        65.87857
592.18        65.77037
592.61        65.73041
593.05        66.54242
593.48        66.65667
593.91        66.56103
594.35        66.71935
594.78         66.7028
595.21        66.26747
595.65        66.17647
596.08         66.2795
596.51        66.57532
596.94        66.38822
597.38        66.40718
597.81        66.48512
598.24         66.3005
598.68        66.12746
599.11        66.28455
599.54        66.61574
599.97        66.78879
600.41        66.56423
600.84         66.7318
601.27        66.68762
601.70        66.30023
602.14        66.01508
602.57        65.89889
603.00        66.05295
603.43        66.58537
603.87        66.71077
604.30        66.60722
604.73        66.56834
605.16        66.41225
605.60        66.41695
606.03        66.43262
606.46        66.46852
606.89        66.40126
607.32        65.97411
607.76         66.3804
608.19        66.42184
608.62        66.04619
609.05        66.81123
609.48        66.30425
609.92        66.22328
610.35        66.22334
610.78        66.52124
611.21        66.22707
611.64        66.19436
612.07        66.07844
612.50        66.16781
612.94        66.16582
613.37        65.91621
613.80        66.14442
614.23        65.98097
614.66        65.94241
615.09        65.82912
615.52        65.87888
615.96        66.03632
616.39        66.06144
616.82        65.94785
617.25        65.71971
617.68        65.68766
618.11        65.50333
618.54        65.45463
618.97          65.531
619.40        65.78691
619.84        65.50489
620.27        65.83983
620.70        65.69205
621.13        65.47545
621.56        65.45784
621.99        65.65733
622.42        65.73418
622.85        65.62341
623.28        65.60967
623.71        65.74081
624.14        65.49309
624.57        65.89528
625.00        65.95724
625.43        65.63343
625.86        65.49306
626.29        65.45934
626.72        65.46205
627.15        65.32426
627.58        65.38244
628.01         65.5741
628.44        65.35043
628.87        65.51487
629.30        65.39932
629.73        65.22401
630.16        65.35088
630.59        65.15446
631.02        65.42668
631.45        65.06666
631.88        65.10038
632.31        65.26915
632.74        65.13329
633.17        65.32164
633.60        65.26157
634.03        65.15165
634.46        65.03496
634.89        64.86635
635.32        64.82158
635.75        64.87933
636.18        65.02117
636.61        65.17953
637.04        65.24687
637.47        65.19783
637.89        65.07185
638.32        64.91096
638.75        64.80958
639.18        64.79482
639.61        64.84224
640.04        64.91804
640.47         64.9631
640.90        64.96339
641.33        64.94925
641.76        64.93839
642.18        64.95338
642.61        64.98561
643.04        65.03374
643.47        65.08064
643.90        65.10447
644.33        65.09692
644.76        65.05201
645.18        64.98621
645.61        64.94311
646.04        64.92522
646.47        64.88271
646.90        64.81308
647.33        64.78176
647.75        64.78657
648.18        64.74849
648.61        64.72361
649.04        64.88031
649.47        65.12399
649.89        65.46268
650.32        65.17276
650.75        65.15716
651.18        65.20845
651.61        65.05463
652.03        64.77802
652.46        64.73122
652.89        64.90488
653.32        65.04079
653.74        65.12891
654.17        65.02653
654.60         64.6134
655.03        64.84383
655.46        64.97337
655.88        65.38385
656.31        66.73309
656.74        71.41821
657.16        70.35964
657.59         68.7552
658.02        66.11086
658.45        65.15149
658.87         65.2864
659.30        65.12256
659.73        65.07627
660.15        64.82708
660.58        65.20776
661.01        65.43784
661.44        65.59255
661.86        65.35413
662.29        64.83232
662.72        64.70341
663.14        64.96323
663.57        64.98732
664.00        64.77698
664.42        64.76553
664.85        64.96009
665.27        65.00484
665.70        65.08167
666.13        65.09192
666.55        65.09945
666.98        65.07029
667.41        65.02271
667.83        65.00306
668.26        65.03049
668.69        65.03331
669.11        65.00336
669.54         65.1509
669.96        65.52119
670.39        65.19331
670.82        65.68564
671.24        65.63637
671.67        65.49806
672.09        65.28941
672.52        65.10595
672.94        64.99876
673.37        64.98227
673.80        65.02731
674.22        65.10909
674.65        65.16007
675.07        65.17883
675.50        65.16272
675.92         65.1339
676.35        65.11343
676.77        65.10537
677.20        65.12906
677.62        65.20441
678.05        65.23757
678.47        65.19961
678.90        65.56273
679.32        65.48232
679.75        65.61153
680.17        65.69435
680.60        65.75546
681.02        65.77407
681.45        65.73721
681.87        65.66601
682.30         65.5197
682.72        65.35292
683.15        65.35372
683.57         65.4977
684.00        65.56741
684.42        65.23737
684.85        65.56509
685.27        65.51251
685.70        65.69881
686.12         65.7832
686.54        65.79103
686.97        65.70081
687.39        65.55477
687.82        65.41637
688.24        65.33624
688.66         65.3166
689.09        65.60397
689.51        65.65704
689.94        65.82099
690.36        65.90987
690.78        65.92538
691.21        65.88857
691.63        65.79038
692.06         65.6919
692.48        65.74765
692.90        65.93566
693.33        65.90022
693.75        65.92381
694.17        65.85283
694.60        65.78036
695.02         65.8273
695.44        65.73138
695.87        65.73923
696.29        65.77266
696.71        65.74049
697.14        65.68479
697.56        65.85513
697.98        66.15546
698.41         66.3298
698.83        66.19256
699.25        66.04758
699.68        65.89681
700.10        65.77222
700.52        65.69864
700.94        65.67199
701.37        65.67376
701.79        65.71259
702.21        65.76092
702.64        65.82779
703.06        65.89372
703.48        65.93506
703.90        65.95013
704.33        65.93688
704.75        65.91548
705.17        65.90264
705.59        65.90656
706.01        65.92033
706.44        65.94936
706.86        66.02037
707.28        66.11888
707.70         66.2392
708.12        66.36073
708.55        66.44077
708.97         66.4625
709.39        66.44464
709.81         66.4044
710.23        66.37872
710.66        66.38247
711.08        66.41859
711.50        66.45592
711.92        66.46307
712.34        66.43474
712.76        66.38058
713.19        66.32164
713.61        66.33994
714.03        66.42307
714.45        66.56525
714.87        66.72569
715.29        66.79697
715.71        66.75383
716.13        66.79381
716.56        66.62944
716.98        66.62663
717.40        66.69539
717.82        66.81916
718.24        66.94695
718.66        67.00127
719.08        66.96803
719.50        66.87345
719.92        66.76898
720.34        66.73191
720.76        66.78164
721.19        66.88374
721.61        67.01811
722.03        67.12117
722.45        67.17361
722.87        67.19306
723.29        67.19617
723.71        67.21042
724.13        67.24369
724.55        67.28038
724.97        67.31635
725.39        67.34789
725.81        67.37268
726.23        67.39816
726.65        67.41352
727.07        67.40269
727.49        67.36919
727.91        67.30918
728.33        67.25552
728.75         67.2934
729.17        67.41846
729.59        67.54164
730.01         67.6456
730.43        67.75571
730.85        67.85555
731.27         67.9124
731.69        67.93172
732.10        67.86307
732.52        67.92886
732.94        67.75503
733.36        67.47406
733.78        67.33949
734.20        67.38534
734.62        67.47613
735.04        67.57465
735.46        67.67307
735.88        67.75252
736.30        67.82557
736.72        67.86494
737.13        67.85105
737.55        67.74728
737.97        67.55266
738.39        67.36275
738.81        67.38836
739.23        67.63157
739.65        67.91886
740.06        68.09858
740.48        68.19815
740.90        68.15959
741.32         67.9394
741.74        67.64836
742.16         67.5304
742.57        67.65338
742.99        67.92278
743.41        68.22581
743.83        68.36495
744.25        68.29179
744.67        68.06697
745.08        67.81478
745.50        67.69419
745.92        67.76809
746.34        67.98021
746.75        68.22598
747.17        68.33659
747.59        68.27523
748.01        68.06857
748.42        67.82735
748.84        67.76712
749.26        67.89512
749.68        68.04978
750.09         68.1683
750.51        68.17708
750.93        68.11411
751.35        68.21339
751.76        68.43961
752.18        68.50115
752.60        68.38373
753.01        68.27763
753.43        68.16972
753.85        68.01461
754.27        67.82837
754.68        67.62762
755.10        67.47694
755.52        67.45129
755.93        67.56099
756.35           67.79
756.77        68.06117
757.18        68.21625
757.60         68.2141
758.02        68.13805
758.43        68.10744
758.85         67.9229
759.26        68.36057
759.68        68.58785
760.10        68.01921
760.51        67.89448
760.93        68.72349
761.34        68.39394
761.76        68.99625
762.18         68.8994
762.59        68.69315
763.01        68.81829
763.42        68.39106
763.84        68.48885
764.26         68.5145
764.67        68.65096
765.09        68.80186
765.50        69.12341
765.92        69.51804
766.33        69.53663
766.75        69.17722
767.16        68.94026
767.58        68.76742
768.00         68.7722
768.41         68.9089
768.83        68.77948
769.24        68.42043
769.66        68.69095
770.07        68.74515
770.49         68.9002
770.90        68.88157
771.32        68.75124
771.73        68.59151
772.15        68.57357
772.56        68.74018
772.97        68.98225
773.39        69.20127
773.80        69.35388
774.22        69.37266
774.63        69.30239
775.05        69.16182
775.46        69.03384
775.88        68.92728
776.29        68.85321
776.70        68.79726
777.12        68.75019
777.53        68.73115
777.95        68.74063
778.36         68.7883
778.77        68.87518
779.19        68.99823
779.60         69.1558
780.02        69.32269
780.43        69.50279
780.84        69.69083
781.26         69.7989
781.67        69.86782
782.09        70.05698
782.50        70.27904
782.91        70.21114
783.33        69.88831
783.74         69.7392
784.15        69.76794
784.57        69.81943
784.98        69.84103
785.39        69.72871
785.81        69.51577
786.22        69.40168
786.63        69.43776
787.04        69.53714
787.46        69.71273
787.87        70.00651
788.28        70.33875
788.70        70.52309
789.11        70.50627
789.52        70.36517
789.93        70.17323
790.35        70.02277
790.76        69.97163
791.17        70.02802
791.58        70.15285
792.00        70.20615
792.41        70.18904
792.82         70.2175
793.23        70.33925
793.65        70.35071
794.06        70.33991
794.47        70.82139
794.88        71.63416
795.29        71.55582
795.71        71.62785
796.12           71.28
796.53        70.93188
796.94        70.66166
797.35        70.53123
797.76        70.46458
798.18        70.43365
798.59        70.45773
799.00        70.51366
799.41        70.59595
799.82        70.66962
800.23        70.68702
800.64        70.63834
801.06        70.50489
801.47        70.38239
801.88        70.36108
802.29        70.46406
802.70        70.65822
803.11        70.88404
803.52        71.03793
803.93        71.09224
804.34        71.07775
804.75        71.02952
805.17        71.03349
805.58        71.14653
805.99        71.20975
806.40        71.22639
806.81        71.49202
807.22        71.85643
807.63        71.67791
808.04        71.09792
808.45         70.9396
808.86        71.28204
809.27        71.67951
809.68        71.99596
810.09        72.19051
810.50        72.20517
810.91        72.05595
811.32        71.82894
811.73        71.66966
812.14        71.62427
812.55        71.65124
812.96        71.71743
813.37        71.76181
813.78         71.7625
814.19        71.75354
814.60        71.72849
815.01        71.66647
815.42        71.57148
815.83        71.44254
816.24        71.32616
816.65        71.31413
817.05        71.43256
817.46        71.62492
817.87        71.85062
818.28        72.00101
818.69        72.05418
819.10        72.04382
819.51         72.0156
819.92        72.05323
820.33        72.17572
820.74        72.33356
821.14        72.50239
821.55        72.67317
821.96        72.81679
822.37         72.9428
822.78        72.99187
823.19        72.85975
823.60        72.53902
824.00        72.08739
824.41        71.59293
824.82        71.28234
825.23        71.21928
825.64        71.35612
826.04         71.6228
826.45        71.85474
826.86        72.01253
827.27        72.13999
827.68        72.24351
828.08        72.36227
828.49         72.4305
828.90        72.45808
829.31        72.49171
829.72        72.53927
830.12        72.61855
830.53         73.0267
830.94        73.08757
831.35        73.05383
831.75        72.74275
832.16        72.19672
832.57        71.67578
832.97        71.60125
833.38        72.04585
833.79        72.85977
834.20        73.73704
834.60        74.22141
835.01        74.20367
835.42        73.81213
835.82        73.26891
836.23        72.90728
836.64        72.86417
837.04        73.05354
837.45        73.30991
837.86        73.42873
838.26        73.36303
838.67        73.18118
839.08        73.00641
839.48        73.00702
839.89        73.21127
840.29        73.55067
840.70        73.91879
841.11        74.15544
841.51        74.22386
841.92        74.13245
842.33        73.95827
842.73        73.82629
843.14        73.73391
843.54        73.68679
843.95        73.64729
844.35        73.58127
844.76        73.47662
845.17        73.36789
845.57        73.31042
845.98        73.34804
846.38        73.51386
846.79        73.74728
847.19        74.02793
847.60        74.24468
848.00        74.40143
848.41        74.48924
848.81        74.54775
849.22        74.56793
849.62        74.59811
850.03        74.58775
850.43        74.60288
850.84        74.64317
851.24        74.75993
851.65        74.88571
852.05        75.02301
852.46        75.05177
852.86        74.95613
853.27        74.82483
853.67        74.62594
854.07         74.4624
854.48        74.32439
854.88        74.21542
855.29        74.13703
855.69        74.27362
856.10        74.54573
856.50        75.00192
856.90        75.44148
857.31        75.57941
857.71        75.40939
858.12        74.93974
858.52        74.36148
858.92        73.93269
859.33          73.729
859.73        73.73965
860.13        73.85032
860.54        73.86575
860.94        73.78953
861.34        73.63527
861.75        73.45422
862.15        73.40588
862.55        73.48104
862.96        73.61608
863.36        73.72551
863.76        73.62452
864.17        73.27663
864.57        72.77762
864.97        72.24824
865.38        71.87571
865.78        71.76865
866.18         71.8601
866.58        72.10839
866.99        72.40242
867.39        72.71309
867.79        73.03703
868.19        73.30796
868.60        73.34764
869.00        73.19225
869.40        73.00449
869.80        72.80166
870.21        72.48367
870.61        72.15043
871.01        71.89329
871.41        71.68626
871.81         71.3961
872.22        71.02483
872.62        70.63253
873.02        70.33774
873.42        70.48732
873.82        70.95992
874.22        71.24141
874.63         71.4233
875.03        71.72562
875.43        72.11976
875.83        73.20227
876.23         72.8815
876.63        72.36903
877.03        71.47941
877.44        69.72992
877.84        154.1713
878.24        70.40875
878.64        71.18619
879.04         72.6256
879.44        73.26466
879.84        70.81434
880.24        74.48375
880.64        74.36732
881.04        72.18849
881.44        70.50296
881.84        69.83593
882.24        70.24646
882.65         71.1996
883.05        71.53744
883.45        71.00298
883.85        70.30939
884.25        69.77574
884.65        69.57887
885.05        69.80344
885.45        70.30675
885.85         70.8696
886.25        71.21192
886.65        71.26039
887.05        71.11486
887.45         70.8484
887.85        70.58121
888.25        70.37592
888.65        70.18963
889.04        70.08621
889.44        70.17616
889.84        70.45432
890.24        70.88349
890.64        71.31823
891.04        71.53791
891.44        71.50536
891.84        71.28757
892.24        70.99724
892.64        70.83843
893.04         70.8736
893.44        71.03156
893.83          71.269
894.23        71.49593
894.63        71.68531
895.03        71.87215
895.43         72.0145
895.83        72.03725
896.23        71.93687
896.63        71.72312
897.02        71.48147
897.42         71.4127
897.82        71.51646
898.22        71.74782
898.62        71.97729
899.01        71.99766
899.41          71.748
899.81        71.32249
900.21        70.85852
900.61        70.57919
901.00        70.53584
901.40        70.71181
901.80        71.02972
902.20        71.26739
902.59        71.35458
902.99        71.54171
903.39        71.92508
903.79        71.34078
904.18        71.88422
904.58        71.86011
904.98        71.80754
905.38        71.55435
905.77        71.09728
906.17        70.52996
906.57        69.98582
906.96        69.77133
907.36        69.94325
907.76        70.41563
908.15        71.05577
908.55        71.48424
908.95        71.63482
909.34        71.55392
909.74        71.36044
910.14        71.21223
910.53           71.17
910.93        71.18522
911.33        71.18266
911.72        71.04764
912.12        70.77232
912.52        70.40253
912.91        70.05531
913.31        69.98831
913.70        70.21742
914.10        70.66438
914.49        71.15339
914.89        71.29923
915.29        71.04623
915.68        70.49816
916.08        69.90725
916.47        69.62643
916.87        69.77511
917.26        70.23315
917.66        70.82006
918.05        71.26414
918.45        71.45273
918.84        71.47337
919.24        71.41096
919.64        71.46228
920.03        71.68033
920.42        71.97949
920.82        72.22688
921.21        72.24281
921.61         72.0151
922.00        71.66585
922.40        71.40582
922.79        71.44903
923.19        71.54503
923.58        72.31187
923.98         73.8464
924.37        73.99537
924.77        71.63227
925.16        77.55706
925.55        72.36792
925.95        72.55853
926.34        72.60336
926.74        72.29934
927.13        71.53042
927.52        71.02357
927.92        71.10767
928.31        71.34651
928.70        71.71403
929.10        72.09436
929.49        72.46443
929.89        72.85201
930.28        73.16399
930.67        73.13763
931.07        72.75032
931.46          71.993
931.85        71.17035
932.24        71.16024
932.64         72.0876
933.03        73.23318
933.42        73.88975
933.82         75.6741
934.21        74.27596
934.60        73.08868
934.99        71.88674
935.39        71.57826
935.78        72.21505
936.17        74.05252
936.56        79.32455
936.96        73.93105
937.35        76.91332
937.74        74.22671
938.13         72.2357
938.53        70.77728
938.92        70.49944
939.31        71.72342
939.70        73.32599
940.09        74.18385
940.49        74.05173
940.88        73.33826
941.27        72.40936
941.66        71.94549
942.05        72.20048
942.44        72.88895
942.84        73.68246
943.23         74.2229
943.62        74.38666
944.01        74.27757
944.40        74.09999
944.79         74.1752
945.18        74.56765
945.57        75.16379
945.97        75.62799
946.36        75.55793
946.75        74.84698
947.14        73.65754
947.53        72.41193
947.92        71.83241
948.31         72.1071
948.70        72.99447
949.09        74.08356
949.48        74.73584
949.87        74.77884
950.26        74.41722
950.65         73.8465
951.04        73.38633
951.43        73.16106
951.82        73.04856
952.21        73.04077
952.60        73.15335
952.99        73.33854
953.38        73.58204
953.77         73.7892
954.16        73.78939
954.55         73.5639
954.94        73.19963
955.33         72.7107
955.72        72.15801
956.11        71.61777
956.50        71.05916
956.89        70.74374
957.28        71.06776
957.66        72.06694
958.05        73.53226
958.44        74.93163
958.83        75.45645
959.22        74.94385
959.61        73.56993
960.00        71.88122
960.39        70.97672
960.78        71.20951
961.16        72.26519
961.55        73.47704
961.94        74.01887
962.33        73.72018
962.72        72.82668
963.11        71.73092
963.49        71.23071
963.88        71.57256
964.27        72.44174
964.66        73.40224
965.04        73.89356
965.43        73.73586
965.82        73.17184
966.21        72.40339
966.60         71.7743
966.98        71.44199
967.37        71.29471
967.76        71.31516
968.15        71.47481
968.53        71.75772
968.92        72.16351
969.31        72.61762
969.69        72.96904
970.08        73.13361
970.47         73.1101
970.86        72.98858
971.24        72.95768
971.63        73.04861
972.02        73.23405
972.40        73.38699
972.79        73.22704
973.17        72.77885
973.56        72.14025
973.95        71.57262
974.33        71.52696
974.72        72.08863
975.11         73.0666
975.49        74.25953
975.88        75.25859
976.26        75.97522
976.65        76.43998
977.04        76.60978
977.42        76.39235
977.81        75.77155
978.19        74.72381
978.58        73.73237
978.96        73.65195
979.35         74.6116
979.74        76.25477
980.12        77.92811
980.51        78.65421
980.89        78.41227
981.28        77.39011
981.66        75.93281
982.05        74.93028
982.43        74.77341
982.82        75.21391
983.20        75.99389
983.59        76.66747
983.97        77.11145
984.35        77.43199
984.74        77.52609
985.12        77.29291
985.51        76.73689
985.89        75.99934
986.28        75.23135
986.66        74.69713
987.04        74.50148
987.43        74.47536
987.81        74.51956
988.20        75.58284
988.58        77.65076
988.96        78.57585
989.35        77.65141
989.73         81.9215
990.12        78.85203
990.50        78.13396
990.88        76.71584
991.27        75.72964
991.65        75.38315
992.03        75.67304
992.42        76.43661
992.80        76.88694
993.18        76.79988
993.56        76.43045
993.95        75.94064
994.33        75.55585
994.71        75.39289
995.10        75.33884
995.48        75.43672
995.86        75.77501
996.24        76.31771
996.63        76.93348
997.01        77.60405
997.39        78.08379
997.77         78.2897
998.15        78.29124
998.54        78.08525
998.92         77.5672
999.30        76.80824
999.68        75.86089
1000.06         74.9794
1000.45        74.63946
1000.83        75.09636
1001.21        76.14765
1001.59        77.51833
1001.97        78.77313
1002.35        79.71993
1002.73         80.4164
1003.12        80.82753
1003.50        80.96262
1003.88        80.85119
1004.26        80.47997
1004.64        79.94508
1005.02        79.48708
1005.40        79.21889
1005.78        79.13094
1006.16         79.1617
1006.54        79.13888
1006.92        79.02413
1007.30        78.91589
1007.69        78.80827
1008.07        78.78214
1008.45        78.82246
1008.83        78.86678
1009.21        79.02467
1009.59        79.50986
1009.97         80.2634
1010.35        81.10059
1010.73         81.7613
1011.11        82.14162
1011.49        82.36784
1011.86         82.2904
1012.24        81.81116
1012.62        83.29159
1013.00        84.39751
1013.38         84.8684
1013.76        83.82281
1014.14         87.0343
1014.52        91.34549
1014.90        87.16207
1015.28        88.31078
1015.66        88.94546
1016.04         85.8824
1016.41        84.60674
1016.79        82.65039
1017.17        82.06663
1017.55        82.59016
1017.93        84.18414
1018.31        86.35376
1018.69        87.72404
1019.06        87.95004
1019.44          87.424
1019.82        86.49089
1020.20        85.50165
1020.58         84.5635
1020.95         83.4067
1021.33        82.39283
1021.71        82.42551
1022.09        83.69996
1022.46         85.6062
1022.84        87.33725
1023.22        88.34772
1023.60        88.72916
1023.97         88.7718
1024.35        88.44439
1024.73        87.73389
