SpectraSmart Spectrum 2.9.0.0
--------- Device Information -----------
Spectrum Name :  反射率_0
Saving Time :  2024/04/21 00:03:30
Spectro-Module Model Name : SE2030-DUVN
Spectro-Module Serial Number : OS361AC55029948
Wavelength Start : 200
Wavelength End : 1025
Wavelength Unit : Wavelength(nm)
Spectrum Unit : Reflectance(%)
-----------Spectrum Setting ------------
Integration Time : 20ms
Average : 10
Boxcar : 0
Background removal :  enabled
linearity correction :  enabled
SC :  disabled
Intensity correction :  disabled
DWT denoise :  enabled
savitzky-golay :  disabled
FFT :  disabled
Running average :  disabled
Kalman :  disabled
High pass :  disabled
---------------BEGIN--------------------
Wavelength(nm)             Reflectance(%)
200.29               0
200.75        -70.4871
201.21        -37.2592
201.67        -15.9282
202.13       -1.081691
202.58        12.16986
203.04        27.85814
203.50        44.15413
203.96          51.776
204.42        46.02001
204.88        29.36275
205.34        10.32223
205.80     0.001023963
206.26        1.292103
206.72         15.3341
207.18         34.9808
207.64         39.2561
208.10        19.53459
208.55       -16.28588
209.01       -43.93495
209.47        -32.2019
209.93       -3.247949
210.39        21.63703
210.85        38.11858
211.31        46.04147
211.77        48.00669
212.23        46.04118
212.69        37.58255
213.14        16.02556
213.60       -34.57747
214.06       -201.7894
214.52        -629.392
214.98       -304.3332
215.44       -83.47273
215.90       -6.562787
216.36        19.41382
216.81        22.09084
217.27        5.509334
217.73       -81.61678
218.19        974.5674
218.65        416.3428
219.11       -930.4423
219.57       -44.64971
220.02        11.97739
220.48        22.17252
220.94        17.42201
221.40       -2.683529
221.86         -50.285
222.32       -76.48125
222.77        -28.3218
223.23         10.5918
223.69        29.54678
224.15        35.74942
224.61        35.40263
225.06        32.00051
225.52        26.45438
225.98        19.68876
226.44        12.65882
226.90        4.107398
227.36       -1.716572
227.81        2.778873
228.27        13.68996
228.73        25.21328
229.19        32.71805
229.65        33.79581
230.10         29.4559
230.56        21.37527
231.02        10.87954
231.48        3.626054
231.93        3.888422
232.39        9.496341
232.85        16.34744
233.31        21.02014
233.77        23.62572
234.22        25.75708
234.68        27.16314
235.14        27.11264
235.60        25.75541
236.05        22.39501
236.51        17.88819
236.97        20.42783
237.43        31.16421
237.88        38.73531
238.34        38.72573
238.80        61.48336
239.26        51.86907
239.71        50.07357
240.17        41.65622
240.63        31.95973
241.08        24.56835
241.54        22.37324
242.00        26.86348
242.46        28.60596
242.91         24.7423
243.37        16.49166
243.83        5.715038
244.28      -0.1340389
244.74        3.375395
245.20        11.18807
245.66        17.23378
246.11        15.85266
246.57        6.360655
247.03       -9.144398
247.48        -29.0401
247.94        -50.7947
248.40       -78.21977
248.85         -136.65
249.31       -298.8309
249.77       -392.5894
250.22       -131.9884
250.68       -33.53898
251.14       -3.191188
251.59        6.429306
252.05        8.936736
252.51        8.447012
252.96        5.865504
253.42        5.781567
253.88        10.89009
254.33        18.55201
254.79        29.25063
255.25        41.54154
255.70        51.98133
256.16        59.76578
256.62        64.09182
257.07        64.64998
257.53        63.28101
257.99        61.00062
258.44        58.68723
258.90        57.77737
259.35        57.59039
259.81        57.90056
260.27        58.05534
260.72        57.49382
261.18        56.62497
261.63        55.48087
262.09        54.37618
262.55        53.15909
263.00        51.77393
263.46        50.41937
263.91        49.09546
264.37        48.24218
264.83        47.76588
265.28        47.48312
265.74         47.2541
266.19        46.67908
266.65        45.77971
267.11        44.63562
267.56         43.3684
268.02         42.2611
268.47        41.33282
268.93        40.52638
269.38        39.75263
269.84         38.9408
270.30        38.05333
270.75        37.14006
271.21        36.22567
271.66        35.27011
272.12        34.31922
272.57        33.36538
273.03        32.50264
273.48        31.82762
273.94        31.36336
274.39        31.03032
274.85        30.75629
275.31        30.36344
275.76        29.80744
276.22        29.17939
276.67        28.52943
277.13         28.0083
277.58         27.6054
278.04        27.30068
278.49        27.01003
278.95        26.69874
279.40        26.30942
279.86        25.89266
280.31        25.43686
280.77        25.00527
281.22        24.58226
281.68        24.21784
282.13        23.85351
282.59        23.48152
283.04        23.08389
283.50        22.69047
283.95        22.38725
284.41        22.32791
284.86        22.50885
285.32        22.88494
285.77        23.27437
286.22        23.42906
286.68        23.33398
287.13        23.03779
287.59        22.76687
288.04        22.76048
288.50        23.03625
288.95        23.61141
289.41        24.34835
289.86        24.56188
290.32        24.13414
290.77        25.05921
291.22        24.21978
291.68        24.35505
292.13        24.57411
292.59        24.92951
293.04        25.43891
293.50        26.20452
293.95        27.24363
294.40        28.50889
294.86        29.88968
295.31        31.19131
295.77        32.36357
296.22        33.43588
296.68        34.51527
297.13        35.76803
297.58        37.24708
298.04        38.90143
298.49         40.6447
298.95        42.36004
299.40        43.99496
299.85        45.60124
300.31        47.21932
300.76        48.88239
301.21        50.61179
301.67        52.40556
302.12        54.24511
302.58        56.21364
303.03        58.28687
303.48        60.49842
303.94        62.78989
304.39        65.01138
304.84        67.13467
305.30         69.1917
305.75        71.22343
306.20        73.41176
306.66        75.76805
307.11        78.16797
307.57        80.48782
308.02        82.46378
308.47        84.08849
308.93         85.4962
309.38        86.78698
309.83        88.18617
310.29        89.79977
310.74        91.48785
311.19        93.20633
311.65         94.8512
312.10        96.35709
312.55        97.76124
313.00        99.03125
313.46        100.1174
313.91        101.0055
314.36        101.7188
314.82        102.3446
315.27        103.0167
315.72        103.7823
316.18        104.6154
316.63         105.457
317.08        106.2037
317.53        106.8208
317.99        107.3336
318.44        107.7799
318.89         108.205
319.35        108.6219
319.80        109.0222
320.25        109.3833
320.70        109.6793
321.16        109.9002
321.61        110.0804
322.06        110.2499
322.51        110.4619
322.97        110.7131
323.42        111.0238
323.87        111.3482
324.32        111.6274
324.78        111.8268
325.23        112.0083
325.68         112.177
326.13        112.3755
326.59          112.59
327.04        112.8568
327.49        113.1536
327.94         113.482
328.39        113.8365
328.85        114.1913
329.30        114.5749
329.75        114.8896
330.20        115.1231
330.66        115.2501
331.11        115.4134
331.56        115.7083
332.01        116.1638
332.46        116.7459
332.92        117.3106
333.37        117.7635
333.82        118.0164
334.27        118.1311
334.72        118.2115
335.17        118.4351
335.63        118.8205
336.08        119.3654
336.53        119.9898
336.98        120.6137
337.43        121.1881
337.88         121.732
338.34        122.1679
338.79         122.433
339.24        122.5049
339.69        122.4266
340.14        122.3156
340.59        122.3645
341.05         122.627
341.50        123.0603
341.95        123.6087
342.40        124.1736
342.85        124.7025
343.30        125.2114
343.75        125.6556
344.20        125.9724
344.66        126.1632
345.11        126.2183
345.56        126.2093
346.01        126.2587
346.46        126.4105
346.91         126.623
347.36        126.8319
347.81        127.0152
348.26        127.1693
348.72         126.998
349.17        127.1245
349.62        127.2043
350.07        127.4161
350.52        127.6829
350.97        127.8994
351.42        127.8921
351.87        127.6116
352.32        127.1262
352.77        126.5094
353.22        125.8676
353.67        125.2503
354.13        124.6603
354.58        124.0884
355.03        123.5735
355.48        123.1204
355.93        122.7228
356.38        122.3637
356.83        122.0065
357.28        121.6181
357.73        121.1819
358.18        120.6561
358.63        119.9897
359.08        119.1871
359.53        118.2817
359.98        117.3197
360.43        116.3667
360.88        115.4468
361.33        114.5467
361.78         113.692
362.23        112.9172
362.68        112.2225
363.13        111.6039
363.58         110.981
364.03        110.2234
364.48        109.3021
364.93        108.2415
365.38        107.1503
365.83        106.2126
366.28        105.4682
366.73         104.863
367.18        104.2708
367.63        103.4913
368.08        102.4869
368.53        101.3359
368.98        100.1593
369.43        99.12775
369.88        98.28146
370.33        97.56606
370.78        96.90581
371.23        96.19055
371.68        95.39507
372.13        94.55925
372.58        93.75356
373.03        93.06905
373.48         92.5127
373.93        92.04594
374.38        91.57761
374.83        90.97436
375.28        90.22346
375.72        89.36763
376.17        88.54181
376.62        87.86337
377.07        87.34253
377.52        86.91155
377.97        86.51091
378.42        86.05908
378.87        85.53549
379.32        84.98524
379.77        84.39336
380.22        83.71656
380.67        82.95184
381.11        82.11118
381.56        81.27637
382.01        80.61745
382.46        80.18765
382.91        79.95134
383.36        79.79605
383.81        79.53819
384.26        79.12854
384.71         78.6116
385.15        78.06393
385.60        77.67419
386.05        77.44688
386.50        77.31585
386.95        77.17519
387.40         76.8731
387.85        76.39175
388.29        75.76086
388.74        75.16861
389.19         74.6664
389.64        74.27203
390.09        73.94987
390.54        73.67567
390.98        73.40176
391.43        73.15057
391.88        72.91844
392.33         72.7114
392.78        72.51162
393.23        72.31075
393.67         72.1334
394.12        72.01779
394.57         71.7153
395.02        71.27898
395.47        71.03454
395.91        70.99046
396.36        70.84262
396.81          70.603
397.26        70.48138
397.71         70.4174
398.15        70.21857
398.60        69.95399
399.05         69.5405
399.50        69.12327
399.95        69.05315
400.39        69.25822
400.84        69.33667
401.29        69.19717
401.74        68.73958
402.18        68.12863
402.63        67.96969
403.08        68.19926
403.53        68.09132
403.97        67.61746
404.42        67.26309
404.87        67.08178
405.32        66.96387
405.76        66.90839
406.21        66.92807
406.66        66.97586
407.11        67.02287
407.55        67.03852
408.00        66.92413
408.45        66.70306
408.90         66.4062
409.34         66.1002
409.79        65.95213
410.24        65.93191
410.68        65.85173
411.13        65.70377
411.58        65.60837
412.03        65.56989
412.47        65.54953
412.92        65.51966
413.37        65.49835
413.81        65.48164
414.26        65.51766
414.71        65.58888
415.15        65.69748
415.60         65.7737
416.05        65.75839
416.49        65.64294
416.94        65.44525
417.39          65.234
417.83        65.10096
418.28        65.07572
418.73         65.1375
419.17        65.23383
419.62        65.28505
420.07         65.2601
420.51        65.17043
420.96        65.09364
421.41        65.06046
421.85        65.04771
422.30        65.18761
422.74         65.3653
423.19        65.26481
423.64        64.96883
424.08        65.12434
424.53        65.61098
424.98        65.79094
425.42        65.63516
425.87        65.42815
426.31        65.29116
426.76        65.39558
427.21        65.69583
427.65        65.82903
428.10        65.76035
428.54        65.80766
428.99         65.9948
429.44        66.15819
429.88        66.22977
430.33        66.14448
430.77        65.91143
431.22        65.91721
431.66        66.11243
432.11        66.12868
432.56        66.01669
433.00        66.06305
433.45        66.07388
433.89        66.15253
434.34        66.35065
434.78        65.58031
435.23        64.94465
435.67        66.20462
436.12        66.24494
436.57        66.78801
437.01         66.8385
437.46        66.71506
437.90        67.07455
438.35        67.28728
438.79        66.96158
439.24        66.88007
439.68        66.88023
440.13         66.8542
440.57        66.81906
441.02        66.94096
441.46        67.16808
441.91        67.35394
442.35        67.40345
442.80        67.55685
443.24        67.75952
443.69        67.85115
444.13        67.81009
444.58        67.76928
445.02        67.72279
445.47         67.6764
445.91        67.62691
446.36        67.61691
446.80        67.64112
447.24        67.61868
447.69        67.59169
448.13        67.83422
448.58        68.09426
449.02         68.1751
449.47        68.02238
449.91        67.92757
450.36        67.92298
450.80        67.75145
451.25        67.51363
451.69        67.53682
452.13         67.7849
452.58        67.87915
453.02        67.77931
453.47        67.72586
453.91        67.70135
454.36        67.56965
454.80        67.33998
455.24        67.12349
455.69         66.9617
456.13        66.75358
456.58        66.58188
457.02        66.51437
457.46        66.70978
457.91         66.5791
458.35        66.33488
458.79         66.1948
459.24        66.19677
459.68        66.18191
460.13        66.19303
460.57        66.07362
461.01         65.8154
461.46        66.33701
461.90        65.80614
462.34        65.93999
462.79        65.65611
463.23        65.15385
463.68        65.93149
464.12        65.73466
464.56        65.18659
465.01        65.17015
465.45        65.55082
465.89         65.5577
466.34        65.24153
466.78        65.17575
467.22        65.31808
467.67        65.34521
468.11        64.72998
468.55        64.61964
468.99        64.81545
469.44         64.8063
469.88        64.57346
470.32        64.40021
470.77        64.31792
471.21        64.22813
471.65        64.13681
472.10        64.07696
472.54        64.02553
472.98        63.97684
473.42        63.93012
473.87         63.8662
474.31        63.77627
474.75        63.81084
475.20        63.92521
475.64        63.91633
476.08        63.80101
476.52         63.7173
476.97          63.638
477.41        63.64171
477.85         63.7607
478.29        63.33257
478.74        63.42084
479.18        63.55613
479.62        63.53425
480.06        63.60768
480.50        63.65535
480.95        63.63063
481.39        63.45403
481.83        63.77946
482.27        63.91626
482.72        63.58272
483.16        63.70287
483.60        64.03788
484.04        64.10817
484.48        63.81429
484.93        63.57162
485.37        63.76535
485.81        63.61018
486.25        63.01196
486.69        64.55386
487.14        64.69525
487.58        64.24282
488.02        63.50676
488.46        63.44704
488.90        63.70763
489.34        63.83438
489.79        63.27203
490.23        63.58929
490.67        63.49307
491.11        63.51561
491.55        63.50233
491.99        63.46824
492.43         63.4378
492.88        63.39375
493.32        63.36106
493.76        63.31528
494.20        63.31369
494.64        63.38158
495.08        63.20668
495.52        63.29066
495.96        63.35261
496.41        63.46654
496.85        63.38474
497.29         63.1254
497.73        63.15181
498.17        63.12142
498.61        63.24149
499.05        63.32121
499.49        63.09856
499.93        62.73037
500.37         62.7425
500.82        63.08619
501.26        63.46603
501.70        63.71773
502.14        63.26516
502.58        62.77562
503.02        62.49688
503.46        62.58536
503.90        62.71419
504.34        62.78462
504.78        62.81527
505.22        62.79976
505.66        62.74819
506.10        62.67802
506.54        62.71751
506.98        62.90153
507.42        62.63007
507.86        62.92688
508.30        62.92269
508.74        62.85092
509.18        62.75024
509.62        62.63206
510.06        62.56315
510.50        62.53055
510.94        62.45927
511.38         62.3563
511.82        62.30085
512.26        62.29294
512.70        62.28365
513.14        62.27146
513.58        62.27265
514.02        62.28445
514.46        62.30514
514.90        62.30394
515.34         62.2691
515.78        62.20419
516.22        62.08949
516.66        61.82063
517.10        62.06065
517.54         61.9585
517.98        62.15754
518.42        62.34113
518.86         62.4323
519.30        62.40601
519.74        62.25812
520.18        62.07798
520.62        62.08331
521.06        62.25325
521.50        62.32038
521.93         62.2665
522.37        62.26187
522.81        62.30259
523.25        62.28615
523.69         62.2038
524.13        62.09739
524.57        61.97636
525.01        61.82957
525.45        61.70739
525.89         61.6906
526.32        61.78737
526.76        61.97921
527.20        62.18962
527.64         62.2964
528.08        62.26994
528.52        62.14722
528.96         61.9955
529.40         61.9134
529.83        61.92501
530.27        62.02916
530.71        62.15887
531.15        62.20738
531.59        62.15208
532.03        62.03056
532.46         61.8967
532.90        61.84764
533.34        61.89595
533.78         62.0073
534.22        62.11511
534.66        62.11882
535.09        61.99375
535.53        61.80329
535.97        61.59731
536.41        61.46916
536.85        61.44474
537.28        61.49033
537.72        61.58238
538.16        61.68422
538.60        61.77216
539.04        61.85554
539.47        61.89831
539.91         61.8967
540.35        61.83645
540.79        61.72931
541.22        61.60614
541.66        61.53397
542.10        61.52585
542.54        61.56362
542.97         61.6232
543.41        61.69587
543.85        61.76148
544.29        61.83159
544.72        61.87951
545.16        61.89818
545.60        61.87392
546.04        61.79967
546.47        61.71838
546.91        61.71267
547.35        61.78088
547.79        61.89944
548.22        61.99142
548.66        61.94545
549.10        61.78986
549.53        61.69235
549.97        61.69714
550.41        61.65336
550.84        61.56521
551.28        61.61497
551.72        61.80038
552.15         61.5176
552.59        61.85558
553.03        61.52045
553.46        61.62963
553.90        61.56551
554.34        61.56245
554.77        61.57478
555.21        61.60455
555.65        61.64221
556.08        61.66293
556.52        61.71655
556.96        61.77901
557.39        61.77673
557.83        61.74371
558.27        61.77274
558.70         61.8502
559.14        61.87503
559.57        61.82952
560.01        61.82853
560.45        61.84524
560.88        61.77371
561.32        61.68398
561.75        61.61317
562.19        61.61677
562.63        61.73429
563.06        61.89596
563.50         61.8791
563.93         61.6933
564.37        61.59423
564.80          61.593
565.24        61.66153
565.68        61.76671
566.11        61.82685
566.55        61.84912
566.98        61.89566
567.42        61.96338
567.85        61.93945
568.29        61.90065
568.72        61.88726
569.16        61.91341
569.60        62.17374
570.03        62.09004
570.47        62.16737
570.90         62.1853
571.34        62.28871
571.77        62.50484
572.21        62.32208
572.64        62.32282
573.08        62.32404
573.51        62.01217
573.95          62.407
574.38        62.35032
574.82        62.65448
575.25        62.89153
575.69        62.50263
576.12        62.02429
576.56        62.31079
576.99        62.64356
577.42        62.62239
577.86        62.80388
578.29        62.95166
578.73        63.32042
579.16        62.65929
579.60        61.93209
580.03        62.53067
580.47        62.59762
580.90         62.4287
581.33        62.69849
581.77        63.00101
582.20        63.11175
582.64        62.94212
583.07         62.6423
583.51        62.53247
583.94        62.51572
584.37        62.36498
584.81        62.13301
585.24        62.09995
585.68        62.68452
586.11        62.41845
586.54        62.67182
586.98        62.52853
587.41        62.39257
587.85        62.89721
588.28         62.4576
588.71        62.71064
589.15        62.34143
589.58        62.15975
590.01         62.0814
590.45        61.73864
590.88        62.31453
591.31        62.01347
591.75        61.95183
592.18        61.88133
592.61        61.97945
593.05        62.53857
593.48        62.63562
593.91        62.48165
594.35        62.33169
594.78          62.262
595.21        62.04243
595.65        62.15559
596.08        62.41773
596.51        62.30269
596.94        62.08843
597.38        61.98057
597.81        62.14974
598.24        62.17807
598.68        61.89032
599.11        62.35034
599.54        62.39433
599.97        62.22241
600.41         62.3121
600.84        62.41209
601.27        62.54367
601.70        62.20944
602.14        62.14693
602.57        61.95013
603.00        61.85065
603.43        62.25426
603.87        62.60444
604.30        62.49642
604.73        62.28732
605.16        62.15372
605.60        62.21464
606.03         62.3177
606.46        62.47804
606.89        62.17711
607.32        61.95469
607.76        62.69453
608.19        62.53873
608.62        62.22138
609.05        62.97952
609.48        62.52417
609.92        62.64369
610.35        62.32606
610.78        63.04599
611.21        62.22847
611.64        62.52833
612.07        62.33546
612.50        62.34754
612.94        62.32921
613.37        62.30018
613.80        62.34567
614.23        62.40965
614.66        62.35456
615.09        62.18768
615.52        62.13697
615.96         62.2048
616.39        62.12156
616.82        61.85439
617.25        62.05693
617.68         61.7237
618.11         61.7591
618.54        61.97341
618.97        61.96677
619.40        61.78693
619.84        61.62757
620.27        61.69692
620.70        61.69534
621.13        61.67727
621.56        61.83251
621.99        62.11512
622.42        62.19883
622.85        62.04332
623.28        62.08557
623.71        61.93026
624.14        62.08462
624.57        62.03268
625.00        62.32834
625.43        61.91093
625.86        61.91692
626.29         62.0952
626.72        61.90869
627.15        61.91678
627.58        61.92445
628.01        62.14836
628.44        61.77931
628.87        61.55273
629.30        61.99736
629.73        61.64882
630.16        61.59571
630.59        61.42386
631.02        61.64801
631.45         61.4015
631.88        61.45482
632.31        61.57603
632.74        61.42393
633.17        61.60928
633.60        61.59132
634.03        61.55678
634.46        61.54533
634.89         61.4739
635.32        61.44495
635.75        61.42908
636.18        61.43064
636.61        61.43897
637.04        61.43906
637.47        61.42845
637.89         61.4203
638.32        61.41914
638.75        61.42963
639.18        61.44862
639.61        61.51973
640.04        61.64174
640.47        61.54552
640.90        61.65068
641.33        61.62047
641.76        61.58928
642.18        61.56598
642.61        61.54558
643.04        61.52756
643.47        61.50769
643.90        61.49501
644.33        61.48917
644.76         61.4779
645.18        61.46308
645.61        61.46799
646.04        61.47892
646.47         61.4358
646.90         61.3536
647.33        61.30959
647.75        61.30539
648.18        61.32975
648.61        61.38172
649.04        61.40005
649.47        61.36353
649.89         61.5947
650.32        61.43371
650.75        61.56188
651.18        61.72252
651.61        61.60958
652.03        61.27649
652.46         61.1542
652.89        61.29942
653.32        61.32474
653.74        61.22306
654.17        61.47845
654.60        61.62102
655.03        61.54647
655.46        61.22632
655.88        61.81813
656.31        62.94743
656.74        66.09212
657.16        64.63174
657.59        63.12067
658.02        61.49634
658.45        61.40222
658.87         61.8554
659.30        61.75335
659.73        61.50476
660.15        61.39252
660.58        61.28563
661.01        61.64621
661.44        62.15662
661.86         62.1061
662.29        61.55367
662.72        61.29567
663.14         61.4301
663.57        61.57937
664.00        61.68399
664.42        61.76735
664.85        61.81545
665.27        61.74606
665.70         61.7704
666.13        61.72126
666.55        61.67241
666.98        61.62625
667.41        61.57743
667.83        61.52105
668.26        61.46305
668.69        61.35015
669.11        61.21188
669.54        61.26646
669.96        61.55824
670.39        61.32898
670.82        61.95438
671.24        61.77636
671.67        61.34142
672.09        61.34901
672.52        61.76688
672.94        61.84991
673.37        61.58627
673.80        61.44428
674.22        61.46912
674.65        61.45365
675.07        61.42341
675.50         61.4472
675.92        61.51122
676.35        61.55359
676.77        61.56406
677.20        61.56543
677.62        61.59909
678.05         61.6558
678.47        61.72085
678.90        62.04586
679.32        62.09642
679.75        62.17478
680.17        62.11626
680.60        62.02448
681.02        61.92479
681.45        61.71774
681.87        61.50384
682.30         61.5779
682.72        61.89066
683.15         62.0554
683.57        62.00286
684.00        62.00111
684.42        61.76325
684.85         61.7144
685.27        61.76273
685.70        61.83699
686.12        61.88848
686.54         61.9159
686.97         61.9038
687.39        61.88873
687.82        61.87623
688.24        61.85192
688.66        61.80078
689.09        61.94686
689.51        61.84747
689.94        61.99186
690.36        62.20507
690.78         62.3437
691.21        62.37239
691.63        62.30598
692.06        62.19063
692.48        62.10975
692.90        62.09251
693.33        62.08706
693.75        62.11011
694.17        62.18813
694.60         62.2776
695.02        62.43748
695.44        62.37834
695.87        62.32592
696.29        62.26404
696.71         62.1544
697.14        62.06225
697.56        62.34053
697.98        62.86887
698.41        62.83217
698.83        62.82019
699.25        62.54886
699.68        62.29378
700.10        62.11245
700.52        62.05033
700.94        62.08398
701.37        62.14614
701.79         62.1859
702.21        62.16175
702.64        62.10506
703.06        62.04829
703.48        62.04678
703.90        62.11437
704.33        62.22117
704.75        62.33612
705.17        62.39448
705.59        62.38034
706.01        62.31166
706.44        62.22994
706.86        62.21421
707.28        62.26892
707.70        62.39215
708.12        62.54267
708.55        62.59624
708.97        62.55395
709.39        62.56475
709.81        62.62831
710.23         62.6395
710.66        62.60147
711.08        62.58793
711.50        62.59851
711.92        62.61974
712.34         62.6517
712.76        62.69477
713.19        62.73065
713.61        62.77311
714.03         62.7963
714.45        62.81864
714.87        62.83661
715.29        62.80219
715.71        62.70919
716.13        62.72964
716.56        62.58617
716.98         62.6094
717.40        62.70613
717.82        62.86346
718.24        63.02663
718.66        63.11049
719.08         63.0964
719.50        63.00754
719.92        62.89206
720.34        62.82552
720.76        62.83107
721.19        62.88093
721.61        62.96431
722.03        63.03355
722.45        63.07517
722.87         63.1031
723.29        63.13559
723.71        63.20037
724.13        63.30093
724.55        63.41974
724.97        63.53278
725.39        63.60504
725.81         63.6271
726.23        63.61152
726.65        63.57209
727.07        63.53566
727.49        63.51363
727.91        63.48623
728.33        63.46098
728.75        63.48375
729.17        63.53994
729.59        63.55259
730.01        63.52602
730.43        63.52941
730.85        63.56421
731.27        63.58015
731.69         63.5852
732.10         63.5561
732.52        63.68748
732.94        63.58793
733.36         63.3774
733.78        63.31383
734.20         63.4231
734.62        63.56061
735.04        63.67715
735.46        63.75977
735.88        63.79644
736.30        63.79068
736.72        63.75473
737.13        63.77955
737.55        63.83767
737.97         63.7826
738.39        63.66323
738.81        63.83727
739.23         64.2114
739.65        64.19316
740.06         63.7998
740.48        63.64533
740.90        63.71945
741.32        63.71569
741.74        63.63783
742.16         63.6522
742.57        63.77389
742.99        63.93492
743.41        64.09711
743.83        64.17985
744.25        64.16263
744.67         64.0649
745.08        63.95456
745.50        63.90147
745.92        63.94446
746.34        64.06659
746.75        64.20172
747.17        64.23789
747.59        64.15679
748.01        63.96194
748.42        63.75948
748.84        63.75866
749.26        63.95918
749.68        64.20593
750.09        64.39831
750.51        64.41079
750.93        64.26729
751.35        64.18381
751.76        64.19778
752.18        64.17697
752.60        64.13417
753.01        64.19567
753.43        64.27995
753.85        64.23589
754.27        64.04574
754.68         63.7603
755.10          63.487
755.52        63.36832
755.93        63.43759
756.35        63.65691
756.77        63.94051
757.18        64.10766
757.60        64.11102
758.02        64.04428
758.43        64.02809
758.85        63.76329
759.26        64.28662
759.68        64.27479
760.10        63.96744
760.51        63.64384
760.93         64.0597
761.34        64.19933
761.76        64.26823
762.18        64.33287
762.59        64.36783
763.01        64.61697
763.42         64.1973
763.84         64.3364
764.26        64.43113
764.67        64.49247
765.09        64.46534
765.50        64.84398
765.92        65.45696
766.33         65.3613
766.75         64.6435
767.16        64.39031
767.58        64.63602
768.00        64.88667
768.41         65.0538
768.83        64.94296
769.24        64.58898
769.66        64.81104
770.07        64.71065
770.49        64.80154
770.90        64.77633
771.32        64.59563
771.73         64.3481
772.15        64.28786
772.56        64.46039
772.97        64.71862
773.39        64.95187
773.80        65.11351
774.22        65.13634
774.63        65.05796
775.05        64.93232
775.46         64.9017
775.88         64.9771
776.29        65.13614
776.70        65.30033
777.12        65.35706
777.53        65.29291
777.95        65.13902
778.36        64.94756
778.77        64.79205
779.19        64.70932
779.60        64.69351
780.02        64.72196
780.43        64.82602
780.84        65.00571
781.26        65.08436
781.67        65.12213
782.09        65.51946
782.50        66.07726
782.91        66.00333
783.33         65.3806
783.74        65.14407
784.15        65.34435
784.57        65.48808
784.98        65.52721
785.39        65.57967
785.81        65.62714
786.22        65.63544
786.63        65.64327
787.04        65.70899
787.46         65.8487
787.87        66.02616
788.28        66.18727
788.70        66.22177
789.11        66.09634
789.52        65.90199
789.93        65.72941
790.35        65.61701
790.76        65.65325
791.17        66.01089
791.58        66.54868
792.00         66.8098
792.41        66.74689
792.82        66.57185
793.23        66.42028
793.65        66.30155
794.06        66.30447
794.47        66.67864
794.88        67.28793
795.29        67.19141
795.71        67.36555
796.12        67.11622
796.53        66.83031
796.94        66.73228
797.35        66.82054
797.76        66.74792
798.18        66.50748
798.59        66.39463
799.00        66.41528
799.41        66.41407
799.82        66.37334
800.23        66.34592
800.64        66.32823
801.06        66.27603
801.47        66.25479
801.88        66.29885
802.29        66.41709
802.70        66.60558
803.11        66.80323
803.52        66.90241
803.93        66.87899
804.34        66.75686
804.75        66.63689
805.17        66.66794
805.58        66.90266
805.99        67.29686
806.40        67.71911
806.81        67.88356
807.22        67.76231
807.63         67.5692
808.04        67.39469
808.45        67.26688
808.86        67.22918
809.27        67.30308
809.68        67.45045
810.09        67.56658
810.50        67.61741
810.91        67.64463
811.32        67.62325
811.73        67.50513
812.14         67.2952
812.55        67.00526
812.96        66.72133
813.37        66.59722
813.78        66.67007
814.19        66.89573
814.60        67.18214
815.01        67.38374
815.42        67.45923
815.83        67.44397
816.24        67.38094
816.65        67.35388
817.05        67.39723
817.46        67.45142
817.87        67.51824
818.28        67.56338
818.69        67.58314
819.10        67.59925
819.51        67.62708
819.92        67.69942
820.33        67.81678
820.74        67.91023
821.14        67.97555
821.55        68.12122
821.96        68.29153
822.37        68.29157
822.78        68.10245
823.19        67.88919
823.60        67.67419
824.00        67.36182
824.41        67.02579
824.82        66.91838
825.23        67.07915
825.64        67.45038
826.04        67.89136
826.45        68.13291
826.86        68.12422
827.27        67.93466
827.68        67.70109
828.08        67.69244
828.49        67.90694
828.90        68.29662
829.31        68.75037
829.72        69.00838
830.12        69.01086
830.53        69.16003
830.94        68.82987
831.35         68.5677
831.75        68.23531
832.16        67.82626
832.57         67.4593
832.97        67.32758
833.38        67.46241
833.79        67.79981
834.20        68.22839
834.60        68.57207
835.01        68.77275
835.42        68.87422
835.82        68.89124
836.23        68.80853
836.64        68.66434
837.04        68.47163
837.45        68.27805
837.86        68.22565
838.26        68.35364
838.67        68.61642
839.08        68.94851
839.48        69.22002
839.89        69.37807
840.29        69.44999
840.70        69.47166
841.11         69.5078
841.51        69.59184
841.92        69.66539
842.33        69.70762
842.73        69.68675
843.14        69.55795
843.54        69.38271
843.95        69.20547
844.35        69.11384
844.76        69.12501
845.17        69.22196
845.57        69.38863
845.98        69.55992
846.38         69.7373
846.79        69.90195
847.19        70.07373
847.60        70.20811
848.00        70.33051
848.41        70.40561
848.81         70.4728
849.22         70.5324
849.62        70.61922
850.03        70.68171
850.43        70.73854
850.84        70.71097
851.24        70.63754
851.65         70.4818
852.05        70.30385
852.46        70.10745
852.86        69.92278
853.27        69.80252
853.67        69.68771
854.07        69.63211
854.48        69.60239
854.88        69.60492
855.29        69.61308
855.69        69.74692
856.10        69.91542
856.50        70.17425
856.90        70.35793
857.31        70.24622
857.71        69.86092
858.12        69.21632
858.52        68.51447
858.92        68.03246
859.33        67.84658
859.73        67.93624
860.13        68.17162
860.54        68.32224
860.94        68.37354
861.34        68.34976
861.75        68.27469
862.15        68.26703
862.55        68.31625
862.96        68.35735
863.36        68.38317
863.76        68.34511
864.17        68.22713
864.57        68.08165
864.97        67.89803
865.38        67.63831
865.78        67.35144
866.18        67.04214
866.58        66.80673
866.99        66.79045
867.39        67.05414
867.79        67.52507
868.19         68.0506
868.60        68.32423
869.00        68.36315
869.40        68.41158
869.80         68.4646
870.21        68.33626
870.61        68.09607
871.01        67.83142
871.41        67.59813
871.81        67.40132
872.22         67.2662
872.62        67.21416
873.02        67.21305
873.42        67.35348
873.82        67.45182
874.22        67.05235
874.63        66.46152
875.03        66.29041
875.43        66.62098
875.83        68.05516
876.23        67.96542
876.63        67.60722
877.03        66.68506
877.44        64.69449
877.84        163.2301
878.24        65.35619
878.64        66.11698
879.04        67.63019
879.44        68.21735
879.84        65.21821
880.24         69.6151
880.64        69.55982
881.04        67.13775
881.44        65.41801
881.84        64.98803
882.24        65.88133
882.65         67.2992
883.05        67.64976
883.45        66.62485
883.85        65.12508
884.25        63.76651
884.65        63.15835
885.05        63.49415
885.45        64.46512
885.85        65.64152
886.25        66.43637
886.65        66.68044
887.05         66.5739
887.45        66.20078
887.85        65.69718
888.25         65.1673
888.65        64.55675
889.04        64.05231
889.44        63.98683
889.84        64.39279
890.24        65.16684
890.64         66.0191
891.04        66.50111
891.44        66.52016
891.84        66.21357
892.24        65.74583
892.64        65.41824
893.04        65.33908
893.44        65.40051
893.83        65.59481
894.23        65.88589
894.63        66.24984
895.03        66.72234
895.43        67.17194
895.83         67.3637
896.23         67.2614
896.63        66.91595
897.02        66.53341
897.42        66.49541
897.82        66.83227
898.22        67.43161
898.62        68.04147
899.01        68.25718
899.41        67.96397
899.81        67.31626
900.21         66.5478
900.61        66.03931
901.00        65.89744
901.40        66.07191
901.80        66.43086
902.20         66.6441
902.59        66.61375
902.99        66.66663
903.39        66.98021
903.79        66.28177
904.18        67.05057
904.58        67.24726
904.98        67.42036
905.38        67.24622
905.77        66.69697
906.17        65.91009
906.57        65.11468
906.96        64.77284
907.36        64.99737
907.76        65.68143
908.15        66.60789
908.55        67.26086
908.95        67.52057
909.34        67.42944
909.74        67.23292
910.14        67.29392
910.53        67.68574
910.93        68.29212
911.33        68.75242
911.72        68.50816
912.12        67.51075
912.52        65.99093
912.91        64.47768
913.31        63.86854
913.70        64.32328
914.10        65.55975
914.49        67.07417
914.89        67.91574
915.29        67.82667
915.68        67.07475
916.08        66.04559
916.47        65.30705
916.87        65.08201
917.26        65.18863
917.66        65.48544
918.05          65.781
918.45         65.9751
918.84        66.15038
919.24        66.35876
919.64        66.71128
920.03        67.21507
920.42         67.7888
920.82        68.24332
921.21        68.32371
921.61        68.01596
922.00        67.46082
922.40        66.97387
922.79        66.93377
923.19        67.07517
923.58        68.06948
923.98        69.95769
924.37        70.14675
924.77        67.31853
925.16        74.00023
925.55        67.77435
925.95        67.77763
926.34        67.63025
926.74        67.07167
927.13        66.04652
927.52        65.58738
927.92        66.08402
928.31        66.93156
928.70         67.8943
929.10        68.56146
929.49        68.85976
929.89        68.91325
930.28        68.74049
930.67        68.29262
931.07        67.64014
931.46        66.70042
931.85        65.79791
932.24        65.89232
932.64        67.09574
933.03        68.59427
933.42        69.51689
933.82        71.66542
934.21        70.00594
934.60        68.50354
934.99        66.98856
935.39        66.70865
935.78        67.74072
936.17        70.26922
936.56        76.64169
936.96        70.79211
937.35        74.13229
937.74        70.94732
938.13         68.3844
938.53        66.34504
938.92        65.64318
939.31        66.67304
939.70        68.22318
940.09        69.06132
940.49        68.89249
940.88        68.18699
941.27        67.27541
941.66        66.75127
942.05        66.86025
942.44        67.32722
942.84        67.90944
943.23         68.3978
943.62        68.68663
944.01        68.83462
944.40        68.96017
944.79         69.2318
945.18        69.66241
945.57        70.17734
945.97        70.50071
946.36        70.32955
946.75         69.5815
947.14        68.38017
947.53        67.11479
947.92        66.45309
948.31        66.57968
948.70        67.30421
949.09        68.22924
949.48        68.72651
949.87        68.63523
950.26        68.14211
950.65        67.51242
951.04        67.18109
951.43        67.28014
951.82         67.6599
952.21         68.1397
952.60         68.4316
952.99        68.43331
953.38        68.23875
953.77        67.98273
954.16        67.84108
954.55        67.86268
954.94        68.01129
955.33        68.15469
955.72        68.07284
956.11         67.7207
956.50        67.16305
956.89        66.65561
957.28        66.59219
957.66        67.06756
958.05        67.88369
958.44        68.69845
958.83        68.98686
959.22          68.631
959.61        67.74993
960.00        66.68629
960.39        66.11205
960.78        66.24889
961.16        66.92851
961.55        67.68097
961.94        67.96296
962.33        67.66086
962.72        66.91338
963.11        66.06586
963.49         65.8101
963.88        66.33959
964.27        67.40009
964.66        68.47833
965.04        68.89755
965.43        68.47813
965.82        67.46044
966.21        66.26614
966.60        65.63691
966.98        65.80296
967.37        66.54584
967.76        67.47025
968.15        67.92239
968.53        67.74891
968.92        67.14353
969.31         66.4471
969.69        66.19575
970.08        66.50389
970.47        67.16595
970.86        67.96582
971.24        68.55533
971.63        68.78106
972.02        68.78271
972.40        68.60233
972.79        68.19556
973.17        67.65913
973.56        67.00297
973.95        66.43076
974.33        66.31349
974.72        66.73025
975.11        67.55986
975.49        68.65137
975.88        69.65894
976.26         70.5001
976.65        71.14101
977.04        71.53646
977.42        71.60709
977.81        71.32436
978.19        70.67919
978.58         70.0059
978.96        69.84908
979.35        70.32408
979.74        71.24075
980.12        72.26735
980.51        72.79837
980.89        72.85054
981.28         72.4847
981.66        71.88522
982.05        71.54128
982.43        71.60944
982.82        71.99591
983.20        72.40903
983.59        72.36276
983.97        71.81023
984.35        70.84781
984.74        69.83378
985.12        69.47802
985.51        69.89793
985.89        70.92388
986.28        71.99793
986.66         72.3791
987.04        71.97552
987.43        70.92089
987.81        69.47462
988.20         69.5813
988.58        71.64011
988.96        72.66386
989.35        71.71751
989.73        77.62022
990.12        74.63609
990.50        74.78825
990.88        74.08676
991.27        73.34615
991.65        72.63988
992.03        72.06504
992.42        71.67335
992.80        71.03292
993.18        70.10812
993.56         69.0917
993.95        68.28468
994.33        68.07836
994.71        68.55367
995.10        69.55444
995.48        70.70422
995.86         71.3825
996.24        71.41881
996.63        70.90223
997.01         70.2801
997.39        70.07847
997.77        70.41096
998.15        71.09199
998.54        71.85087
998.92        72.15907
999.30        71.92665
999.68        71.33224
1000.06        70.60724
1000.45          70.172
1000.83        70.31002
1001.21        70.85069
1001.59        71.67064
1001.97        72.58688
1002.35        73.46094
1002.73        74.26809
1003.12        74.94912
1003.50        75.49544
1003.88        75.90627
1004.26        76.20551
1004.64        76.31326
1005.02        76.09685
1005.40        75.52631
1005.78        74.61954
1006.16        73.67084
1006.54        73.13615
1006.92        73.14932
1007.30        73.69733
1007.69        74.32327
1008.07        74.41688
1008.45        73.84011
1008.83        72.71295
1009.21        71.71729
1009.59        72.20527
1009.97        74.30775
1010.35        77.21244
1010.73        79.87563
1011.11        81.46072
1011.49        82.00627
1011.86        81.54774
1012.24        80.16422
1012.62        80.97346
1013.00        81.72923
1013.38        81.99834
1013.76         80.4369
1014.14         83.7121
1014.52        88.38551
1014.90        81.09987
1015.28        81.21904
1015.66        81.92651
1016.04        78.35518
1016.41        78.98827
1016.79        78.64782
1017.17        78.30692
1017.55        77.29533
1017.93        75.98125
1018.31        75.18979
1018.69        75.71397
1019.06        77.68651
1019.44        80.58187
1019.82        83.24639
1020.20         84.2312
1020.58         83.2406
1020.95        80.27223
1021.33        76.12617
1021.71        73.70325
1022.09        74.61755
1022.46         77.6536
1022.84        80.81276
1023.22        82.56724
1023.60        82.91995
1023.97         82.3764
1024.35        81.49537
1024.73        81.30224
