SpectraSmart Spectrum 2.9.0.0
--------- Device Information -----------
Spectrum Name :  反射率_0
Saving Time :  2024/04/21 00:01:55
Spectro-Module Model Name : SE2030-DUVN
Spectro-Module Serial Number : OS361AC55029948
Wavelength Start : 200
Wavelength End : 1025
Wavelength Unit : Wavelength(nm)
Spectrum Unit : Reflectance(%)
-----------Spectrum Setting ------------
Integration Time : 20ms
Average : 10
Boxcar : 0
Background removal :  enabled
linearity correction :  enabled
SC :  disabled
Intensity correction :  disabled
DWT denoise :  enabled
savitzky-golay :  disabled
FFT :  disabled
Running average :  disabled
Kalman :  disabled
High pass :  disabled
---------------BEGIN--------------------
Wavelength(nm)             Reflectance(%)
200.29               0
200.75       -4.092567
201.21        30.54882
201.67        44.84596
202.13         45.3712
202.58        36.83421
203.04        20.70322
203.50      -0.4670348
203.96       -15.87707
204.42       -18.94871
204.88        -13.1525
205.34        -3.24763
205.80        3.744981
206.26        6.555609
206.72        9.660064
207.18         12.6273
207.64        13.43192
208.10        12.86271
208.55        9.729054
209.01        13.45027
209.47        33.05869
209.93        53.88211
210.39        68.78364
210.85        77.70921
211.31        81.55204
211.77        81.77855
212.23        78.76997
212.69        70.21346
213.14        51.63366
213.60        11.07571
214.06       -111.7176
214.52       -415.0354
214.98       -184.6571
215.44       -28.79312
215.90        26.05564
216.36        45.24649
216.81        48.96787
217.27          41.784
217.73       -2.034842
218.19        531.8192
218.65         241.783
219.11       -364.1697
219.57        30.71406
220.02        54.79989
220.48        57.72759
220.94         52.5555
221.40        37.02988
221.86       0.6334598
222.32       -24.61105
222.77        5.981418
223.23        33.81545
223.69        48.36698
224.15        54.00803
224.61        55.21372
225.06        54.61853
225.52        52.64054
225.98        49.20452
226.44        44.68531
226.90        38.32389
227.36        33.27621
227.81        35.50007
228.27        42.74937
228.73         50.6687
229.19        55.83945
229.65        56.42095
230.10        53.06009
230.56        46.99134
231.02        39.16241
231.48         33.8455
231.93        34.13597
232.39        38.31305
232.85        43.46918
233.31        47.29383
233.77        49.87273
234.22        52.42471
234.68        54.36072
235.14        54.36393
235.60        52.32004
236.05        47.89571
236.51        42.58903
236.97        44.09629
237.43        53.60704
237.88        62.71208
238.34        68.34698
238.80        82.89218
239.26        79.22321
239.71        75.94331
240.17        66.80688
240.63        57.51519
241.08         53.3737
241.54        56.56957
242.00        66.16555
242.46        72.79485
242.91        73.78709
243.37        70.04766
243.83        63.17059
244.28        59.22521
244.74        61.80994
245.20        67.42807
245.66         71.6132
246.11        70.07505
246.57        62.45115
247.03        50.30847
247.48        35.83588
247.94        22.90621
248.40        11.55038
248.85       -5.396059
249.31       -36.69881
249.77       -16.52877
250.22        45.86615
250.68        59.57856
251.14        62.07499
251.59        63.29585
252.05         65.3344
252.51        68.53278
252.96        73.43078
253.42        80.26717
253.88        87.08349
254.33        92.46843
254.79        97.33577
255.25        101.0725
255.70        103.0831
256.16        104.2908
256.62        104.6203
257.07         104.119
257.53        103.7089
257.99        103.0325
258.44         101.666
258.90        100.2673
259.35        98.25867
259.81        96.47752
260.27        94.80744
260.72        93.27808
261.18         92.3988
261.63        91.49593
262.09        90.84571
262.55        89.97799
263.00        88.71291
263.46        87.46565
263.91        86.02695
264.37        84.81436
264.83        83.72537
265.28        82.61432
265.74        81.60132
266.19        80.43696
266.65        79.22009
267.11         77.9236
267.56         76.5335
268.02          75.174
268.47        73.79925
268.93        72.42957
269.38        71.04624
269.84        69.72019
270.30        68.43879
270.75        67.19994
271.21        65.97354
271.66        64.60899
272.12        63.15171
272.57        61.61538
273.03        60.17583
273.48        58.98322
273.94        58.09523
274.39        57.37624
274.85        56.73447
275.31        55.92226
275.76        54.87708
276.22        53.74971
276.67        52.59113
277.13        51.62315
277.58        50.80983
278.04        50.14175
278.49        49.50121
278.95        48.88057
279.40        48.18796
279.86        47.51116
280.31        46.77612
280.77         46.0206
281.22        45.20333
281.68        44.40499
282.13        43.62181
282.59        42.98131
283.04        42.44909
283.50        42.03244
283.95        41.68023
284.41        41.38176
284.86        41.10361
285.32        40.90041
285.77        40.70998
286.22        40.49174
286.68        40.26844
287.13        39.99444
287.59        39.81858
288.04        39.84283
288.50        40.06287
288.95        40.49375
289.41        41.00887
289.86        41.00628
290.32         40.4142
290.77        40.81538
291.22        39.83478
291.68        39.75315
292.13        39.88452
292.59        40.24992
293.04        40.81397
293.50        41.58884
293.95          42.555
294.40        43.68869
294.86        44.91193
295.31        46.08206
295.77        47.16447
296.22        48.16575
296.68          49.152
297.13        50.21973
297.58        51.41051
298.04        52.68807
298.49        54.02677
298.95        55.41284
299.40        56.80764
299.85         58.2331
300.31        59.64166
300.76        60.91965
301.21        62.07288
301.67         63.1584
302.12        64.25518
302.58         65.6081
303.03        67.21133
303.48        69.04005
303.94        70.95536
304.39        72.67921
304.84        74.16223
305.30        75.49931
305.75        76.77343
306.20        78.23245
306.66        79.91942
307.11        81.68883
307.57        83.43825
308.02        84.92956
308.47        86.14572
308.93        87.20373
309.38        88.15213
309.83        89.13804
310.29        90.25006
310.74        91.38144
311.19        92.52529
311.65        93.63882
312.10        94.68314
312.55         95.6826
313.00        96.61813
313.46        97.45857
313.91        98.18421
314.36        98.80816
314.82        99.37377
315.27        99.94467
315.72        100.5465
316.18        101.1646
316.63        101.7661
317.08         102.297
317.53        102.7403
317.99        103.1104
318.44        103.4319
318.89        103.7298
319.35        104.0102
319.80        104.2688
320.25        104.5016
320.70        104.7084
321.16        104.8824
321.61         105.052
322.06        105.2051
322.51        105.3284
322.97        105.4085
323.42        105.4814
323.87        105.5697
324.32        105.7309
324.78        105.9538
325.23        106.2573
325.68        106.5634
326.13        106.7763
326.59        106.8458
327.04        106.8502
327.49        106.8255
327.94        106.8708
328.39        107.0221
328.85        107.2309
329.30        107.5182
329.75        107.7818
330.20        107.9977
330.66        108.1461
331.11        108.3432
331.56        108.6408
332.01         109.056
332.46        109.5665
332.92        110.0359
333.37        110.3821
333.82        110.5332
334.27        110.5435
334.72        110.5575
335.17        110.8172
335.63        111.3498
336.08        112.1331
336.53        113.0066
336.98        113.7498
337.43        114.2798
337.88        114.6518
338.34        114.8795
338.79        115.0542
339.24        115.1965
339.69        115.2964
340.14        115.4001
340.59        115.5867
341.05        115.8798
341.50        116.2817
341.95        116.7641
342.40        117.2691
342.85        117.7666
343.30        118.2557
343.75        118.7141
344.20        119.1199
344.66        119.4688
345.11        119.7297
345.56        119.9175
346.01        120.0634
346.46        120.1859
346.91        120.2767
347.36        120.3067
347.81        120.2912
348.26        120.2477
348.72        119.9609
349.17        119.9175
349.62         119.909
350.07        120.0802
350.52        120.3763
350.97        120.6751
351.42        120.7729
351.87        120.6058
352.32        120.2188
352.77        119.7271
353.22        119.3115
353.67        119.0135
354.13        118.8041
354.58        118.5364
355.03         118.032
355.48        117.2738
355.93        116.3467
356.38        115.4323
356.83        114.7951
357.28        114.4717
357.73        114.3559
358.18        114.2656
358.63        113.9117
359.08        113.2232
359.53        112.3086
359.98        111.2791
360.43        110.3007
360.88        109.4323
361.33        108.6174
361.78        107.8705
362.23        107.2194
362.68        106.6542
363.13        106.1778
363.58        105.7001
364.03         105.067
364.48        104.2454
364.93        103.2678
365.38        102.2437
365.83        101.3614
366.28        100.6673
366.73        100.1059
367.18        99.57466
367.63        98.90956
368.08        98.07437
368.53        97.13195
368.98        96.16193
369.43        95.27264
369.88        94.48801
370.33        93.76637
370.78        93.06638
371.23        92.33692
371.68        91.57514
372.13        90.81591
372.58        90.09563
373.03        89.44994
373.48        88.87997
373.93        88.36533
374.38        87.88023
374.83        87.39413
375.28        86.90003
375.72        86.38931
376.17        85.89581
376.62        85.39878
377.07        84.88239
377.52        84.32749
377.97         83.7423
378.42          83.161
378.87        82.60855
379.32        82.10213
379.77        81.60666
380.22        81.04976
380.67         80.4161
381.11        79.72733
381.56        79.06203
382.01        78.57548
382.46        78.30737
382.91        78.21221
383.36        78.16226
383.81        77.96004
384.26        77.55771
384.71        77.00706
385.15        76.40947
385.60        75.99051
386.05        75.76826
386.50        75.67491
386.95        75.59015
387.40        75.33437
387.85        74.88344
388.29        74.27444
388.74        73.71097
389.19        73.27404
389.64        72.97889
390.09        72.76917
390.54        72.59444
390.98        72.36468
391.43        72.09831
391.88        71.82024
392.33         71.5416
392.78        71.26966
393.23        71.01041
393.67        70.72661
394.12        70.51092
394.57        70.31581
395.02        70.13894
395.47        70.00974
395.91        69.89817
396.36        69.68298
396.81        69.38438
397.26        69.10152
397.71        68.82253
398.15        68.52795
398.60        68.30511
399.05        67.91789
399.50        67.53299
399.95          67.732
400.39        68.33293
400.84        68.48924
401.29        68.10996
401.74        67.46349
402.18        66.78847
402.63         66.6058
403.08        66.85905
403.53            66.8
403.97        66.40009
404.42         66.2075
404.87        66.23058
405.32        66.24852
405.76        66.23763
406.21        66.19707
406.66        66.11811
407.11        66.12096
407.55        66.13979
408.00        65.87223
408.45        65.37215
408.90        64.83304
409.34        64.41755
409.79        64.42462
410.24        64.74046
410.68        64.86111
411.13        64.73962
411.58        64.67308
412.03        64.67379
412.47        64.63261
412.92        64.53302
413.37         64.4175
413.81        64.31735
414.26        64.33365
414.71         64.4586
415.15        64.67592
415.60         64.8912
416.05        64.99641
416.49        64.95877
416.94        64.80335
417.39        64.58947
417.83        64.40365
418.28        64.27587
418.73         64.1773
419.17        64.09734
419.62        64.02995
420.07        63.97852
420.51        63.95427
420.96        63.96583
421.41        64.00989
421.85        64.06129
422.30        64.03992
422.74         63.9704
423.19        64.24794
423.64        64.74692
424.08        64.86988
424.53         64.5664
424.98        64.45484
425.42        64.58729
425.87        64.52664
426.31        64.33232
426.76        64.40068
427.21        64.67646
427.65        64.78181
428.10        64.67791
428.54        64.60915
428.99        64.61066
429.44        64.63416
429.88        64.62294
430.33        64.43855
430.77        64.16652
431.22        64.27782
431.66        64.69979
432.11        65.15074
432.56        65.51276
433.00        65.42033
433.45        64.74572
433.89        64.65965
434.34        65.28245
434.78        64.64617
435.23        63.42502
435.67        65.59912
436.12        65.41903
436.57        65.93073
437.01        65.47108
437.46        65.22175
437.90        65.88701
438.35        65.77543
438.79        65.80338
439.24        65.68362
439.68        65.64867
440.13         65.6318
440.57         65.6143
441.02        65.63461
441.46        65.67436
441.91        65.63309
442.35        65.53498
442.80        65.93286
443.24        66.62979
443.69        66.79018
444.13        66.40222
444.58        66.13004
445.02        66.05651
445.47        66.14196
445.91        66.31161
446.36        66.36604
446.80        66.28129
447.24        66.17231
447.69        66.09731
448.13        66.25042
448.58         66.3954
449.02        66.36269
449.47        66.14214
449.91        66.07798
450.36        66.20361
450.80        66.24308
451.25        66.20616
451.69        66.28017
452.13        66.40327
452.58        66.24242
453.02        65.85908
453.47        65.64478
453.91        65.62971
454.36        65.64594
454.80        65.61608
455.24        65.54905
455.69        65.45979
456.13        65.16015
456.58        64.83225
457.02        65.00278
457.46         65.6191
457.91         65.5553
458.35        65.02041
458.79        64.77283
459.24        64.88052
459.68        64.84315
460.13        64.69244
460.57        64.49753
461.01          64.259
461.46        64.18597
461.90        64.20078
462.34        63.68758
462.79        63.83929
463.23        63.91957
463.68        64.17477
464.12        63.97706
464.56         63.4772
465.01        63.62722
465.45        64.19623
465.89        64.34219
466.34        64.07549
466.78         63.7887
467.22        63.53652
467.67        63.60675
468.11        63.14687
468.55         63.0826
468.99        63.10775
469.44         63.0487
469.88        62.88113
470.32        62.69502
470.77        62.54108
471.21        62.43613
471.65        62.39814
472.10        62.42862
472.54        62.44826
472.98        62.41074
473.42        62.33281
473.87        62.06812
474.31        61.69168
474.75        61.88784
475.20        62.52575
475.64        62.15105
476.08        61.83775
476.52        61.65419
476.97        61.88716
477.41        62.15625
477.85        62.31576
478.29        62.26387
478.74        61.52464
479.18        61.75011
479.62        61.80325
480.06        61.96177
480.50        61.94175
480.95        62.09947
481.39        62.32327
481.83        62.30248
482.27        62.88735
482.72        61.90641
483.16        62.08551
483.60        62.17273
484.04        62.18462
484.48        61.75198
484.93        61.28187
485.37        62.12801
485.81         61.8959
486.25        61.64278
486.69        63.22095
487.14        63.15958
487.58        62.12637
488.02        61.79703
488.46        61.34608
488.90        61.63695
489.34         61.3043
489.79        61.12941
490.23        61.33907
490.67        61.49102
491.11        61.67873
491.55         61.5565
491.99        61.21688
492.43        61.06122
492.88        61.12612
493.32        61.22333
493.76        61.24726
494.20        61.25413
494.64        61.24939
495.08        60.81213
495.52        60.59443
495.96        60.66486
496.41        61.05093
496.85         61.0398
497.29        60.59895
497.73        60.43513
498.17        60.27716
498.61        60.25013
499.05        60.23751
499.49        60.23698
499.93        60.26647
500.37        60.30196
500.82        60.33508
501.26        60.59026
501.70        60.94939
502.14         60.5974
502.58        60.13194
503.02        59.83752
503.46        59.85953
503.90        59.87794
504.34        59.84529
504.78         59.8671
505.22        59.93779
505.66        59.98685
506.10        59.97685
506.54        60.01347
506.98        60.11913
507.42        59.62446
507.86        59.76021
508.30        59.60685
508.74        59.58603
509.18        59.60086
509.62        59.64032
510.06        59.66769
510.50        59.64006
510.94        59.51315
511.38        59.33761
511.82        59.26044
512.26        59.29845
512.70        59.38129
513.14        59.46157
513.58        59.48428
514.02        59.43181
514.46        59.32606
514.90        59.19059
515.34        59.10388
515.78        59.09019
516.22          59.091
516.66        58.94775
517.10        59.25956
517.54        59.09474
517.98         59.1782
518.42        59.22961
518.86        59.25828
519.30        59.26064
519.74        59.20755
520.18        59.14201
520.62        59.20378
521.06        59.35787
521.50         59.3745
521.93         59.2667
522.37        59.24374
522.81        59.31378
523.25        59.35697
523.69        59.34914
524.13        59.30895
524.57        59.23464
525.01        59.12253
525.45        59.01091
525.89        58.96034
526.32        58.98064
526.76        59.06163
527.20        59.15501
527.64        59.18498
528.08        59.13352
528.52        59.02465
528.96        58.90676
529.40        58.84636
529.83        58.85842
530.27        58.95298
530.71        59.06696
531.15         59.0989
531.59        59.03172
532.03        58.90042
532.46         58.7716
532.90        58.76328
533.34        58.88822
533.78        59.10083
534.22        59.31369
534.66        59.39525
535.09        59.31052
535.53        59.12693
535.97        58.90207
536.41         58.7422
536.85         58.6798
537.28        58.68163
537.72        58.72326
538.16        58.76609
538.60        58.79177
539.04         58.8169
539.47         58.8208
539.91        58.81717
540.35        58.79288
540.79        58.74905
541.22        58.69782
541.66        58.67688
542.10        58.68776
542.54        58.71706
542.97        58.74702
543.41        58.77807
543.85        58.79915
544.29        58.82662
544.72         58.8336
545.16        58.81355
545.60        58.75383
546.04        58.63687
546.47        58.52856
546.91        58.55143
547.35        58.68596
547.79        58.89813
548.22        59.07582
548.66        58.96192
549.10        58.65247
549.53        58.61713
549.97        58.83884
550.41        58.86196
550.84        58.67019
551.28         58.5514
551.72        58.54935
552.15        58.56298
552.59        58.59789
553.03        58.81048
553.46        58.88586
553.90        58.92852
554.34        58.83503
554.77        58.68708
555.21        58.57265
555.65        58.37113
556.08        58.51549
556.52        58.63357
556.96        58.78207
557.39        58.91772
557.83        58.99965
558.27        58.90383
558.70        58.69597
559.14        58.59107
559.57        58.60253
560.01        58.73997
560.45         58.8861
560.88        58.75156
561.32         58.4534
561.75         58.2729
562.19        58.29855
562.63         58.5228
563.06        58.81054
563.50        58.76982
563.93        58.43418
564.37        58.24509
564.80        58.24603
565.24        58.36792
565.68        58.54657
566.11        58.62199
566.55        58.59036
566.98        58.59465
567.42        58.65909
567.85        58.59276
568.29        58.48603
568.72        58.57368
569.16        58.87399
569.60        58.95845
570.03        59.07953
570.47         59.1703
570.90           59.29
571.34        59.28664
571.77        59.50727
572.21        59.43539
572.64         59.3545
573.08        59.10907
573.51        59.02544
573.95        59.42065
574.38        59.30086
574.82        60.17386
575.25        59.72512
575.69        59.52633
576.12        59.56295
576.56        59.22581
576.99        59.59732
577.42        59.51653
577.86        59.44712
578.29        60.20699
578.73        60.54153
579.16        59.91438
579.60        59.50373
580.03         59.7992
580.47        59.56588
580.90        59.39861
581.33        60.00053
581.77        60.16661
582.20        60.20652
582.64         60.5218
583.07        60.11628
583.51        59.81362
583.94        59.54523
584.37         59.4043
584.81        59.01419
585.24        59.01828
585.68         59.6458
586.11        59.33362
586.54        59.70122
586.98         59.6837
587.41        59.39341
587.85        59.88645
588.28        59.81993
588.71        59.89216
589.15        59.58897
589.58        59.53448
590.01        59.22467
590.45        59.03045
590.88        59.28642
591.31        58.94838
591.75          58.869
592.18         58.8358
592.61        59.04309
593.05        59.36424
593.48        59.71637
593.91        59.58945
594.35        59.54565
594.78        59.46375
595.21        59.09992
595.65        59.12002
596.08        59.30317
596.51        59.55265
596.94        59.30077
597.38        59.20124
597.81        59.11044
598.24        59.30854
598.68        58.86601
599.11        58.93741
599.54        59.37514
599.97        59.35247
600.41        59.21281
600.84        59.62436
601.27          59.352
601.70        59.46741
602.14        59.01309
602.57        58.92131
603.00        58.98329
603.43        59.37533
603.87        59.65416
604.30        59.54128
604.73        59.35595
605.16        59.32198
605.60        59.20048
606.03         59.1259
606.46         59.0175
606.89        59.11472
607.32        58.96931
607.76        59.55696
608.19        59.54291
608.62        59.29781
609.05        60.11665
609.48        59.45778
609.92        59.23273
610.35        58.99376
610.78        59.34076
611.21        59.10152
611.64        59.09626
612.07        59.03777
612.50        59.15783
612.94         59.1734
613.37        59.06843
613.80        59.34903
614.23         59.1622
614.66        59.12091
615.09        59.00125
615.52        58.82947
615.96        58.63208
616.39        58.56704
616.82        58.68528
617.25        58.42438
617.68        58.78579
618.11          58.687
618.54        58.63212
618.97        58.60168
619.40        58.62742
619.84        58.70868
620.27        58.61589
620.70        58.46908
621.13        58.28712
621.56        58.29637
621.99        58.64506
622.42        58.80059
622.85        58.50888
623.28        58.58184
623.71        58.58848
624.14        58.57226
624.57        58.56334
625.00        58.92203
625.43        58.44662
625.86        58.41312
626.29        58.45227
626.72        58.44458
627.15        58.25968
627.58        58.23701
628.01        58.41958
628.44         58.1482
628.87        58.09263
629.30        58.65168
629.73        58.41567
630.16        58.42351
630.59        58.27511
631.02        58.48038
631.45         58.2189
631.88        58.20798
632.31        58.23743
632.74        58.01064
633.17        58.12047
633.60        58.06445
634.03        58.02467
634.46        58.04166
634.89        58.02444
635.32        58.04467
635.75        58.06472
636.18        58.08919
636.61        58.11179
637.04        58.12756
637.47          58.136
637.89        58.14351
638.32        58.13813
638.75        58.12645
639.18        58.11014
639.61        58.08819
640.04        58.06887
640.47        58.06529
640.90        58.07862
641.33        58.10566
641.76        58.13142
642.18        58.13695
642.61        58.10558
643.04        58.05331
643.47        57.99839
643.90        57.97452
644.33        57.99082
644.76        58.02401
645.18        58.06591
645.61        58.12713
646.04        58.18655
646.47        58.18332
646.90        58.13337
647.33         58.1173
647.75        58.13565
648.18        58.17469
648.61        58.23203
649.04        58.23302
649.47        58.15359
649.89        58.35102
650.32        58.20499
650.75        58.23553
651.18        58.23942
651.61         58.2394
652.03        58.22872
652.46        58.06042
652.89        57.83594
653.32        57.89317
653.74        58.19098
654.17        58.13594
654.60        58.07802
655.03        57.67225
655.46        57.90654
655.88        58.46337
656.31        60.11466
656.74        63.72533
657.16        62.35249
657.59        60.63939
658.02        58.86527
658.45        58.35755
658.87         58.0619
659.30        58.49581
659.73        58.16283
660.15         57.4837
660.58        58.31557
661.01        58.53553
661.44        58.66292
661.86        58.51916
662.29        58.17795
662.72        57.90219
663.14         57.7681
663.57        57.75241
664.00        57.82914
664.42         57.9012
664.85        57.95887
665.27         57.9738
665.70        58.10932
666.13        58.13832
666.55        58.11242
666.98        58.03883
667.41        57.94767
667.83        57.89975
668.26        57.92027
668.69        57.94195
669.11        57.94007
669.54        58.07143
669.96        58.36763
670.39        58.03176
670.82        58.45115
671.24        58.40679
671.67        58.32686
672.09        58.36101
672.52        58.49826
672.94        58.43888
673.37        58.21514
673.80         58.1265
674.22        58.19674
674.65        58.21246
675.07        58.18744
675.50        58.22831
675.92        58.31182
676.35        58.32698
676.77        58.26004
677.20        58.16047
677.62        58.08448
678.05        58.03355
678.47        58.00541
678.90        58.28735
679.32        58.31174
679.75        58.42139
680.17        58.46578
680.60        58.52623
681.02        58.48724
681.45        58.47026
681.87        58.45594
682.30        58.40373
682.72        58.35146
683.15        58.38746
683.57        58.46857
684.00        58.57352
684.42        58.34504
684.85        58.33291
685.27         58.4244
685.70        58.50896
686.12        58.54438
686.54        58.55815
686.97        58.53917
687.39        58.50399
687.82        58.48356
688.24        58.50186
688.66        58.54581
689.09        58.83757
689.51        58.88717
689.94        59.00526
690.36         59.0294
690.78        58.94479
691.21        58.80025
691.63        58.67252
692.06        58.62941
692.48        58.74044
692.90        58.95372
693.33        59.07521
693.75        59.09103
694.17        59.06385
694.60        58.98033
695.02        59.02592
695.44        58.94504
695.87        58.70589
696.29         58.3828
696.71        58.45871
697.14        58.87502
697.56        59.21729
697.98         59.4038
698.41        59.30205
698.83        59.48286
699.25        59.31448
699.68        59.03168
700.10        58.82717
700.52        58.74805
700.94        58.73223
701.37        58.75418
701.79        58.82904
702.21        58.92163
702.64        59.04349
703.06        59.15981
703.48        59.21452
703.90        59.20057
704.33        59.12866
704.75        59.02859
705.17        58.93509
705.59        58.86721
706.01        58.81616
706.44        58.80248
706.86        58.87308
707.28        59.01497
707.70        59.21312
708.12        59.41808
708.55        59.54515
708.97        59.56752
709.39        59.51092
709.81         59.4104
710.23        59.33656
710.66        59.31655
711.08        59.34492
711.50        59.38023
711.92         59.3719
712.34        59.31113
712.76        59.21624
713.19        59.12405
713.61        59.13648
714.03         59.2459
714.45        59.43272
714.87        59.63868
715.29        59.73472
715.71        59.69208
716.13        59.70331
716.56        59.51949
716.98        59.48235
717.40        59.51952
717.82        59.60605
718.24        59.71833
718.66        59.82351
719.08        59.90645
719.50        59.97675
719.92        60.02004
720.34        60.00901
720.76        59.94587
721.19        59.83329
721.61        59.72275
722.03        59.67376
722.45        59.70299
722.87        59.79208
723.29        59.91682
723.71        60.03278
724.13        60.12253
724.55        60.19816
724.97        60.25305
725.39        60.27913
725.81        60.27745
726.23        60.24209
726.65         60.2005
727.07        60.20456
727.49        60.26522
727.91        60.36143
728.33        60.45089
728.75        60.49743
729.17        60.47236
729.59        60.31616
730.01        60.11559
730.43        60.08677
730.85        60.25789
731.27        60.51955
731.69        60.78757
732.10        60.90708
732.52        61.02295
732.94        60.78734
733.36        60.37519
733.78        60.15997
734.20        60.20714
734.62          60.329
735.04        60.46466
735.46        60.58538
735.88        60.66079
736.30        60.71175
736.72        60.72388
737.13        60.69365
737.55        60.59451
737.97        60.41576
738.39        60.22832
738.81        60.22289
739.23         60.3878
739.65        60.52211
740.06         60.5534
740.48        60.62858
740.90        60.70741
741.32        60.70751
741.74        60.64947
742.16        60.62996
742.57        60.67463
742.99        60.73269
743.41        60.78976
743.83        60.80679
744.25        60.77264
744.67        60.69835
745.08         60.6292
745.50        60.59497
745.92        60.62255
746.34        60.70881
746.75        60.79988
747.17        60.80417
747.59        60.70736
748.01        60.50313
748.42        60.30026
748.84        60.29644
749.26         60.4849
749.68         60.7676
750.09        61.02307
750.51        60.94939
750.93        60.62112
751.35        60.56565
751.76        60.79308
752.18        60.71973
752.60        60.64491
753.01          60.606
753.43        60.66524
753.85        60.68439
754.27        60.65496
754.68        60.60847
755.10         60.5705
755.52        60.56263
755.93        60.59324
756.35        60.66463
756.77          60.753
757.18        60.79313
757.60        60.76878
758.02        60.71221
758.43         60.7234
758.85        60.54703
759.26        61.08184
759.68        61.12924
760.10        60.96706
760.51        60.56065
760.93        60.73572
761.34        60.75108
761.76        60.83431
762.18        61.08137
762.59        61.35213
763.01        61.46979
763.42        60.69764
763.84        60.74811
764.26        61.01235
764.67        61.48271
765.09        61.85665
765.50        61.81804
765.92        61.45448
766.33        61.23474
766.75        61.22163
767.16         61.1858
767.58        61.08205
768.00        61.27289
768.41        61.69293
768.83        61.61722
769.24        61.10372
769.66        61.45692
770.07        61.62475
770.49        61.66361
770.90        61.32481
771.32        61.20696
771.73        61.33834
772.15        61.39109
772.56        61.38107
772.97        61.46315
773.39        61.59352
773.80        61.69171
774.22         61.7112
774.63        61.69674
775.05        61.64572
775.46        61.60578
775.88         61.5695
776.29        61.54375
776.70        61.51275
777.12        61.46466
777.53        61.42045
777.95        61.39222
778.36        61.37802
778.77        61.36367
779.19        61.34174
779.60        61.31197
780.02         61.3172
780.43        61.40411
780.84        61.56696
781.26        61.89057
781.67         62.2851
782.09        62.23281
782.50        61.84084
782.91        61.84801
783.33         62.2125
783.74        62.33279
784.15        62.15066
784.57        62.07244
784.98        62.12489
785.39        62.14112
785.81        62.12217
786.22        62.11043
786.63        62.12063
787.04        62.17576
787.46        62.28669
787.87        62.41509
788.28        62.53092
788.70        62.58298
789.11        62.54565
789.52        62.44912
789.93        62.34642
790.35        62.31514
790.76         62.3884
791.17        62.54327
791.58        62.73788
792.00        62.88342
792.41        62.98102
792.82        63.04972
793.23        63.13174
793.65        63.20759
794.06        63.29496
794.47        63.52858
794.88         63.8745
795.29        63.67799
795.71        63.89305
796.12        63.76477
796.53        63.59307
796.94        63.50857
797.35        63.48066
797.76         63.2117
798.18        62.77646
798.59        62.57652
799.00        62.64833
799.41        62.80919
799.82        62.96948
800.23        63.05762
800.64         63.0359
801.06        62.89894
801.47        62.76194
801.88        62.74752
802.29         62.8869
802.70         63.1348
803.11        63.40746
803.52        63.56348
803.93        63.56928
804.34        63.47464
804.75         63.3497
805.17        63.32984
805.58        63.47939
805.99         63.6389
806.40        63.78525
806.81        64.11616
807.22        64.48786
807.63         64.3923
808.04        63.93164
808.45        63.75372
808.86        63.92553
809.27        64.08515
809.68        64.17452
810.09        64.25505
810.50         64.3015
810.91        64.30656
811.32        64.26662
811.73        64.17254
812.14        64.02998
812.55        63.84124
812.96        63.65635
813.37        63.55915
813.78        63.57129
814.19        63.68039
814.60        63.81489
815.01         63.8565
815.42        63.78131
815.83        63.61901
816.24        63.45219
816.65        63.43529
817.05        63.61259
817.46        63.90038
817.87        64.22345
818.28        64.43303
818.69        64.49489
819.10        64.45671
819.51        64.37719
819.92        64.36011
820.33        64.43903
820.74        64.56788
821.14        64.72043
821.55        64.88296
821.96         65.0284
822.37        65.16781
822.78        65.26289
823.19        65.24335
823.60        65.09821
824.00        64.85977
824.41        64.56736
824.82        64.35717
825.23        64.27095
825.64        64.29109
826.04        64.38625
826.45        64.45821
826.86        64.49478
827.27        64.52455
827.68        64.57398
828.08        64.70907
828.49        64.86543
828.90        65.04968
829.31        65.24998
829.72        65.35724
830.12        65.35435
830.53        65.64437
830.94         65.4491
831.35         65.2543
831.75        64.85935
832.16        64.29368
832.57        63.75583
832.97        63.56867
833.38        63.79597
833.79        64.33652
834.20        64.96487
834.60         65.3367
835.01         65.3647
835.42        65.13934
835.82        64.82386
836.23        64.65985
836.64        64.74164
837.04        65.00014
837.45        65.29179
837.86        65.44698
838.26        65.43056
838.67        65.29765
839.08         65.1571
839.48        65.16071
839.89        65.33765
840.29        65.62677
840.70         65.9533
841.11        66.19765
841.51        66.32934
841.92        66.34975
842.33        66.29283
842.73        66.21076
843.14        66.09059
843.54        65.96064
843.95        65.83007
844.35        65.73933
844.76        65.69241
845.17        65.68422
845.57        65.74513
845.98        65.88189
846.38        66.10661
846.79        66.38261
847.19        66.64839
847.60        66.72943
848.00        66.63029
848.41        66.36578
848.81        66.08962
849.22        66.00208
849.62        66.19231
850.03        66.55132
850.43        66.99274
850.84        67.27622
851.24         67.3856
851.65        67.32141
852.05        67.17847
852.46        67.03299
852.86        66.92788
853.27        66.87374
853.67        66.78193
854.07        66.66682
854.48        66.49304
854.88        66.29279
855.29        66.06876
855.69        65.98181
856.10        65.97657
856.50        66.10647
856.90        66.22115
857.31        66.11599
857.71        65.80573
858.12        65.30054
858.52        64.77503
858.92        64.46354
859.33        64.42171
859.73        64.63007
860.13        64.94513
860.54        65.12258
860.94        65.15079
861.34        65.05635
861.75        64.91043
862.15        64.91132
862.55        65.06219
862.96        65.27104
863.36        65.47204
863.76        65.51749
864.17        65.36737
864.57        65.11105
864.97        64.76939
865.38        64.35717
865.78         63.9508
866.18        63.54498
866.58        63.27491
866.99        63.34752
867.39        63.81455
867.79        64.56628
868.19        65.36663
868.60        65.80122
869.00        65.86594
869.40        65.83336
869.80        65.71358
870.21        65.34958
870.61        64.84764
871.01        64.33224
871.41        63.87282
871.81        63.46505
872.22        63.14862
872.62        62.96032
873.02        62.92561
873.42        63.24461
873.82        63.70467
874.22        63.73409
874.63        63.57085
875.03        63.71171
875.43        64.18217
875.83        65.66553
876.23        65.38264
876.63         64.7433
877.03        63.45974
877.44        60.96068
877.84        170.4439
878.24        61.21187
878.64         61.9921
879.04        63.71708
879.44        64.48193
879.84        61.29272
880.24        66.34524
880.64         66.4712
881.04        63.96972
881.44        62.12246
881.84        61.54599
882.24        62.30091
882.65        63.66381
883.05        64.09581
883.45        63.29217
883.85        62.16351
884.25        61.21508
884.65        60.83727
885.05        61.17403
885.45        62.00347
885.85        62.94007
886.25        63.46046
886.65        63.43899
887.05        63.05677
887.45        62.50034
887.85        62.07746
888.25        61.91471
888.65        61.91195
889.04        62.06447
889.44        62.37763
889.84        62.79696
890.24        63.30207
890.64        63.78596
891.04        64.08473
891.44        64.17123
891.84        64.09753
892.24         63.8971
892.64        63.64955
893.04        63.40676
893.44        63.14999
893.83        62.99306
894.23        63.07074
894.63        63.40073
895.03        63.95632
895.43        64.53223
895.83        64.77551
896.23        64.61881
896.63        64.16753
897.02        63.66374
897.42        63.53216
897.82        63.82133
898.22        64.39234
898.62        65.01052
899.01        65.30729
899.41        65.15773
899.81        64.69422
900.21        64.08429
900.61        63.59663
901.00        63.31832
901.40         63.2506
901.80        63.31915
902.20        63.26912
902.59        63.03679
902.99        62.96322
903.39        63.27805
903.79        62.61259
904.18        63.70696
904.58        64.27686
904.98        64.83423
905.38        64.87694
905.77        64.34292
906.17        63.40649
906.57        62.39031
906.96        61.92488
907.36        62.16307
907.76           62.94
908.15        63.96486
908.55        64.59805
908.95        64.68934
909.34        64.34818
909.74        63.86011
910.14        63.64087
910.53        63.79945
910.93        64.20321
911.33        64.54688
911.72        64.36122
912.12        63.58969
912.52        62.42109
912.91        61.26691
913.31         60.8377
913.70        61.25019
914.10        62.28012
914.49        63.51056
914.89        64.14677
915.29        63.99942
915.68        63.31058
916.08        62.44821
916.47        61.95088
916.87        62.01077
917.26        62.42496
917.66         63.0521
918.05        63.69618
918.45        64.23278
918.84        64.73751
919.24        65.13785
919.64          65.359
920.03        65.39669
920.42        65.23325
920.82         64.9317
921.21        64.63561
921.61        64.42245
922.00        64.33859
922.40        64.42847
922.79        64.60311
923.19        64.46869
923.58        64.91515
923.98        66.30635
924.37        66.18517
924.77        63.14543
925.16        71.07715
925.55        64.75938
925.95        65.19189
926.34        65.19901
926.74        64.61134
927.13        63.39792
927.52        62.71151
927.92        63.03128
928.31        63.69781
928.70        64.54091
929.10        65.24846
929.49        65.74727
929.89        66.13218
930.28        66.33378
930.67        66.13649
931.07        65.55374
931.46        64.54581
931.85        63.46315
932.24        63.34828
932.64         64.3737
933.03        65.67251
933.42        66.39856
933.82        68.71696
934.21        67.08781
934.60        65.83754
934.99        64.64544
935.39        64.61519
935.78        65.74429
936.17        68.30427
936.56        74.89294
936.96        68.27242
937.35        71.58763
937.74        67.72099
938.13        64.55316
938.53        62.15316
938.92        61.50331
939.31        63.03102
939.70        65.20959
940.09        66.45116
940.49        66.39909
940.88        65.59195
941.27        64.51387
941.66        64.05455
942.05        64.50905
942.44        65.45837
942.84        66.42342
943.23        66.86752
943.62        66.64445
944.01        65.96667
944.40        65.15723
944.79        64.73616
945.18        64.85906
945.57        65.35148
945.97        65.90502
946.36        66.15715
946.75        65.95848
947.14        65.43975
947.53        64.81745
947.92        64.45978
948.31         64.4708
948.70        64.71365
949.09        65.00111
949.48        65.04902
949.87        64.80219
950.26        64.40166
950.65        63.96115
951.04        63.64869
951.43        63.53817
951.82        63.55442
952.21         63.7522
952.60        64.23264
952.99        64.92857
953.38        65.73779
953.77        66.42637
954.16        66.65736
954.55        66.38344
954.94         65.7383
955.33        64.84859
955.72        63.98722
956.11        63.31728
956.50        62.77583
956.89        62.55458
957.28        62.91748
957.66        63.87695
958.05        65.28294
958.44        66.66393
958.83        67.29843
959.22        67.03374
959.61        65.98296
960.00        64.64989
960.39        64.04768
960.78        64.46507
961.16        65.61199
961.55        66.76375
961.94        67.02574
962.33        66.23264
962.72        64.64241
963.11        62.80584
963.49         61.8625
963.88        62.20181
964.27        63.41673
964.66        64.85754
965.04        65.64372
965.43         65.5182
965.82        64.81475
966.21        63.84474
966.60        63.14859
966.98        62.94026
967.37         63.0284
967.76         63.3193
968.15        63.67908
968.53        64.05018
968.92        64.47545
969.31        64.89409
969.69         65.1708
970.08        65.24229
970.47        65.09874
970.86        64.85439
971.24        64.74473
971.63        64.81451
972.02        65.02457
972.40        65.22612
972.79        65.09188
973.17        64.63375
973.56        63.96704
973.95        63.35291
974.33        63.24165
974.72        63.73932
975.11        64.66137
975.49        65.82561
975.88        66.86041
976.26        67.67754
976.65        68.27364
977.04        68.60207
977.42         68.5718
977.81        68.15311
978.19        67.31178
978.58        66.45268
978.96        66.25361
979.35        66.84411
979.74         67.9836
980.12        69.17867
980.51        69.59651
980.89        69.23241
981.28        68.20693
981.66        66.85743
982.05        66.08699
982.43        66.23074
982.82        67.08952
983.20        68.20427
983.59        68.84382
983.97        68.86709
984.35        68.42688
984.74        67.81485
985.12        67.62376
985.51        67.95734
985.89        68.66318
986.28        69.33548
986.66        69.47298
987.04        69.03184
987.43        68.09062
987.81        66.76946
988.20        66.87275
988.58        68.78983
988.96        69.41422
989.35        67.78587
989.73        74.21323
990.12         70.7204
990.50        71.05586
990.88        70.59465
991.27        70.23168
991.65        69.98964
992.03        69.95306
992.42         70.1124
992.80        69.88143
993.18        69.19091
993.56        68.29078
993.95        67.44501
994.33        67.01135
994.71        67.11416
995.10        67.59766
995.48        68.38048
995.86        69.32106
996.24         70.2803
996.63        71.16279
997.01        71.89163
997.39        72.15644
997.77        71.90659
998.15        71.23792
998.54        70.35672
998.92        69.49085
999.30        68.79777
999.68        68.29208
1000.06        68.04275
1000.45        68.09276
1000.83        68.54255
1001.21        69.34879
1001.59        70.42845
1001.97        71.64829
1002.35        72.85534
1002.73        73.91814
1003.12        74.76582
1003.50        75.41438
1003.88        75.87576
1004.26        76.21712
1004.64        76.30676
1005.02        75.89813
1005.40         74.9655
1005.78        73.57294
1006.16         72.2494
1006.54        71.82416
1006.92        72.47681
1007.30        74.03372
1007.69          75.693
1008.07        76.36684
1008.45        75.78992
1008.83         74.1761
1009.21        72.35216
1009.59        72.04996
1009.97           73.62
1010.35        76.19933
1010.73        78.61739
1011.11        79.83509
1011.49        79.85098
1011.86        78.72913
1012.24        76.65796
1012.62        77.53716
1013.00         78.7486
1013.38        79.64837
1013.76        78.65633
1014.14        82.78403
1014.52        88.01511
1014.90        80.90306
1015.28        81.31388
1015.66        82.13199
1016.04        78.56536
1016.41        78.95024
1016.79         78.4842
1017.17        78.68132
1017.55        78.93955
1017.93        79.49625
1018.31        80.46354
1018.69        81.45232
1019.06        82.34928
1019.44        83.11052
1019.82          83.457
1020.20        82.96666
1020.58        81.55065
1020.95        79.05852
1021.33        76.01877
1021.71        74.28198
1022.09        74.89574
1022.46        77.05726
1022.84        79.47993
1023.22        81.25211
1023.60        82.37823
1023.97        83.21946
1024.35        83.78836
1024.73        83.99171
