SpectraSmart Spectrum 2.9.0.0
--------- Device Information -----------
Spectrum Name :  反射率_0
Saving Time :  2024/04/21 00:57:43
Spectro-Module Model Name : SE2030-DUVN
Spectro-Module Serial Number : OS361AC55029948
Wavelength Start : 200
Wavelength End : 1025
Wavelength Unit : Wavelength(nm)
Spectrum Unit : Reflectance(%)
-----------Spectrum Setting ------------
Integration Time : 20ms
Average : 10
Boxcar : 0
Background removal :  enabled
linearity correction :  enabled
SC :  disabled
Intensity correction :  disabled
DWT denoise :  enabled
savitzky-golay :  disabled
FFT :  disabled
Running average :  disabled
Kalman :  disabled
High pass :  disabled
---------------BEGIN--------------------
Wavelength(nm)             Reflectance(%)
200.29               0
200.75       -145.3395
201.21        -75.5734
201.67       -35.11972
202.13       -16.18966
202.58       -8.715807
203.04       -6.605177
203.50       -7.244612
203.96       -7.095057
204.42       -5.317035
204.88        -4.07537
205.34       -5.908569
205.80       -14.97113
206.26       -33.29659
206.72       -59.40719
207.18       -90.90264
207.64       -119.7979
208.10       -135.5728
208.55        -138.503
209.01       -116.7064
209.47       -70.14555
209.93       -29.56625
210.39       -3.026021
210.85        12.16006
211.31         19.0432
211.77        20.69284
212.23        18.33983
212.69        7.865491
213.14       -22.55605
213.60       -99.51273
214.06       -360.0467
214.52       -1026.057
214.98        -512.456
215.44       -166.3916
215.90       -46.78855
216.36       -6.527524
216.81       -2.024979
217.27       -26.52409
217.73       -155.3126
218.19         1396.34
218.65        565.1782
219.11       -1309.078
219.57       -81.61456
220.02       -3.317672
220.48        12.21256
220.94        8.812301
221.40       -11.94848
221.86       -64.03292
222.32       -97.81289
222.77       -50.14118
223.23       -9.505339
223.69        11.12321
224.15        18.87826
224.61        20.25885
225.06        19.26072
225.52        16.17577
225.98        10.57472
226.44        3.013036
226.90        -7.51269
227.36       -15.48909
227.81       -10.74911
228.27        2.386771
228.73        16.46902
229.19        25.82465
229.65        27.69398
230.10        23.33897
230.56        14.67439
231.02        3.295708
231.48       -4.372213
231.93       -3.688399
232.39        2.810474
232.85        10.22959
233.31        14.41036
233.77        15.51517
234.22        15.40706
234.68        14.39285
235.14        12.90329
235.60        11.57889
236.05        9.293948
236.51        6.361401
236.97        10.56448
237.43        22.54407
237.88        30.02027
238.34        28.10991
238.80        53.53161
239.26        40.84144
239.71        37.97095
240.17        27.55599
240.63        16.58159
241.08        9.798659
241.54         11.3976
242.00        21.76998
242.46        28.08617
242.91        26.89917
243.37        19.38286
243.83        8.075332
244.28        3.459704
244.74        10.83055
245.20        23.29639
245.66         33.0301
246.11         32.6554
246.57        21.55672
247.03        2.603822
247.48       -22.10423
247.94       -49.83036
248.40       -85.89687
248.85       -164.3506
249.31       -391.2394
249.77       -553.1758
250.22       -200.9823
250.68       -59.14301
251.14       -14.78225
251.59       -3.260738
252.05       -5.390057
252.51       -16.17243
252.96       -35.14771
253.42       -51.23825
253.88       -52.77328
254.33        -42.7386
254.79       -24.03475
255.25       -2.135746
255.70        16.68368
256.16        30.75147
256.62         39.8068
257.07        43.98726
257.53        45.31984
257.99        45.20497
258.44        44.39637
258.90        44.06529
259.35        43.89122
259.81        43.86077
260.27        43.82183
260.72        43.70111
261.18         43.6722
261.63        43.53177
262.09        43.22715
262.55        42.37691
263.00        41.00233
263.46        39.44639
263.91        37.89222
264.37        36.92698
264.83        36.50567
265.28        36.37814
265.74        36.35095
266.19        36.02401
266.65        35.38268
267.11        34.53008
267.56        33.54849
268.02        32.63625
268.47        31.81389
268.93        31.04544
269.38        30.30806
269.84        29.63059
270.30        28.99517
270.75        28.40732
271.21         27.8445
271.66        27.20242
272.12         26.4948
272.57        25.74276
273.03        25.01911
273.48        24.40643
273.94        23.93436
274.39        23.54215
274.85        23.21748
275.31        22.88402
275.76        22.51575
276.22        22.16684
276.67        21.82187
277.13        21.51457
277.58        21.22572
278.04        20.96086
278.49        20.70932
278.95        20.51972
279.40        20.35343
279.86        20.21416
280.31        20.03328
280.77        19.77816
281.22        19.42284
281.68        19.04342
282.13        18.64338
282.59        18.28807
283.04        17.98169
283.50        17.72668
283.95        17.56395
284.41        17.57004
284.86        17.73419
285.32        18.03178
285.77        18.34416
286.22        18.50515
286.68        18.50633
287.13        18.36506
287.59        18.23654
288.04        18.25775
288.50        18.42596
288.95         18.8178
289.41        19.35661
289.86         19.4242
290.32        18.91291
290.77        19.91338
291.22        19.06442
291.68        19.25062
292.13        19.50388
292.59         19.8967
293.04        20.41656
293.50        21.11796
293.95        22.01719
294.40        23.06973
294.86         24.2373
295.31        25.44445
295.77        26.65952
296.22         27.8818
296.68        29.11121
297.13        30.35059
297.58        31.62147
298.04        32.92332
298.49         34.2927
298.95        35.80634
299.40        37.45375
299.85        39.21994
300.31        41.02187
300.76        42.70876
301.21         44.2652
301.67        45.76087
302.12          47.277
302.58        49.03365
303.03        51.03921
303.48        53.25989
303.94        55.58979
304.39        57.81682
304.84        59.88535
305.30        61.85673
305.75        63.75228
306.20        65.71064
306.66        67.75124
307.11        69.77129
307.57        71.72704
308.02        73.49094
308.47        75.06525
308.93        76.53885
309.38        77.91528
309.83        79.24119
310.29        80.61337
310.74        81.92806
311.19          83.225
311.65        84.52023
312.10        85.79026
312.55        87.03725
313.00        88.20216
313.46        89.19286
313.91        89.97925
314.36          90.598
314.82        91.13785
315.27        91.73366
315.72        92.42802
316.18        93.18762
316.63        93.93946
317.08        94.56615
317.53        95.03105
317.99        95.36276
318.44         95.6237
318.89        95.89789
319.35        96.20883
319.80        96.54183
320.25        96.84026
320.70        97.02134
321.16        97.06356
321.61        97.01312
322.06        96.95331
322.51        97.02048
322.97        97.23144
323.42        97.58321
323.87         97.9586
324.32        98.17787
324.78        98.18268
325.23        98.06586
325.68        97.93381
326.13        97.98981
326.59         98.2613
327.04        98.72968
327.49        99.26447
327.94         99.6823
328.39        99.91955
328.85        99.99509
329.30        100.0292
329.75        100.1002
330.20        100.2464
330.66        100.4048
331.11        100.6018
331.56        100.7566
332.01        100.8585
332.46        100.9359
332.92        100.9942
333.37        101.1662
333.82        101.4334
334.27         101.783
334.72        102.1735
335.17        102.5376
335.63        102.8245
336.08        103.0983
336.53        103.3799
336.98        103.7536
337.43         104.229
337.88        104.7685
338.34        105.2646
338.79        105.5985
339.24        105.7199
339.69        105.6829
340.14        105.5875
340.59        105.5912
341.05        105.7465
341.50        106.0239
341.95        106.3755
342.40        106.7228
342.85        107.0363
343.30         107.338
343.75        107.6403
344.20        107.9643
344.66        108.3165
345.11        108.6572
345.56        108.9642
346.01         109.208
346.46        109.3876
346.91        109.5146
347.36        109.5988
347.81        109.6857
348.26        109.7925
348.72        109.8013
349.17        109.9207
349.62        110.0351
350.07        110.2002
350.52        110.3846
350.97        110.5157
351.42        110.4731
351.87        110.2297
352.32        109.8313
352.77        109.3428
353.22        108.8618
353.67        108.4248
354.13        108.0272
354.58        107.6446
355.03        107.2866
355.48        106.9512
355.93        106.6455
356.38        106.3527
356.83        106.0389
357.28        105.6854
357.73        105.2821
358.18        104.8301
358.63         104.346
359.08        103.8337
359.53         103.289
359.98        102.6976
360.43        102.0324
360.88        101.2944
361.33        100.5065
361.78        99.70186
362.23        98.93128
362.68         98.2168
363.13        97.55003
363.58        96.92416
364.03        96.32392
364.48        95.73413
364.93        95.14996
365.38        94.55766
365.83        93.93797
366.28        93.28514
366.73        92.60172
367.18        91.88908
367.63        91.15507
368.08        90.41154
368.53        89.66741
368.98        88.93661
369.43        88.22789
369.88        87.53931
370.33        86.86736
370.78        86.20945
371.23        85.57352
371.68        84.96701
372.13        84.38641
372.58        83.83591
373.03        83.31096
373.48        82.79881
373.93        82.29844
374.38        81.77903
374.83        81.20054
375.28        80.57199
375.72        79.90315
376.17        79.27539
376.62        78.74242
377.07        78.30165
377.52        77.91534
377.97        77.54424
378.42        77.13628
378.87         76.6823
379.32         76.2115
379.77        75.71965
380.22        75.18428
380.67         74.6026
381.11        73.98293
381.56        73.36797
382.01        72.85552
382.46        72.47771
382.91        72.21038
383.36         71.9945
383.81        71.73303
384.26        71.39291
384.71        70.99411
385.15        70.55054
385.60        70.14825
386.05        69.77993
386.50        69.42347
386.95        69.05342
387.40        68.64299
387.85        68.20218
388.29         67.7179
388.74        67.30325
389.19        66.93273
389.64        66.60142
390.09        66.29459
390.54        66.01468
390.98        65.75889
391.43         65.5665
391.88        65.42262
392.33        65.30243
392.78        65.19603
393.23        65.09873
393.67        64.90121
394.12        64.70233
394.57         64.6718
395.02        64.72189
395.47        64.42696
395.91        63.87515
396.36        63.56079
396.81        63.54368
397.26        63.58888
397.71        63.58137
398.15        63.44007
398.60        63.21299
399.05        62.79925
399.50         62.3719
399.95        62.32441
400.39        62.59833
400.84        62.76496
401.29        62.69477
401.74        62.30996
402.18        61.70804
402.63        61.28591
403.08        61.07988
403.53        60.76205
403.97        60.36248
404.42        60.16871
404.87        60.16038
405.32          60.186
405.76        60.20737
406.21        60.22329
406.66        60.22802
407.11        60.27683
407.55        60.32186
408.00        60.22985
408.45         59.9986
408.90        59.51075
409.34        58.95323
409.79        58.92812
410.24        59.30701
410.68        59.43611
411.13        59.28558
411.58        59.11581
412.03        58.93576
412.47        59.32927
412.92        59.09907
413.37        59.22904
413.81        59.31463
414.26        59.35942
414.71        59.33361
415.15        59.26756
415.60        59.18119
416.05        59.13271
416.49        59.14232
416.94        59.18101
417.39        59.21823
417.83        59.20024
418.28        59.11876
418.73        58.99195
419.17        58.84511
419.62        58.72988
420.07        58.66127
420.51         58.6195
420.96        58.61514
421.41        58.61588
421.85        58.58944
422.30        58.59387
422.74        58.60412
423.19        58.64479
423.64        58.71752
424.08        58.90584
424.53        59.10705
424.98        59.22238
425.42        59.24597
425.87        59.10865
426.31        58.92116
426.76        59.05478
427.21        59.43927
427.65        59.53863
428.10          59.313
428.54        59.21679
428.99        59.29013
429.44        59.24995
429.88        59.10179
430.33        59.07814
430.77        59.11077
431.22         59.1704
431.66        59.23105
432.11        59.28582
432.56         59.3828
433.00        59.46608
433.45        59.34756
433.89          59.335
434.34        59.60628
434.78        58.51875
435.23        58.98213
435.67         59.5382
436.12        60.39274
436.57        60.46012
437.01        59.77991
437.46        59.39709
437.90        59.97573
438.35        60.02774
438.79        59.99722
439.24        59.94088
439.68        59.95484
440.13        59.98351
440.57        60.00265
441.02        60.00112
441.46        59.97784
441.91        59.94966
442.35        59.91908
442.80        60.23469
443.24        60.75288
443.69        60.94199
444.13        60.76565
444.58        60.60297
445.02        60.51955
445.47        60.59843
445.91        60.76648
446.36        60.78611
446.80        60.63691
447.24        60.43578
447.69        60.27095
448.13        60.37233
448.58         60.5354
449.02        60.59418
449.47        60.48591
449.91        60.43901
450.36        60.46873
450.80        60.34756
451.25        60.16202
451.69        60.19687
452.13        60.42225
452.58        60.50837
453.02        60.41185
453.47        60.33852
453.91        60.27558
454.36         60.0982
454.80        59.85599
455.24        59.73299
455.69        59.77356
456.13        59.83937
456.58        59.88609
457.02        60.04272
457.46        59.93314
457.91        59.73866
458.35        59.53477
458.79        59.40819
459.24        59.42179
459.68        59.50325
460.13        59.60909
460.57        59.59771
461.01        59.39331
461.46        59.43292
461.90        58.83825
462.34        59.16975
462.79        58.89721
463.23         59.0356
463.68        59.30172
464.12        59.24901
464.56        58.99552
465.01         59.1385
465.45         59.4944
465.89        59.51696
466.34         59.2882
466.78         59.0117
467.22        58.68459
467.67        59.27726
468.11        58.66776
468.55        58.65319
468.99        58.58973
469.44        58.50497
469.88        58.38232
470.32        58.22086
470.77        58.08001
471.21        58.00974
471.65        58.02786
472.10        58.12194
472.54        58.21397
472.98         58.2364
473.42        58.18202
473.87        57.99042
474.31        57.74154
474.75        57.86496
475.20         58.2415
475.64        58.29976
476.08        58.08878
476.52        57.98254
476.97        57.93551
477.41        58.42587
477.85        58.26826
478.29        58.05651
478.74        58.08952
479.18         58.0521
479.62        58.15798
480.06        58.20285
480.50         58.2422
480.95        58.23786
481.39        58.11038
481.83        58.48582
482.27        58.63363
482.72        58.28262
483.16        58.51589
483.60        58.82387
484.04        58.80421
484.48        58.64369
484.93        58.84468
485.37        58.40256
485.81        58.83115
486.25        58.62821
486.69         59.4869
487.14        59.61423
487.58         58.8552
488.02        58.77579
488.46        58.67559
488.90        58.92135
489.34        58.50653
489.79        57.96035
490.23        58.64787
490.67         58.8762
491.11         59.0237
491.55          58.854
491.99        58.49161
492.43        58.37382
492.88        58.52436
493.32        58.68367
493.76        58.76743
494.20        58.87673
494.64        59.00864
495.08        58.83966
495.52        58.94052
495.96         58.8885
496.41        58.84471
496.85        58.84988
497.29        58.84021
497.73        58.90685
498.17        58.73018
498.61        58.64589
499.05        58.57561
499.49        58.50734
499.93        58.49341
500.37        58.55923
500.82        58.67571
501.26        58.95009
501.70          59.281
502.14        59.01491
502.58        58.72261
503.02        58.55708
503.46        58.65069
503.90        58.75108
504.34        58.79782
504.78        58.85057
505.22        58.90777
505.66        58.89452
506.10        58.82297
506.54        58.83185
506.98           58.95
507.42        58.36594
507.86        59.09714
508.30         58.2253
508.74        58.75935
509.18        58.68083
509.62        58.69789
510.06        58.71665
510.50        58.70601
510.94        58.60322
511.38        58.42797
511.82        58.34808
512.26        58.37862
512.70        58.44339
513.14         58.4912
513.58        58.53496
514.02        58.57404
514.46        58.47626
514.90        58.20738
515.34         58.5152
515.78        58.21078
516.22        58.20736
516.66        58.01383
517.10        58.30854
517.54        58.14206
517.98        58.25937
518.42        58.35831
518.86        58.38995
519.30        58.34293
519.74        58.20289
520.18        58.04956
520.62        58.07732
521.06        58.26122
521.50        58.35629
521.93        58.32817
522.37        58.30769
522.81        58.28888
523.25        58.18335
523.69        58.01731
524.13        57.88416
524.57        57.80337
525.01           57.75
525.45        57.73286
525.89        57.76592
526.32         57.8427
526.76        57.96239
527.20        58.09045
527.64        58.17996
528.08        58.21687
528.52        58.18903
528.96        58.12061
529.40        58.10206
529.83        58.11524
530.27        58.05384
530.71        57.92564
531.15        57.84975
531.59        57.83365
532.03        57.81538
532.46        57.78275
532.90        57.75949
533.34        57.73845
533.78        57.71389
534.22        57.68672
534.66        57.65841
535.09        57.62226
535.53        57.59978
535.97        57.57893
536.41        57.55628
536.85        57.53358
537.28        57.51269
537.72        57.50665
538.16        57.53724
538.60        57.60243
539.04        57.68973
539.47         57.7618
539.91        57.81202
540.35        57.81852
540.79        57.79242
541.22        57.74017
541.66        57.68663
542.10        57.63767
542.54         57.5885
542.97        57.54283
543.41        57.53581
543.85        57.56609
544.29        57.63711
544.72        57.71321
545.16         57.7846
545.60         57.8336
546.04        57.80793
546.47        57.75792
546.91        57.88078
547.35         58.1207
547.79        58.21408
548.22        58.12618
548.66        58.00819
549.10        57.91009
549.53        57.86415
549.97        57.88441
550.41        57.89683
550.84        57.90771
551.28        57.95607
551.72        58.03176
552.15        58.14667
552.59        58.31813
553.03        58.19256
553.46        58.45071
553.90        58.26661
554.34        58.19371
554.77         57.9609
555.21        57.78381
555.65        57.69894
556.08        57.84839
556.52        58.14261
556.96         58.4849
557.39        58.58086
557.83        58.45151
558.27        58.36172
558.70        58.34947
559.14        58.28936
559.57        58.19546
560.01        58.22479
560.45        58.31223
560.88        58.29252
561.32        58.22432
561.75        58.08615
562.19        57.98973
562.63        58.24677
563.06        58.71065
563.50        58.71406
563.93        58.30199
564.37          58.132
564.80        58.23344
565.24         58.3765
565.68         58.5149
566.11        58.59622
566.55        58.61782
566.98         58.7098
567.42        58.84279
567.85        58.71904
568.29        58.48465
568.72        58.49771
569.16        58.73591
569.60         59.1074
570.03        58.99297
570.47        59.08549
570.90        59.16825
571.34        59.34242
571.77        59.48851
572.21        59.32318
572.64        59.38205
573.08          59.046
573.51        59.20583
573.95        59.64207
574.38        59.66723
574.82        59.64962
575.25           59.59
575.69        59.85318
576.12        59.04598
576.56        58.99731
576.99         59.3922
577.42        59.49883
577.86        59.70319
578.29        60.03213
578.73        60.39137
579.16        60.06852
579.60        59.48874
580.03        59.40165
580.47        59.62928
580.90        59.75819
581.33        59.74754
581.77         59.8777
582.20        60.19873
582.64         60.2367
583.07        59.87471
583.51        59.37891
583.94        59.35316
584.37        59.33083
584.81        59.16139
585.24        59.08768
585.68        59.39608
586.11        59.43339
586.54        59.39091
586.98        59.49022
587.41        59.07167
587.85        59.20125
588.28        59.56692
588.71        59.34209
589.15        59.27126
589.58         59.1366
590.01        58.87635
590.45        58.87572
590.88        59.00525
591.31        58.79235
591.75        58.88694
592.18        58.83218
592.61         58.8125
593.05        59.15073
593.48        59.34245
593.91        59.21326
594.35         59.3235
594.78        59.16624
595.21        59.16972
595.65        59.18225
596.08         59.2921
596.51        59.21439
596.94        59.23304
597.38        59.22622
597.81        59.32909
598.24        59.11684
598.68        59.21486
599.11        59.25735
599.54        59.08452
599.97        59.32005
600.41        59.28508
600.84        59.50822
601.27        59.41328
601.70        59.66487
602.14        59.49079
602.57        59.41061
603.00        59.30235
603.43        59.49908
603.87        59.98185
604.30        59.89452
604.73        59.79771
605.16        59.29198
605.60        59.64361
606.03        59.80349
606.46        60.05348
606.89        59.75167
607.32        59.48767
607.76        59.94241
608.19        59.96961
608.62        59.68272
609.05        60.35529
609.48        59.95509
609.92        60.27057
610.35        60.09501
610.78        60.05151
611.21        60.03305
611.64        59.95715
612.07        59.94333
612.50        59.92442
612.94        59.87611
613.37        59.81282
613.80        59.76546
614.23        59.75358
614.66        59.63005
615.09        59.71309
615.52        59.66692
615.96        59.58548
616.39        59.60555
616.82        59.75505
617.25        59.57701
617.68        59.79408
618.11         59.7335
618.54        59.77071
618.97        59.62813
619.40        59.42454
619.84        59.37209
620.27        59.62385
620.70        59.67917
621.13         59.5751
621.56        59.62527
621.99        59.84037
622.42        59.87868
622.85        59.67743
623.28        59.78869
623.71        59.87775
624.14        59.66687
624.57        59.73948
625.00         60.3993
625.43        59.73016
625.86        59.75133
626.29        59.83566
626.72        59.72253
627.15        59.50526
627.58        59.35947
628.01        59.43013
628.44        59.07276
628.87        58.98424
629.30        59.55974
629.73        59.34971
630.16         59.3791
630.59        59.23797
631.02        59.44637
631.45        59.17794
631.88        59.17123
632.31        59.21439
632.74         58.9985
633.17          59.122
633.60        59.06948
634.03        59.02402
634.46        59.02889
634.89        58.99208
635.32        58.98658
635.75        58.97586
636.18        58.96608
636.61        58.95363
637.04        58.93801
637.47        58.91959
637.89        58.90288
638.32        58.87695
638.75        58.84882
639.18        58.82091
639.61        58.79633
640.04        58.77506
640.47        58.75648
640.90        58.74088
641.33        58.72615
641.76        58.72062
642.18        58.74442
642.61        58.78354
643.04        58.83706
643.47        58.88129
643.90        58.88351
644.33        58.83704
644.76        58.74004
645.18        58.62308
645.61        58.55862
646.04        58.54999
646.47        58.52523
646.90        58.48178
647.33        58.48343
647.75        58.52285
648.18        58.54579
648.61        58.57482
649.04        58.67614
649.47        58.77717
649.89         58.9983
650.32        58.72661
650.75        58.70851
651.18        58.77606
651.61        58.85122
652.03        58.91422
652.46        58.89964
652.89        58.83685
653.32         58.8707
653.74        58.98333
654.17        58.92924
654.60        58.63992
655.03        58.60598
655.46         58.4171
655.88        59.17766
656.31        60.52708
656.74        63.97353
657.16        62.56556
657.59        61.15304
658.02        59.69117
658.45        59.51962
658.87        59.31214
659.30        59.27678
659.73        59.11864
660.15        59.02962
660.58        59.52867
661.01         59.5359
661.44        59.24984
661.86        59.13142
662.29         59.1982
662.72        59.23351
663.14        59.21627
663.57        59.14068
664.00        59.03624
664.42        59.02238
664.85        59.11401
665.27        59.10998
665.70        59.18333
666.13        59.21337
666.55        59.25628
666.98        59.28366
667.41        59.29667
667.83        59.31157
668.26        59.33805
668.69        59.31853
669.11        59.24977
669.54        59.32563
669.96        59.59047
670.39        59.23152
670.82        59.64878
671.24        59.55868
671.67        59.40331
672.09        59.37354
672.52        59.47587
672.94        59.41777
673.37        59.22624
673.80        59.17539
674.22        59.27288
674.65        59.30541
675.07        59.28251
675.50        59.29597
675.92        59.35292
676.35        59.40364
676.77        59.44209
677.20        59.49339
677.62        59.56803
678.05        59.60208
678.47        59.57864
678.90        59.78594
679.32        59.71089
679.75        59.77475
680.17        59.82399
680.60        59.87213
681.02        59.90041
681.45        59.89012
681.87         59.8503
682.30        59.75111
682.72         59.6504
683.15        59.66553
683.57        59.75915
684.00        59.88984
684.42        59.69784
684.85        59.70715
685.27        59.80259
685.70        59.87441
686.12        59.89022
686.54        59.90488
686.97        59.91265
687.39        59.90397
687.82        59.88626
688.24        59.95478
688.66        59.91672
689.09        60.14879
689.51        60.12466
689.94        60.20781
690.36        60.23899
690.78         60.1946
691.21        60.09755
691.63        59.96939
692.06        59.87527
692.48        59.92183
692.90        60.07201
693.33        60.15101
693.75        60.14735
694.17        60.09989
694.60        60.03558
695.02        60.16925
695.44        60.22819
695.87        60.29107
696.29        60.27578
696.71        60.17873
697.14        60.06424
697.56        60.17093
697.98        60.41761
698.41        60.58652
698.83        60.43123
699.25        60.33063
699.68        60.25462
700.10         60.1924
700.52         60.1581
700.94        60.16113
701.37        60.18258
701.79        60.22548
702.21        60.26477
702.64        60.30579
703.06        60.34143
703.48        60.36915
703.90        60.39107
704.33        60.40253
704.75        60.40555
705.17        60.38645
705.59         60.3484
706.01        60.29505
706.44         60.2566
706.86        60.29896
707.28        60.41697
707.70        60.58856
708.12        60.76946
708.55         60.8827
708.97        60.90376
709.39        60.86382
709.81        60.78778
710.23        60.72587
710.66        60.70103
711.08        60.70939
711.50         60.7323
711.92        60.75771
712.34        60.77897
712.76          60.798
713.19        60.80935
713.61         60.8455
714.03        60.88554
714.45        60.94059
714.87        60.99399
715.29        60.97911
715.71        60.88649
716.13         60.8909
716.56        60.73538
716.98        60.76102
717.40        60.88245
717.82        61.07851
718.24        61.28783
718.66        61.41425
719.08        61.43412
719.50        61.37466
719.92        61.27826
720.34         61.2121
720.76        61.19918
721.19        61.21192
721.61        61.25597
722.03          61.312
722.45        61.37211
722.87        61.44454
723.29        61.52159
723.71        61.58691
724.13        61.63504
724.55        61.66318
724.97        61.68347
725.39        61.70879
725.81        61.74001
726.23        61.79346
726.65        61.85778
727.07        61.80188
727.49        61.81254
727.91         61.7403
728.33         61.6644
728.75        61.65363
729.17        61.70549
729.59        61.72572
730.01        61.72731
730.43        61.80496
730.85        61.95406
731.27        62.10822
731.69        62.23809
732.10        62.26818
732.52        62.37513
732.94        62.18266
733.36        61.83896
733.78        61.67051
734.20        61.73359
734.62        61.83577
735.04        61.91506
735.46        62.02442
735.88        62.16369
736.30        61.98755
736.72        62.11899
737.13        62.08943
737.55         62.0676
737.97        61.93458
738.39        61.76688
738.81        61.94276
739.23        62.35701
739.65        62.36549
740.06        61.98449
740.48        61.88223
740.90        62.04745
741.32        62.12902
741.74        62.11907
742.16        62.18959
742.57        62.34966
742.99         62.5295
743.41        62.68625
743.83        62.73463
744.25        62.66105
744.67        62.49321
745.08        62.32752
745.50        62.27983
745.92        62.39525
746.34        62.63902
746.75        62.91256
747.17        63.04501
747.59        62.99691
748.01        62.80221
748.42         62.5707
748.84        62.46964
749.26        62.52127
749.68         62.6998
750.09         62.9096
750.51         62.8405
750.93        62.57677
751.35        62.64922
751.76        63.00644
752.18        63.11363
752.60        62.94712
753.01        62.82475
753.43        62.76267
753.85        62.70013
754.27        62.65009
754.68         62.6243
755.10         62.6255
755.52        62.63391
755.93        62.64296
756.35        62.66596
756.77        62.69823
757.18        62.68959
757.60        62.62738
758.02        62.59304
758.43        62.66358
758.85        62.43294
759.26        62.83008
759.68        63.00582
760.10         62.5013
760.51        62.30743
760.93        62.97004
761.34         62.7499
761.76        62.95783
762.18        62.94239
762.59        63.00104
763.01        63.20663
763.42        62.72646
763.84         62.8185
764.26        62.84903
764.67        63.01889
765.09        63.16267
765.50        63.20409
765.92         63.1706
766.33        63.10866
766.75        63.04396
767.16        63.08249
767.58        63.17615
768.00        63.37828
768.41        63.66397
768.83        63.70163
769.24        63.46509
769.66        63.80574
770.07        63.51533
770.49        63.48839
770.90        63.36481
771.32        63.13191
771.73        62.87255
772.15        62.77757
772.56        62.89076
772.97         63.1166
773.39        63.35506
773.80        63.53233
774.22        63.57559
774.63        63.53376
775.05        63.42038
775.46        63.30921
775.88        63.20852
776.29        63.12228
776.70        63.05095
777.12        63.01318
777.53        63.02784
777.95        63.08667
778.36        63.16938
778.77        63.22945
779.19        63.25884
779.60        63.27964
780.02        63.29897
780.43        63.37235
780.84        63.51092
781.26        63.60552
781.67        63.69873
782.09        63.96506
782.50        64.30412
782.91        64.37742
783.33        64.18583
783.74        64.10763
784.15        64.13737
784.57        64.08183
784.98        63.97175
785.39        63.93158
785.81        63.97011
786.22        64.04629
786.63        64.13805
787.04          64.208
787.46          64.256
787.87        64.28132
788.28        64.28098
788.70         64.2405
789.11        64.14481
789.52        64.00099
789.93        63.87918
790.35         63.8829
790.76        64.04601
791.17        64.35201
791.58          64.675
792.00        64.80538
792.41        64.73285
792.82         64.4465
793.23        64.14394
793.65        64.25053
794.06         64.7711
794.47        65.33065
794.88        65.76418
795.29        65.91783
795.71        66.04774
796.12        65.84057
796.53        65.46721
796.94        65.18592
797.35        65.06257
797.76        64.99237
798.18        64.94624
798.59        64.91333
799.00        64.87344
799.41        64.83829
799.82         64.8164
800.23        64.81934
800.64        64.84565
801.06        64.86057
801.47        64.88441
801.88        64.88493
802.29        64.85708
802.70        64.80559
803.11        64.74872
803.52        64.71671
803.93         64.7266
804.34        64.77891
804.75        64.86103
805.17        64.96284
805.58        65.10757
805.99        65.20676
806.40        65.28703
806.81        65.56935
807.22         65.9584
807.63        66.03377
808.04        65.84624
808.45        65.83697
808.86        66.03378
809.27        66.18449
809.68        66.23437
810.09         66.2074
810.50         66.0927
810.91        65.89732
811.32        65.67166
811.73        65.49504
812.14        65.39465
812.55         65.3536
812.96        65.36341
813.37        65.40174
813.78        65.45161
814.19        65.51838
814.60        65.57078
815.01        65.55836
815.42        65.47432
815.83        65.32975
816.24        65.16812
816.65        65.07623
817.05        65.09417
817.46        65.18133
817.87        65.33015
818.28        65.48467
818.69        65.62891
819.10        65.77204
819.51        65.93531
819.92        66.15172
820.33         66.4091
820.74        66.66917
821.14        66.87242
821.55        66.95881
821.96        66.90523
822.37        66.73879
822.78        66.49318
823.19        66.23197
823.60        65.99152
824.00        65.77917
824.41        65.59428
824.82        65.49139
825.23        65.47729
825.64        65.55695
826.04        65.68781
826.45        65.75481
826.86        65.74722
827.27        65.68754
827.68         65.6395
828.08        65.74246
828.49         65.9538
828.90        66.26955
829.31        66.62946
829.72        66.84814
830.12        66.88709
830.53        67.13988
830.94        66.91696
831.35         66.7736
831.75        66.54002
832.16        66.22143
832.57        65.91261
832.97        65.76613
833.38        65.81322
833.79        66.00498
834.20        66.27505
834.60        66.51758
835.01        66.68814
835.42        66.80859
835.82        66.86672
836.23        66.79995
836.64        66.62801
837.04        66.38208
837.45        66.10758
837.86        65.94102
838.26        65.92976
838.67         66.0315
839.08        66.21863
839.48        66.42247
839.89        66.60403
840.29        66.77693
840.70        66.93227
841.11         67.0555
841.51         67.1546
841.92        67.18552
842.33        67.16808
842.73        67.14146
843.14        67.07886
843.54        67.01991
843.95        66.95451
844.35         66.8834
844.76        66.80767
845.17         66.7384
845.57        66.73128
845.98        66.83785
846.38        67.08453
846.79        67.41475
847.19        67.76856
847.60        67.97573
848.00         68.0243
848.41        67.91416
848.81        67.74923
849.22         67.6427
849.62        67.67277
850.03        67.77478
850.43        67.91033
850.84        67.91045
851.24        67.79316
851.65        67.54279
852.05         67.3149
852.46         67.2792
852.86        67.47256
853.27        67.86069
853.67        68.20775
854.07        68.33181
854.48        68.16808
854.88        67.79471
855.29        67.32961
855.69         67.1617
856.10        67.29636
856.50        67.70863
856.90        68.13747
857.31        68.18729
857.71        67.81982
858.12        67.12983
858.52         66.3295
858.92         65.7089
859.33        65.37387
859.73        65.28152
860.13        65.40467
860.54        65.69514
860.94        66.15036
861.34        66.72722
861.75        67.26106
862.15        67.54897
862.55        67.49876
862.96        67.14877
863.36        66.63411
863.76        66.14709
864.17         65.7662
864.57        65.48283
864.97        65.29004
865.38        65.14632
865.78        65.08002
866.18        65.12158
866.58        65.27714
866.99         65.5061
867.39        65.81148
867.79         66.1458
868.19        66.47834
868.60        66.68861
869.00        66.82819
869.40        67.09825
869.80        67.37629
870.21        67.24403
870.61        66.71711
871.01        65.99741
871.41        65.28497
871.81        64.76633
872.22        64.52245
872.62        64.52193
873.02        64.70419
873.42        65.11538
873.82        65.50428
874.22         65.3799
874.63        65.02282
875.03        64.99533
875.43        65.35844
875.83        66.75303
876.23        66.46478
876.63        65.82455
877.03        64.54195
877.44        62.07163
877.84        168.4735
878.24         62.3434
878.64        63.21458
879.04        65.04189
879.44        65.93039
879.84        62.95496
880.24        67.78011
880.64        67.82171
881.04        65.32892
881.44        63.55853
881.84        63.13752
882.24        64.08693
882.65        65.60355
883.05        66.07189
883.45        65.18003
883.85        63.85281
884.25        62.67839
884.65        62.19992
885.05        62.59864
885.45        63.59113
885.85        64.75454
886.25        65.51766
886.65        65.71844
887.05        65.53778
887.45        65.10738
887.85        64.64175
888.25        64.25529
888.65        63.88832
889.04        63.60293
889.44        63.52203
889.84        63.65471
890.24        63.97424
890.64        64.39624
891.04        64.77831
891.44        65.07442
891.84        65.31423
892.24        65.46685
892.64        65.49203
893.04        65.39861
893.44        65.19942
893.83        65.01748
894.23        65.01474
894.63        65.23974
895.03         65.6638
895.43        66.16483
895.83        66.52634
896.23        66.68422
896.63        66.67543
897.02        66.61499
897.42         66.7449
897.82        67.06725
898.22        67.49998
898.62        67.85606
899.01        67.84805
899.41        67.40369
899.81        66.65502
900.21        65.80936
900.61        65.20169
901.00        64.92706
901.40         64.9577
901.80        65.19954
902.20         65.3614
902.59        65.35622
902.99        65.52023
903.39        65.96892
903.79        65.28996
904.18         66.0155
904.58        66.05728
904.98        66.09956
905.38        65.99377
905.77        65.72647
906.17        65.37103
906.57        64.96667
906.96        64.67274
907.36        64.53758
907.76        64.54664
908.15        64.70855
908.55         64.8877
908.95        65.08736
909.34        65.27187
909.74        65.49004
910.14        65.77772
910.53        66.12178
910.93        66.49062
911.33        66.72375
911.72        66.57619
912.12        66.04066
912.52        65.21673
912.91        64.36752
913.31        63.98696
913.70        64.15825
914.10        64.74792
914.49        65.51033
914.89        65.93298
915.29        65.89172
915.68        65.50963
916.08        65.02177
916.47        64.75384
916.87        64.83112
917.26        65.14874
917.66        65.54134
918.05        65.77113
918.45        65.75767
918.84        65.58966
919.24        65.42872
919.64        65.58933
920.03        66.11601
920.42        66.85399
920.82        67.52972
921.21        67.73711
921.61        67.41185
922.00        66.76577
922.40        66.07504
922.79         65.6509
923.19        65.24744
923.58        65.61429
923.98        67.06679
924.37        67.13751
924.77        64.44179
925.16        72.36014
925.55        66.63024
925.95        67.16412
926.34        67.08643
926.74         66.2682
927.13        64.75394
927.52        63.81996
927.92        64.00449
928.31         64.6232
928.70        65.47936
929.10        66.21453
929.49        66.73812
929.89        67.17577
930.28        67.43395
930.67        67.24192
931.07        66.61272
931.46         65.5232
931.85         64.3896
932.24        64.36631
932.64        65.62137
933.03        67.22598
933.42         68.2942
933.82        70.72952
934.21        69.30437
934.60        68.13538
934.99        66.87885
935.39        66.51292
935.78         67.0881
936.17        68.93462
936.56        74.94647
936.96        68.20792
937.35        71.86095
937.74        68.78829
938.13        66.58796
938.53        64.69082
938.92        63.78139
939.31        64.43602
939.70        65.63519
940.09         66.3942
940.49        66.45496
940.88        66.18864
941.27        65.85184
941.66        65.88028
942.05        66.40122
942.44         67.1637
942.84        67.87321
943.23        68.24702
943.62        68.20396
944.01        67.84309
944.40        67.40663
944.79        67.29421
945.18        67.59913
945.57        68.18669
945.97        68.73911
946.36        68.87198
946.75        68.44434
947.14        67.58881
947.53        66.58354
947.92        65.91034
948.31         65.7267
948.70         65.9047
949.09        66.20724
949.48        66.25821
949.87        65.97495
950.26        65.49846
950.65        65.02511
951.04        64.86323
951.43        65.09096
951.82        65.57465
952.21        66.16068
952.60        66.60543
952.99        66.79022
953.38        66.76215
953.77        66.56355
954.16         66.2432
954.55        65.84813
954.94        65.41374
955.33        64.93476
955.72        64.42927
956.11        63.94835
956.50        63.48634
956.89        63.28211
957.28         63.6786
957.66         64.7069
958.05        66.16879
958.44        67.54617
958.83        68.06503
959.22        67.56917
959.61        66.20367
960.00        64.55361
960.39        63.78045
960.78        64.22784
961.16        65.56695
961.55        66.98228
961.94        67.46028
962.33        66.80969
962.72        65.31308
963.11         63.5653
963.49        62.78117
963.88        63.35394
964.27        64.83257
964.66        66.48792
965.04        67.34496
965.43        67.13653
965.82        66.22235
966.21        65.00382
966.60        64.17796
966.98        64.00364
967.37        64.25262
967.76        64.72374
968.15        65.10093
968.53        65.28698
968.92        65.38698
969.31        65.46327
969.69        65.57667
970.08        65.72015
970.47        65.82909
970.86         65.9193
971.24        66.05471
971.63        66.22169
972.02        66.42743
972.40        66.59435
972.79        66.50654
973.17        66.19792
973.56        65.73361
973.95        65.30822
974.33        65.26534
974.72        65.66865
975.11        66.36473
975.49        67.22131
975.88        67.94636
976.26        68.49203
976.65        68.86323
977.04        68.99172
977.42        68.73118
977.81        68.05705
978.19        66.97736
978.58        65.99496
978.96        65.95953
979.35        67.00294
979.74        68.73999
980.12        70.56419
980.51        71.57153
980.89        71.74744
981.28         71.2436
981.66        70.28519
982.05        69.50571
982.43        69.16725
982.82        69.14961
983.20        69.27832
983.59        69.21679
983.97        68.93255
984.35        68.53663
984.74        68.15987
985.12        68.08383
985.51        68.31844
985.89        68.78194
986.28        69.26176
986.66        69.53791
987.04        69.60489
987.43        69.45528
987.81        68.92175
988.20         69.1833
988.58        70.51699
988.96        70.21053
989.35        67.59013
989.73        73.66357
990.12        70.29754
990.50        71.34187
990.88        71.74767
991.27        71.77701
991.65        71.23251
992.03        70.32774
992.42        69.46746
992.80        68.80918
993.18        68.49173
993.56        68.54854
993.95        68.75477
994.33        68.68226
994.71        68.25891
995.10        67.58966
995.48        67.05925
995.86        67.27763
996.24        68.32307
996.63        69.86365
997.01        71.46576
997.39        72.26914
997.77         72.0548
998.15        71.06595
998.54        69.75512
998.92        68.72961
999.30        68.25127
999.68        68.23853
1000.06        68.46249
1000.45        68.41537
1000.83        68.06666
1001.21        67.60284
1001.59        67.47842
1001.97        68.30314
1002.35        70.01473
1002.73        72.18452
1003.12        74.25092
1003.50         75.6188
1003.88         76.1814
1004.26        76.14268
1004.64        75.68742
1005.02         75.2015
1005.40        74.86732
1005.78        74.56261
1006.16        74.28861
1006.54        74.02757
1006.92        73.77721
1007.30        73.65976
1007.69        73.54292
1008.07         73.2669
1008.45        72.77417
1008.83        72.06254
1009.21        71.43461
1009.59        71.54904
1009.97        72.46637
1010.35        73.77424
1010.73        74.95174
1011.11        75.68562
1011.49        76.07784
1011.86        75.93365
1012.24        75.08251
1012.62        76.65945
1013.00        77.55601
1013.38        77.49188
1013.76        75.09344
1014.14        79.35818
1014.52        85.76551
1014.90        78.12344
1015.28        79.62492
1015.66        81.18194
1016.04        77.57931
1016.41        77.68605
1016.79        76.66105
1017.17        76.41134
1017.55        76.39627
1017.93        76.83145
1018.31        77.72531
1018.69        78.45285
1019.06        78.92605
1019.44        79.24837
1019.82         79.3876
1020.20        79.25718
1020.58        78.86392
1020.95        78.04312
1021.33        77.15794
1021.71        77.00079
1022.09        77.84103
1022.46        79.26359
1022.84        80.47461
1023.22        80.90556
1023.60        80.62103
1023.97        79.84039
1024.35        78.88519
1024.73        78.43334
