SpectraSmart Spectrum 2.9.0.0
--------- Device Information -----------
Spectrum Name :  反射率_0
Saving Time :  2024/04/21 00:04:17
Spectro-Module Model Name : SE2030-DUVN
Spectro-Module Serial Number : OS361AC55029948
Wavelength Start : 200
Wavelength End : 1025
Wavelength Unit : Wavelength(nm)
Spectrum Unit : Reflectance(%)
-----------Spectrum Setting ------------
Integration Time : 20ms
Average : 10
Boxcar : 0
Background removal :  enabled
linearity correction :  enabled
SC :  disabled
Intensity correction :  disabled
DWT denoise :  enabled
savitzky-golay :  disabled
FFT :  disabled
Running average :  disabled
Kalman :  disabled
High pass :  disabled
---------------BEGIN--------------------
Wavelength(nm)             Reflectance(%)
200.29               0
200.75       -83.37473
201.21       -18.56946
201.67        17.61689
202.13        29.78115
202.58        27.25227
203.04         15.3768
203.50       -2.115009
203.96       -13.98275
204.42       -14.16754
204.88       -7.209885
205.34        1.426876
205.80        4.221848
206.26       -1.159737
206.72       -11.77293
207.18       -26.88324
207.64       -43.57951
208.10        -56.2505
208.55       -65.24811
209.01        -59.5673
209.47       -32.23366
209.93       -4.473703
210.39        15.16339
210.85        26.85816
211.31         31.7989
211.77        32.15429
212.23        28.92908
212.69        19.13642
213.14       -3.946047
213.60       -55.40008
214.06       -222.3519
214.52       -624.1799
214.98       -277.7207
215.44        -63.2319
215.90        8.710455
216.36        32.15936
216.81         33.6911
217.27        16.50741
217.73       -72.01358
218.19        991.8726
218.65        422.1382
219.11       -868.1492
219.57       -22.63564
220.02        30.17033
220.48        37.98844
220.94        29.60707
221.40         1.83218
221.86       -64.32501
222.32       -110.2906
222.77       -54.36155
223.23       -3.605905
223.69        22.59181
224.15         32.0402
224.61        32.85704
225.06        29.81024
225.52        24.18587
225.98        17.27164
226.44         10.1669
226.90        1.428748
227.36       -4.860983
227.81       -1.107736
228.27        9.165139
228.73        20.41802
229.19        28.00503
229.65        29.52285
230.10        26.01546
230.56        19.21378
231.02        10.51918
231.48        5.037234
231.93        6.306057
232.39        12.27168
232.85        18.72908
233.31        22.15505
233.77        22.79875
234.22        22.26202
234.68        21.07097
235.14        20.14455
235.60        20.17409
236.05         20.0207
236.51        19.60324
236.97        24.72872
237.43         35.4287
237.88        41.74129
238.34         39.5932
238.80        60.23525
239.26        48.13139
239.71        43.88159
240.17        32.60439
240.63        21.80715
241.08        17.05707
241.54        22.92785
242.00        37.59348
242.46        45.60126
242.91        42.51093
243.37        28.54618
243.83        7.121617
244.28       -4.744843
244.74        3.252647
245.20        21.81954
245.66        40.28238
246.11        48.83135
246.57        46.50971
247.03         36.8788
247.48        22.44488
247.94        7.237386
248.40       -10.13996
248.85       -46.65007
249.31        -153.487
249.77       -245.2589
250.22       -86.42512
250.68       -16.83526
251.14        5.886141
251.59        11.24468
252.05        8.933509
252.51        1.842394
252.96       -9.478424
253.42       -16.99735
253.88       -13.72297
254.33       -3.010864
254.79        12.16327
255.25        27.44868
255.70        39.39813
256.16        47.84824
256.62        53.15831
257.07        55.74618
257.53        56.91162
257.99        57.17279
258.44        56.62502
258.90        55.98019
259.35        54.92556
259.81        53.84908
260.27        52.79578
260.72        51.90713
261.18        51.43303
261.63        51.01486
262.09        50.55754
262.55        49.57727
263.00         48.0621
263.46        46.39263
263.91        44.76939
264.37        43.84679
264.83        43.56011
265.28        43.62103
265.74        43.76569
266.19        43.47352
266.65        42.72865
267.11        41.64235
267.56        40.40559
268.02        39.39285
268.47        38.64125
268.93        38.07497
269.38        37.48653
269.84        36.62449
270.30        35.44094
270.75        34.05198
271.21        32.70254
271.66        31.69297
272.12        31.10474
272.57        30.79358
273.03        30.58324
273.48        30.17909
273.94        29.53722
274.39        28.73827
274.85         27.9088
275.31        27.16731
275.76        26.55849
276.22        26.07286
276.67        25.69518
277.13         25.4797
277.58        25.37119
278.04        25.36029
278.49        25.34957
278.95        25.27364
279.40        25.06732
279.86         24.7772
280.31        24.37901
280.77        23.92378
281.22        23.41057
281.68         22.9059
282.13        22.40638
282.59        21.97725
283.04        21.61299
283.50        21.31882
283.95        21.13294
284.41        21.13113
284.86        21.29265
285.32        21.59412
285.77        21.88596
286.22        21.96597
286.68        21.82755
287.13        21.50152
287.59        21.19492
288.04        21.12075
288.50        21.29329
288.95         21.7553
289.41         22.3816
289.86        22.49282
290.32        21.97184
290.77        22.85851
291.22        21.95157
291.68        22.08281
292.13        22.32797
292.59        22.73023
293.04        23.26578
293.50        23.97346
293.95        24.85972
294.40        25.89482
294.86        27.01588
295.31        28.10635
295.77        29.13925
296.22        30.13012
296.68         31.1486
297.13        32.30181
297.58        33.62862
298.04        35.09601
298.49        36.65788
298.95        38.25929
299.40        39.85509
299.85        41.46494
300.31        43.07601
300.76        44.64708
301.21        46.18472
301.67        47.71846
302.12        49.26771
302.58         50.9637
303.03        52.80213
303.48        54.79712
303.94        56.89558
304.39        58.96078
304.84        60.96029
305.30        62.92672
305.75        64.86999
306.20         66.9133
306.66        69.06029
307.11        71.20859
307.57        73.28001
308.02        75.09361
308.47        76.64571
308.93        78.03642
309.38        79.31649
309.83        80.61401
310.29        82.03957
310.74         83.4736
311.19         84.9065
311.65        86.27546
312.10        87.54182
312.55         88.7358
313.00        89.84988
313.46        90.87373
313.91        91.79063
314.36        92.59961
314.82        93.34228
315.27        94.08204
315.72        94.84238
316.18        95.61929
316.63        96.35482
317.08        96.95265
317.53          97.397
317.99        97.71793
318.44        98.00664
318.89        98.39553
319.35        98.90788
319.80        99.49999
320.25        100.0835
320.70        100.5202
321.16        100.7645
321.61        100.8831
322.06        100.9221
322.51        100.9648
322.97        101.0335
323.42         101.139
323.87        101.2848
324.32        101.4951
324.78        101.7508
325.23        102.0913
325.68        102.4548
326.13        102.7628
326.59        102.9698
327.04        103.1385
327.49        103.2927
327.94        103.5154
328.39        103.8294
328.85        104.1824
329.30         104.585
329.75        104.9252
330.20        105.1771
330.66        105.3267
331.11        105.4932
331.56         105.739
332.01        106.0922
332.46        106.5375
332.92        106.9601
333.37        107.3066
333.82        107.5113
334.27        107.6175
334.72        107.7495
335.17        108.1121
335.63        108.7209
336.08        109.5677
336.53        110.4846
336.98        111.2408
337.43        111.7593
337.88        112.0938
338.34        112.3112
338.79        112.5898
339.24        112.9594
339.69        113.3762
340.14        113.7931
340.59        114.1454
341.05        114.4212
341.50        114.6595
341.95        114.9118
342.40        115.2552
342.85        115.7029
343.30        116.2257
343.75        116.7426
344.20        117.1335
344.66        117.3795
345.11        117.4957
345.56        117.5692
346.01        117.7385
346.46        118.0362
346.91        118.4004
347.36        118.7368
347.81        118.9602
348.26        119.0596
348.72        118.8693
349.17         118.855
349.62        118.8352
350.07        118.9622
350.52        119.1715
350.97        119.4073
351.42        119.5741
351.87        119.6242
352.32        119.5807
352.77        119.4417
353.22        119.2021
353.67        118.8764
354.13        118.4946
354.58        118.0531
355.03        117.6069
355.48        117.1782
355.93        116.7543
356.38        116.3758
356.83        116.0951
357.28         115.896
357.73        115.7507
358.18        115.5359
358.63        115.0578
359.08        114.2907
359.53        113.3087
359.98        112.2609
360.43        111.3762
360.88        110.7088
361.33         110.187
361.78        109.7265
362.23        109.1904
362.68        108.5344
363.13        107.8085
363.58        107.0259
364.03        106.2008
364.48        105.3487
364.93        104.4609
365.38        103.5746
365.83        102.7605
366.28        102.0317
366.73        101.3672
367.18        100.7329
367.63        100.0676
368.08        99.35486
368.53        98.62225
368.98        97.85899
369.43        97.03821
369.88        96.15948
370.33          95.222
370.78        94.29528
371.23        93.51823
371.68        92.92952
372.13          92.493
372.58        92.11887
373.03        91.64742
373.48        91.03017
373.93        90.31372
374.38        89.54608
374.83        88.82061
375.28        88.17946
375.72        87.57585
376.17        87.04088
376.62        86.54689
377.07        86.06793
377.52        85.59878
377.97        85.10817
378.42        84.55701
378.87        83.95437
379.32        83.32726
379.77        82.70382
380.22        82.10969
380.67        81.54237
381.11        80.99465
381.56        80.46396
382.01        79.97028
382.46        79.52878
382.91        79.14648
383.36        78.79504
383.81        78.42633
384.26        78.02399
384.71        77.58813
385.15        77.14697
385.60        76.81075
386.05        76.56773
386.50        76.39543
386.95         76.2051
387.40        75.86703
387.85        75.37649
388.29        74.74343
388.74        74.18394
389.19        73.80257
389.64        73.60577
390.09        73.52686
390.54        73.46377
390.98        73.23993
391.43        72.86639
391.88         72.4064
392.33        71.92925
392.78        71.54376
393.23        71.27842
393.67        71.01379
394.12        70.82998
394.57        70.77572
395.02        70.78346
395.47        70.62605
395.91        70.31828
396.36        70.05697
396.81        69.88174
397.26        69.70686
397.71        69.49704
398.15        69.25814
398.60        69.06683
399.05        68.72659
399.50        68.38651
399.95        68.51025
400.39         68.9615
400.84        69.10718
401.29        68.84563
401.74        68.24628
402.18        67.51817
402.63        67.25369
403.08        67.40636
403.53         67.2365
403.97        66.72813
404.42        66.42155
404.87        66.33305
405.32        66.25732
405.76         66.1748
406.21        66.11505
406.66        66.08633
407.11        66.13621
407.55        66.24011
408.00        66.31892
408.45        66.31031
408.90        65.96413
409.34        65.40199
409.79         65.1804
410.24        65.29051
410.68        65.28296
411.13        65.15228
411.58        65.19076
412.03        65.36287
412.47        65.45467
412.92        65.40895
413.37        65.30083
413.81        65.16895
414.26        65.12142
414.71        65.16206
415.15        65.27411
415.60        65.38074
416.05        65.41377
416.49        65.35406
416.94        65.21532
417.39        65.06069
417.83        64.97699
418.28        64.98373
418.73          65.049
419.17        65.10805
419.62        65.06702
420.07        64.91119
420.51        64.67949
420.96        64.46143
421.41        64.34738
421.85         64.3339
422.30        64.40945
422.74        64.51972
423.19        64.72157
423.64        64.97458
424.08        65.23712
424.53        65.39983
424.98        65.51218
425.42        65.58604
425.87        65.41563
426.31        65.13766
426.76        65.33338
427.21        65.89944
427.65        65.98733
428.10         65.5745
428.54        65.57544
428.99        65.66538
429.44        65.79152
429.88        65.78759
430.33        65.72829
430.77        65.61626
431.22        65.71979
431.66        66.00615
432.11        66.28365
432.56        66.52448
433.00        66.60473
433.45        66.31546
433.89        66.19463
434.34        66.46545
434.78        65.44015
435.23        65.36117
435.67         66.6807
436.12        67.04198
436.57        67.30717
437.01        66.78799
437.46        66.46482
437.90        67.05034
438.35        67.31509
438.79        67.22078
439.24         67.2441
439.68        67.34702
440.13        67.35867
440.57        67.29554
441.02         67.5424
441.46        67.97492
441.91        67.84908
442.35        67.30164
442.80          67.594
443.24        68.51521
443.69        68.62339
444.13        67.91814
444.58        67.90946
445.02         67.8852
445.47        68.18601
445.91        68.45863
446.36        68.56984
446.80        68.47404
447.24        68.28361
447.69        68.12616
448.13        68.15347
448.58        68.40182
449.02        68.46024
449.47        68.34743
449.91        68.33625
450.36        68.44344
450.80         68.4105
451.25        68.28637
451.69         68.3203
452.13        68.47208
452.58        68.39966
453.02        68.12408
453.47        67.98374
453.91        67.98083
454.36        67.94007
454.80         67.8736
455.24         67.8468
455.69        67.86568
456.13        67.95966
456.58         68.1011
457.02        67.90252
457.46        67.66522
457.91        67.48851
458.35        67.54359
458.79        67.45161
459.24        67.26221
459.68        67.12756
460.13        67.07669
460.57        67.10065
461.01        66.58112
461.46        67.02045
461.90        66.50288
462.34        66.54924
462.79        66.53679
463.23        66.55164
463.68        66.81725
464.12        66.52688
464.56        65.96753
465.01        66.22789
465.45        66.97882
465.89        66.93543
466.34        66.25014
466.78        65.86815
467.22        65.81946
467.67        66.29481
468.11        65.81984
468.55        65.71934
468.99        65.58849
469.44        65.51477
469.88        65.49079
470.32        65.43129
470.77        65.34873
471.21        65.28648
471.65        65.24696
472.10        65.21968
472.54          65.167
472.98        65.06432
473.42        64.91575
473.87        64.73167
474.31        64.54794
474.75        64.55054
475.20        64.71945
475.64        64.88723
476.08        64.98782
476.52        65.04033
476.97        65.01746
477.41        64.92448
477.85        64.79999
478.29        64.58969
478.74        64.67718
479.18         64.5646
479.62        64.90023
480.06        64.97318
480.50        64.96063
480.95        64.93652
481.39        64.87046
481.83        64.82051
482.27        65.34366
482.72        64.67619
483.16         65.0222
483.60        65.33395
484.04        65.35576
484.48        65.08726
484.93        65.11301
485.37        64.91344
485.81        65.47625
486.25        65.01494
486.69        65.70259
487.14        65.36713
487.58        64.77041
488.02        65.09898
488.46         64.7207
488.90         64.8593
489.34        64.58862
489.79        64.39285
490.23        64.52875
490.67        64.79373
491.11        65.17316
491.55        65.09332
491.99        64.64186
492.43        64.45135
492.88        64.56315
493.32        64.63203
493.76        64.56837
494.20        64.55743
494.64        64.62227
495.08        64.27325
495.52        64.10723
495.96        64.37114
496.41        65.00954
496.85        64.94408
497.29        64.22726
497.73        64.07059
498.17         64.1534
498.61         64.2233
499.05        64.12685
499.49        63.97532
499.93        63.85736
500.37        63.98924
500.82        64.28645
501.26        64.50402
501.70        64.55852
502.14        64.10709
502.58         63.7973
503.02        63.57979
503.46        63.60297
503.90        63.72157
504.34        63.84783
504.78        63.94811
505.22        64.00965
505.66        63.96424
506.10        63.82548
506.54        63.85818
506.98        64.12159
507.42        63.49812
507.86        64.09763
508.30        63.70743
508.74        63.85475
509.18        63.75593
509.62        63.69477
510.06        63.66102
510.50        63.62613
510.94        63.52671
511.38        63.38729
511.82        63.34514
512.26        63.40631
512.70        63.50109
513.14        63.59244
513.58        63.64039
514.02        63.62866
514.46        63.57578
514.90        63.48022
515.34        63.37578
515.78        63.28097
516.22        63.16586
516.66        62.91434
517.10        63.15964
517.54        63.06718
517.98        63.27162
518.42        63.45595
518.86        63.52668
519.30        63.45807
519.74        63.24871
520.18        63.00584
520.62        62.97691
521.06        63.14744
521.50        63.24321
521.93        63.22622
522.37        63.23651
522.81        63.26308
523.25        63.20912
523.69        63.09412
524.13         63.0047
524.57        62.95616
525.01        62.92131
525.45        62.90945
525.89        62.93713
526.32        62.99939
526.76        63.09874
527.20        63.20271
527.64        63.25968
528.08        63.25644
528.52        63.20555
528.96        63.13743
529.40        63.09436
529.83        63.08504
530.27        63.12774
530.71        63.17868
531.15        63.16524
531.59        63.07932
532.03         62.9547
532.46        62.83249
532.90        62.78992
533.34        62.83678
533.78        62.94364
534.22        63.06986
534.66        63.15485
535.09        63.17046
535.53        63.15512
535.97        63.10835
536.41        63.04702
536.85         62.9819
537.28        62.90954
537.72        62.84173
538.16        62.80171
538.60        62.79146
539.04        62.80441
539.47        62.81507
539.91        62.83411
540.35        62.83976
540.79        62.83968
541.22        62.82006
541.66        62.77394
542.10        62.70044
542.54         62.6032
542.97        62.50961
543.41        62.49488
543.85        62.56336
544.29        62.70426
544.72         62.8531
545.16        62.95611
545.60        62.98185
546.04        62.89626
546.47        62.77308
546.91         62.8227
547.35        63.00555
547.79        63.11285
548.22         63.0722
548.66        62.88993
549.10        62.63736
549.53        62.51554
549.97        62.54588
550.41        62.53166
550.84        62.47115
551.28        62.51288
551.72        62.63886
552.15        62.72337
552.59        62.75993
553.03        62.82033
553.46        62.82156
553.90         62.7981
554.34        62.71354
554.77        62.64085
555.21        62.65125
555.65         62.4611
556.08        62.64763
556.52        62.79099
556.96        63.00179
557.39        63.03597
557.83        62.88839
558.27        63.06257
558.70        62.88052
559.14        62.87586
559.57        62.83624
560.01        62.90393
560.45        63.00559
560.88        62.89787
561.32        62.68913
561.75        62.60986
562.19        62.70591
562.63        62.84583
563.06         62.9473
563.50        62.88709
563.93        62.68216
564.37        62.52345
564.80        62.45054
565.24         62.5545
565.68        62.78587
566.11        62.90462
566.55        62.90022
566.98         62.9896
567.42        63.14909
567.85        62.98701
568.29        62.64951
568.72        62.64726
569.16        62.99661
569.60        63.06723
570.03        63.14833
570.47        63.23101
570.90        63.33331
571.34        63.50021
571.77        63.65179
572.21        63.43382
572.64          63.475
573.08        63.29579
573.51        63.36282
573.95         63.7495
574.38        63.56139
574.82        64.05402
575.25        63.78659
575.69         63.8569
576.12        63.44345
576.56        63.54713
576.99        63.51323
577.42        63.51441
577.86        63.70925
578.29        64.17078
578.73        64.23154
579.16        63.72879
579.60        63.33095
580.03        63.52723
580.47        63.66827
580.90        63.46804
581.33        63.59769
581.77        63.88208
582.20        63.84153
582.64        64.14175
583.07        63.83879
583.51        63.72087
583.94        63.36861
584.37        63.41312
584.81        63.02161
585.24        63.15744
585.68         63.9238
586.11        63.61727
586.54        63.49017
586.98         63.6137
587.41        63.37769
587.85        63.54367
588.28        63.74469
588.71         63.9279
589.15        63.77247
589.58        63.33364
590.01         63.3051
590.45        63.16504
590.88        63.32885
591.31        62.97643
591.75         62.9672
592.18        62.96666
592.61        63.08337
593.05        63.79866
593.48        63.72456
593.91        63.50747
594.35        63.76387
594.78        63.52513
595.21        63.34484
595.65        63.34236
596.08        63.57426
596.51          63.656
596.94        63.39796
597.38        63.36095
597.81        63.58575
598.24        63.15051
598.68        63.18838
599.11         63.1704
599.54        63.77964
599.97        63.54811
600.41        63.27714
600.84        63.73326
601.27        63.78603
601.70        63.13008
602.14        63.13108
602.57        63.03318
603.00        63.35219
603.43        63.49847
603.87        63.98015
604.30        63.77311
604.73        63.62178
605.16        62.98234
605.60        63.31609
606.03        63.40592
606.46        63.60329
606.89        63.29231
607.32        63.07105
607.76        63.63642
608.19        63.55809
608.62        63.29939
609.05        63.85406
609.48        63.43291
609.92        63.72439
610.35        63.28651
610.78        63.32908
611.21        63.57409
611.64        63.28537
612.07        63.31335
612.50        63.35559
612.94        63.35363
613.37        63.30025
613.80        63.34837
614.23        63.38322
614.66        63.23245
615.09        62.93747
615.52        62.96211
615.96        63.27128
616.39        63.31403
616.82         63.0365
617.25        63.28317
617.68        63.00342
618.11        63.00279
618.54        63.13121
618.97        63.00609
619.40        62.68155
619.84        62.83903
620.27        62.87736
620.70        62.89113
621.13        62.72581
621.56        62.80292
621.99        63.09772
622.42        63.20688
622.85        63.08488
623.28        63.16618
623.71        63.04318
624.14        63.25489
624.57        63.23937
625.00         63.5891
625.43        63.07207
625.86         63.0676
626.29        63.30185
626.72        62.77847
627.15         62.9716
627.58        62.83245
628.01        62.81801
628.44        62.76354
628.87         62.6728
629.30        62.88399
629.73        62.72189
630.16        62.85135
630.59        62.80497
631.02        63.04794
631.45        62.64246
631.88        62.62911
632.31        62.77887
632.74        62.62273
633.17        62.77258
633.60        62.71423
634.03        62.63986
634.46        62.58549
634.89        62.48147
635.32        62.45174
635.75        62.46781
636.18        62.52588
636.61        62.59517
637.04         62.6277
637.47        62.61039
637.89        62.56403
638.32        62.50268
638.75        62.44875
639.18        62.40862
639.61        62.42754
640.04        62.50177
640.47        62.37186
640.90        62.41548
641.33        62.38205
641.76        62.39226
642.18        62.41981
642.61        62.45403
643.04        62.51355
643.47        62.57909
643.90        62.62373
644.33        62.63995
644.76        62.62323
645.18        62.58963
645.61        62.58585
646.04        62.60602
646.47        62.58629
646.90        62.53035
647.33        62.49359
647.75        62.47051
648.18        62.45908
648.61        62.47171
649.04        62.44818
649.47        62.36361
649.89        62.59601
650.32        62.46589
650.75        62.49611
651.18        62.49301
651.61        62.52406
652.03          62.553
652.46        62.50581
652.89        62.44997
653.32        62.36052
653.74        62.21405
654.17        62.63875
654.60        62.39346
655.03        62.30661
655.46        62.29763
655.88        62.96186
656.31        63.93603
656.74        67.30882
657.16        65.87648
657.59        64.21275
658.02        62.44239
658.45         62.8146
658.87        62.34262
659.30        62.54934
659.73        62.55754
660.15        62.09044
660.58        62.50663
661.01        62.69789
661.44        62.96101
661.86        63.01408
662.29        62.84427
662.72         62.5444
663.14        62.23781
663.57        62.21621
664.00        62.44064
664.42        62.51678
664.85        62.43375
665.27        62.33406
665.70        62.43586
666.13        62.47969
666.55        62.52826
666.98        62.59269
667.41        62.65421
667.83        62.69429
668.26        62.71589
668.69          62.658
669.11        62.53767
669.54        62.61057
669.96        62.93924
670.39        62.61571
670.82        63.08899
671.24          63.077
671.67        63.00063
672.09        62.77834
672.52        62.52938
672.94        62.50405
673.37        62.66576
673.80        62.68706
674.22        62.57369
674.65        62.55148
675.07        62.62888
675.50        62.67175
675.92        62.68701
676.35        62.64238
676.77        62.51574
677.20        62.72709
677.62        62.59501
678.05        62.63092
678.47        62.60007
678.90        62.88796
679.32        63.01821
679.75         62.8724
680.17        63.12084
680.60         63.1195
681.02        63.11224
681.45         63.0761
681.87        63.02971
682.30        62.97001
682.72        62.91436
683.15         62.8554
683.57         62.8015
684.00        62.91073
684.42        62.82204
684.85        62.95156
685.27        62.90207
685.70        62.92565
686.12        62.91712
686.54         62.8786
686.97        62.80469
687.39        62.73251
687.82        62.68214
688.24        62.64994
688.66         62.6216
689.09        62.84383
689.51        62.83423
689.94        62.98483
690.36        63.12818
690.78        63.23943
691.21        63.30192
691.63         63.2478
692.06        63.16702
692.48         63.1624
692.90         63.2444
693.33        63.28935
693.75        63.30285
694.17         63.3096
694.60        63.30748
695.02        63.47054
695.44        63.49671
695.87        63.49781
696.29        63.42161
696.71        63.27051
697.14        63.12969
697.56        63.33057
697.98        63.75494
698.41         63.8672
698.83        63.74208
699.25        63.54128
699.68        63.37472
700.10        63.27211
700.52        63.26435
700.94        63.34262
701.37        63.44008
701.79        63.49258
702.21        63.45863
702.64        63.36975
703.06        63.26674
703.48        63.22097
703.90        63.25201
704.33        63.32993
704.75        63.42144
705.17        63.45487
705.59        63.41545
706.01        63.32808
706.44        63.23979
706.86        63.23848
707.28        63.32831
707.70        63.49541
708.12         63.6969
708.55        63.81466
708.97        63.84192
709.39        63.91241
709.81        64.00797
710.23        64.00539
710.66        63.90512
711.08         63.7881
711.50        63.68189
711.92        63.61865
712.34        63.61295
712.76        63.65709
713.19         63.7244
713.61        63.81173
714.03        63.88288
714.45        63.95735
714.87        64.02882
715.29        64.04503
715.71        63.99717
716.13        64.05853
716.56        63.93747
716.98        63.96033
717.40        64.03268
717.82         64.1475
718.24        64.26868
718.66        64.34086
719.08        64.35204
719.50        64.31576
719.92        64.26376
720.34        64.24451
720.76        64.27192
721.19        64.32548
721.61        64.39777
722.03        64.44646
722.45        64.46292
722.87        64.46029
723.29        64.46361
723.71        64.51289
724.13        64.61398
724.55        64.74556
724.97        64.87936
725.39         64.9717
725.81        65.00854
726.23        65.00494
726.65        64.96867
727.07        64.91635
727.49        64.86199
727.91        64.79395
728.33        64.73601
728.75        64.75925
729.17        64.85669
729.59        64.94448
730.01        65.01822
730.43        65.12845
730.85        65.26263
731.27         65.3693
731.69        65.44288
732.10         65.4357
732.52        65.55609
732.94        65.40208
733.36        65.09166
733.78        64.95251
734.20        65.05286
734.62        64.92122
735.04        65.02908
735.46        65.09559
735.88        65.29053
736.30        65.03901
736.72        65.25421
737.13        65.28928
737.55        65.33843
737.97        65.17108
738.39        64.88163
738.81        64.85566
739.23        65.09145
739.65        65.26337
740.06        65.25774
740.48        65.29655
740.90        65.34949
741.32        65.02969
741.74        64.93823
742.16        64.81196
742.57        64.86148
742.99        65.00974
743.41        65.19881
743.83        65.30414
744.25        65.28939
744.67        65.19059
745.08        65.09641
745.50        65.10932
745.92        65.26771
746.34        65.53167
746.75        65.79331
747.17        65.87973
747.59        65.76054
748.01        65.46159
748.42        65.12364
748.84        65.01533
749.26        65.15584
749.68        65.36844
750.09        65.55422
750.51        65.59077
750.93        65.49472
751.35        65.48531
751.76        65.56571
752.18        65.54778
752.60        65.43703
753.01        65.37106
753.43        65.33241
753.85        65.28085
754.27        65.21847
754.68        65.15921
755.10        65.12615
755.52         65.1255
755.93        65.15994
756.35         65.2418
756.77        65.35534
757.18         65.4172
757.60        65.40576
758.02        65.42635
758.43        65.56483
758.85        65.33903
759.26        65.76807
759.68          65.944
760.10        65.40778
760.51        64.98912
760.93        65.31134
761.34        65.27853
761.76        65.54304
762.18        65.49989
762.59        65.29351
763.01        65.44547
763.42        65.12082
763.84        65.34486
764.26        65.48875
764.67        65.82571
765.09        66.17068
765.50        66.35821
765.92        66.38236
766.33        66.32461
766.75        66.19288
767.16        65.94557
767.58        65.62555
768.00        65.70348
768.41         66.1534
768.83        66.14689
769.24        65.71608
769.66        66.19356
770.07        66.56442
770.49         66.5607
770.90        65.99819
771.32        65.74087
771.73        65.86647
772.15         65.9013
772.56        65.87499
772.97        66.06641
773.39        66.37376
773.80        66.54774
774.22        66.51042
774.63        66.35598
775.05        66.15143
775.46        66.05698
775.88        66.09203
776.29        66.22974
776.70        66.37551
777.12        66.39219
777.53        66.26686
777.95        66.04604
778.36        65.81937
778.77        65.70071
779.19         65.7199
779.60        65.89185
780.02        66.15439
780.43        66.30256
780.84         66.3608
781.26        66.61401
781.67        67.02691
782.09        67.20383
782.50         67.1116
782.91        66.97481
783.33        66.82695
783.74         66.7291
784.15        66.68188
784.57        66.69291
784.98         66.7598
785.39        66.84889
785.81        66.94612
786.22        67.05678
786.63        67.16261
787.04        67.23642
787.46        67.28465
787.87        67.28481
788.28        67.26675
788.70        67.27486
789.11        67.29678
789.52        67.32733
789.93        67.36199
790.35        67.38227
790.76        67.40405
791.17          67.447
791.58         67.4913
792.00        67.51475
792.41        67.55323
792.82         67.5084
793.23        67.48074
793.65        67.77976
794.06        68.30637
794.47        68.62547
794.88        68.74533
795.29        68.46677
795.71          68.823
796.12        68.77032
796.53        68.60792
796.94        68.41032
797.35        68.22723
797.76        68.13152
798.18        68.11197
798.59        68.06183
799.00        67.96939
799.41        67.92223
799.82        67.91448
800.23        67.89182
800.64        67.84926
801.06        67.77737
801.47        67.73303
801.88         67.7359
802.29        67.79139
802.70        67.88509
803.11        67.98881
803.52        68.05496
803.93        68.07732
804.34        68.07645
804.75        68.07676
805.17        68.13218
805.58         68.2839
805.99        68.41875
806.40        68.54503
806.81        68.84887
807.22        69.22619
807.63        69.28561
808.04        69.06517
808.45         68.9731
808.86        69.04005
809.27         69.0223
809.68         68.9177
810.09        68.83958
810.50        68.79722
810.91        68.77832
811.32        68.75464
811.73         68.6712
812.14         68.5228
812.55        68.32912
812.96        68.16699
813.37         68.1624
813.78        68.33587
814.19        68.63972
814.60        68.96281
815.01        69.13725
815.42        69.12244
815.83        68.96149
816.24        68.73444
816.65        68.59646
817.05        68.61105
817.46         68.7089
817.87        68.86151
818.28        68.97992
818.69        69.04386
819.10        69.09023
819.51        69.15189
819.92        69.27859
820.33        69.47105
820.74        69.67936
821.14        69.87464
821.55         70.0453
821.96        70.16761
822.37        70.25694
822.78        70.25983
823.19        70.08781
823.60        69.73778
824.00        69.25243
824.41        68.74805
824.82        68.48901
825.23        68.53934
825.64         68.8498
826.04        69.25782
826.45        69.45265
826.86        69.37339
827.27        69.09917
827.68        68.79814
828.08        68.79311
828.49        69.09264
828.90         69.6297
829.31        70.24105
829.72        70.59205
830.12        70.60768
830.53        70.68997
830.94        70.30324
831.35        70.06812
831.75         69.8784
832.16        69.68742
832.57        69.55212
832.97        69.56029
833.38        69.71053
833.79        69.97797
834.20        70.28348
834.60        70.49781
835.01        70.58508
835.42        70.57449
835.82        70.49955
836.23        70.38008
836.64        70.25321
837.04         70.1158
837.45        69.97606
837.86        69.90729
838.26        69.93311
838.67        70.03985
839.08        70.17152
839.48        70.21415
839.89        70.13966
840.29        69.97989
840.70        69.84103
841.11        69.90105
841.51        70.20876
841.92         70.6683
842.33        71.15106
842.73        71.44254
843.14        71.43674
843.54        71.23026
843.95        70.93378
844.35        70.75693
844.76        70.75456
845.17        70.87331
845.57        71.06082
845.98        71.19353
846.38          71.263
846.79        71.28624
847.19        71.31915
847.60        71.36396
848.00        71.46037
848.41        71.55315
848.81        71.66955
849.22        71.78592
849.62        71.92774
850.03        72.05625
850.43        72.16954
850.84        72.16042
851.24        72.06026
851.65        71.81673
852.05        71.55247
852.46        71.38025
852.86        71.34799
853.27        71.48714
853.67        71.59838
854.07        71.53786
854.48        71.25406
854.88        70.80832
855.29        70.37235
855.69        70.43441
856.10        70.99554
856.50        71.99419
856.90        73.00471
857.31        73.36428
857.71        72.96254
858.12         71.9362
858.52        70.66511
858.92        69.73573
859.33        69.35301
859.73        69.41844
860.13         69.7688
860.54        70.11933
860.94        70.41251
861.34        70.68497
861.75        70.92461
862.15        71.17517
862.55        71.39081
862.96        71.50613
863.36        71.48093
863.76        71.23274
864.17        70.76039
864.57         70.1413
864.97        69.48449
865.38         68.9463
865.78        68.63541
866.18        68.52707
866.58        68.60937
866.99        68.80864
867.39         69.1102
867.79        69.49005
868.19         69.8814
868.60        70.11094
869.00        70.20988
869.40        70.34827
869.80        70.45721
870.21        70.25546
870.61        69.79431
871.01        69.23367
871.41        68.66361
871.81         68.1125
872.22        67.63204
872.62        67.24088
873.02        67.02879
873.42        67.29737
873.82        67.87596
874.22         68.2255
874.63        68.43976
875.03        68.74704
875.43        69.11156
875.83        70.17864
876.23        69.65605
876.63        68.94147
877.03        67.83583
877.44        65.80126
877.84        161.3619
878.24        66.23765
878.64        66.74368
879.04        67.97766
879.44        68.39134
879.84        65.46169
880.24        70.08636
880.64        70.43673
881.04        68.53609
881.44        67.16816
881.84        66.79518
882.24        67.49265
882.65        68.62437
883.05        68.87273
883.45        67.98753
883.85         66.7675
884.25        65.73315
884.65        65.35297
885.05        65.77601
885.45        66.76183
885.85        67.90464
886.25        68.64405
886.65        68.83183
887.05        68.64375
887.45        68.22611
887.85        67.82801
888.25        67.55754
888.65        67.32098
889.04        67.16309
889.44        67.17404
889.84        67.34635
890.24        67.67667
890.64        68.02022
891.04        68.14272
891.44        68.00442
891.84        67.66267
892.24        67.26318
892.64        67.06928
893.04        67.15258
893.44        67.43233
893.83        67.78628
894.23        67.99908
894.63        68.03246
895.03        67.96477
895.43        67.87934
895.83        67.90561
896.23        68.07517
896.63        68.31425
897.02         68.5703
897.42        68.84396
897.82        69.08462
898.22        69.29894
898.62         69.4295
899.01         69.3873
899.41        69.15008
899.81        68.77868
900.21        68.35896
900.61        68.03519
901.00         67.8442
901.40        67.80459
901.80        67.91765
902.20        68.05988
902.59        68.17617
902.99        68.51225
903.39        69.07846
903.79         68.4391
904.18        68.87896
904.58         68.5969
904.98        68.28429
905.38        67.89872
905.77        67.46328
906.17        66.99751
906.57        66.61356
906.96        66.58822
907.36        66.95433
907.76        67.66142
908.15        68.46542
908.55        68.80078
908.95        68.58882
909.34        67.92561
909.74        67.20065
910.14        67.00911
910.53        67.47908
910.93        68.40987
911.33        69.38374
911.72        69.73847
912.12        69.34171
912.52        68.42477
912.91        67.37085
913.31        66.85659
913.70        67.02769
914.10        67.67802
914.49        68.52147
914.89        68.99431
915.29        68.95231
915.68        68.54549
916.08        68.03661
916.47        67.77993
916.87         67.9058
917.26        68.29816
917.66        68.74317
918.05        68.93298
918.45        68.77405
918.84        68.37273
919.24        67.96938
919.64        68.00641
920.03        68.55885
920.42        69.44617
920.82        70.29309
921.21        70.52553
921.61        70.04906
922.00        69.13327
922.40        68.18672
922.79        67.73928
923.19        67.61298
923.58        68.41776
923.98        70.27711
924.37        70.75368
924.77        68.59264
925.16        75.63909
925.55        70.53814
925.95        70.92988
926.34        70.78667
926.74        69.97566
927.13        68.48565
927.52        67.37805
927.92        67.16096
928.31        67.28852
928.70        67.72745
929.10        68.32981
929.49        69.03561
929.89        69.90087
930.28        70.69972
930.67        70.92416
931.07        70.49474
931.46        69.44492
931.85        68.26554
932.24        68.20474
932.64        69.46456
933.03        71.14304
933.42        72.34663
933.82        74.56165
934.21        73.20723
934.60        71.90751
934.99         70.4827
935.39        69.99915
935.78        70.55647
936.17        72.38513
936.56        77.88171
936.96         71.9317
937.35         74.9514
937.74        71.82757
938.13        69.41062
938.53        67.47767
938.92        66.76696
939.31        67.70766
939.70        69.18044
940.09        70.06244
940.49        70.07914
940.88        69.64801
941.27        69.05514
941.66        68.80821
942.05        69.09839
942.44        69.67152
942.84         70.2906
943.23        70.75236
943.62         70.9665
944.01        70.99086
944.40        70.97457
944.79        71.14192
945.18        71.52933
945.57        72.06506
945.97        72.44914
946.36        72.33099
946.75        71.61598
947.14        70.43357
947.53        69.20142
947.92        68.63867
948.31        68.92313
948.70        69.82329
949.09         70.8796
949.48        71.37432
949.87         71.1334
950.26        70.38986
950.65        69.44365
951.04         68.7878
951.43        68.58917
951.82        68.68257
952.21        68.96101
952.60        69.25264
952.99        69.46459
953.38        69.66079
953.77        69.81329
954.16        69.85744
954.55        69.80096
954.94        69.66043
955.33        69.48072
955.72        69.37187
956.11        69.37436
956.50        69.44144
956.89        69.60842
957.28         69.9216
957.66        70.38192
958.05        70.89735
958.44        71.30045
958.83        71.31958
959.22        70.91138
959.61        70.13853
960.00        69.22222
960.39        68.62347
960.78         68.5038
961.16        68.76033
961.55        69.12348
961.94        69.28908
962.33        69.18927
962.72        68.95321
963.11        68.65456
963.49        68.45738
963.88        68.42786
964.27        68.46894
964.66        68.64114
965.04        69.08054
965.43        69.71735
965.82        70.56198
966.21         71.3403
966.60         71.5648
966.98        71.12715
967.37        70.15141
967.76        69.03026
968.15        68.41628
968.53        68.50127
968.92        69.08698
969.31        69.83467
969.69        70.15811
970.08        69.86124
970.47        69.13137
970.86        68.26037
971.24        67.75565
971.63        67.74704
972.02         68.0571
972.40        68.46079
972.79        68.54769
973.17        68.28464
973.56        67.83262
973.95        67.36504
974.33        67.16924
974.72        67.33372
975.11        67.71558
975.49        68.35685
975.88        69.26044
976.26        70.41122
976.65        71.68808
977.04        72.78053
977.42        73.20746
977.81        72.84096
978.19        71.74532
978.58        70.47568
978.96        70.04774
979.35        70.70551
979.74        72.07999
980.12        73.52456
980.51        74.03919
980.89        73.58672
981.28        72.35449
981.66        70.74931
982.05        69.80147
982.43           69.92
982.82        70.83284
983.20        72.04815
983.59        72.79055
983.97        72.88653
984.35        72.51277
984.74        71.88809
985.12        71.47752
985.51        71.40883
985.89        71.62704
986.28        71.87873
986.66         71.8679
987.04        71.59119
987.43        71.04539
987.81        70.36992
988.20        71.17568
988.58        73.62975
988.96        74.99841
989.35        74.37309
989.73        79.59245
990.12        76.35995
990.50        75.70834
990.88        74.19734
991.27        73.05642
991.65        72.51431
992.03        72.55846
992.42        73.07973
992.80        73.32006
993.18         73.0879
993.56         72.6647
993.95        72.20037
994.33        71.87566
994.71        71.78493
995.10         71.8028
995.48        71.98747
995.86        72.45487
996.24        73.16929
996.63        74.00233
997.01        74.84071
997.39        75.29987
997.77        75.27972
998.15        74.86554
998.54        74.26054
998.92        73.69112
999.30        73.29706
999.68        73.08163
1000.06        72.95847
1000.45         72.7141
1000.83         72.4226
1001.21        72.14211
1001.59        72.15013
1001.97        72.81899
1002.35        74.06447
1002.73        75.59289
1003.12        76.98644
1003.50        77.78343
1003.88        77.91152
1004.26        77.54854
1004.64        76.82632
1005.02        76.06294
1005.40        75.43787
1005.78        74.84029
1006.16         74.4565
1006.54         74.5388
1006.92        75.10604
1007.30        76.19315
1007.69        77.24811
1008.07         77.5297
1008.45         76.8886
1008.83        75.43164
1009.21        73.96698
1009.59        74.16071
1009.97        76.23501
1010.35        79.27895
1010.73        82.06232
1011.11        83.47756
1011.49        83.50529
1011.86        82.27501
1012.24        79.93484
1012.62        80.00106
1013.00        80.40665
1013.38        80.56743
1013.76        78.99284
1014.14          82.755
1014.52        87.96671
1014.90        81.04198
1015.28        81.86048
1015.66        83.10751
1016.04        80.23628
1016.41        81.02688
1016.79        80.90347
1017.17         81.1265
1017.55        81.16579
1017.93        81.27831
1018.31        81.69551
1018.69        82.31619
1019.06        83.13017
1019.44        84.00523
1019.82          84.662
1020.20        84.71858
1020.58        84.09102
1020.95          82.696
1021.33        80.80775
1021.71        79.39928
1022.09        79.19281
1022.46        79.93748
1022.84        80.94131
1023.22        81.64339
1023.60        82.02095
1023.97        82.25571
1024.35        82.52984
1024.73        83.13236
