SpectraSmart Spectrum 2.9.0.0
--------- Device Information -----------
Spectrum Name :  反射率_0
Saving Time :  2024/04/21 00:02:58
Spectro-Module Model Name : SE2030-DUVN
Spectro-Module Serial Number : OS361AC55029948
Wavelength Start : 200
Wavelength End : 1025
Wavelength Unit : Wavelength(nm)
Spectrum Unit : Reflectance(%)
-----------Spectrum Setting ------------
Integration Time : 20ms
Average : 10
Boxcar : 0
Background removal :  enabled
linearity correction :  enabled
SC :  disabled
Intensity correction :  disabled
DWT denoise :  enabled
savitzky-golay :  disabled
FFT :  disabled
Running average :  disabled
Kalman :  disabled
High pass :  disabled
---------------BEGIN--------------------
Wavelength(nm)             Reflectance(%)
200.29               0
200.75       -52.04757
201.21        15.04819
201.67        51.30397
202.13        64.48024
202.58        64.11502
203.04        55.95448
203.50        40.84623
203.96        23.39757
204.42        8.565319
204.88       -5.066586
205.34       -15.58302
205.80       -21.86063
206.26       -23.93637
206.72       -16.62779
207.18       -5.196541
207.64       -6.300028
208.10       -24.61928
208.55       -55.99806
209.01        -72.2074
209.47       -41.82579
209.93        2.411642
210.39         37.4217
210.85        59.55858
211.31        69.43238
211.77        70.71909
212.23        65.24249
212.69        50.05533
213.14        21.88774
213.60       -27.26339
214.06       -163.1826
214.52       -458.7958
214.98       -179.2105
215.44       -19.73526
215.90        33.08514
216.36        50.38858
216.81        51.83191
217.27        40.30405
217.73       -20.21773
218.19        708.9384
218.65         317.605
219.11       -556.7595
219.57        15.72038
220.02        51.83413
220.48        58.48332
220.94        55.57751
221.40        42.83902
221.86        11.41901
222.32       -10.30694
222.77        16.37302
223.23          40.177
223.69        52.22209
224.15        56.20102
224.61        55.94325
225.06        53.90017
225.52        50.44787
225.98        45.58123
226.44        39.83582
226.90        32.37314
227.36        26.98149
227.81        30.52208
228.27        39.89658
228.73        49.77715
229.19        56.22305
229.65        57.33027
230.10        53.90011
230.56        47.14093
231.02        38.05028
231.48        31.47919
231.93        31.10594
232.39        35.26907
232.85        40.51699
233.31         43.8859
233.77        45.46318
234.22        46.66488
234.68        47.52127
235.14        47.91176
235.60        48.06837
236.05        47.26103
236.51        46.18131
236.97        50.38015
237.43        59.96682
237.88        67.99654
238.34        72.01235
238.80        83.79332
239.26        78.63818
239.71        73.60936
240.17        62.40203
240.63        50.88602
241.08        44.75581
241.54        47.37423
242.00        58.19483
242.46        66.17525
242.91        68.24493
243.37        65.69448
243.83        59.91894
244.28        56.70754
244.74        59.33236
245.20        63.86397
245.66        67.00613
246.11        65.97283
246.57        60.55244
247.03        52.35509
247.48        42.15813
247.94        31.05239
248.40        16.83869
248.85       -14.56508
249.31       -101.8142
249.77        -142.716
250.22        1.116552
250.68        53.95457
251.14        68.31151
251.59           69.15
252.05         63.4861
252.51        51.32705
252.96        34.76883
253.42        27.88434
253.88        38.87939
254.33        59.11294
254.79        76.97878
255.25        82.98041
255.70        80.73406
256.16        76.94113
256.62        74.01308
257.07        73.20013
257.53        74.36018
257.99        75.96129
258.44        77.09718
258.90        77.89624
259.35        77.73675
259.81        77.38087
260.27        76.68324
260.72        75.55485
261.18        74.57484
261.63        73.46339
262.09        72.49213
262.55        71.33348
263.00        69.90922
263.46         68.5432
263.91        67.29623
264.37        66.80077
264.83        66.89895
265.28        67.27853
265.74        67.66263
266.19        67.38267
266.65        66.47318
267.11        65.07077
267.56        63.44228
268.02        62.12256
268.47        61.16712
268.93        60.46221
269.38        59.76943
269.84        58.80589
270.30        57.50101
270.75        56.00072
271.21        54.50471
271.66        53.21224
272.12        52.22803
272.57        51.43217
273.03        50.80001
273.48        50.21917
273.94        49.67646
274.39        49.14214
274.85        48.60628
275.31        47.95375
275.76        47.15912
276.22        46.30181
276.67        45.42499
277.13        44.72702
277.58        44.16808
278.04        43.74387
278.49        43.30717
278.95        42.78253
279.40        42.08637
279.86        41.31684
280.31        40.48163
280.77        39.71935
281.22        39.01315
281.68        38.41146
282.13        37.82994
282.59        37.25922
283.04         36.6601
283.50        36.08445
283.95        35.59498
284.41        35.33946
284.86        35.30216
285.32        35.44918
285.77        35.61007
286.22        35.58073
286.68        35.34726
287.13        34.93106
287.59        34.52773
288.04        34.31458
288.50        34.32195
288.95         34.5706
289.41        34.96128
289.86        34.90619
290.32        34.31741
290.77        34.90913
291.22        34.00505
291.68        34.01997
292.13        34.16827
292.59        34.48306
293.04         34.9156
293.50        35.46599
293.95        36.12469
294.40         36.8698
294.86         37.6675
295.31        38.45053
295.77        39.20266
296.22        39.92029
296.68        40.63136
297.13        41.36868
297.58        42.15745
298.04        42.98636
298.49        43.85647
298.95         44.7951
299.40        45.77763
299.85        46.80096
300.31        47.81456
300.76         48.7121
301.21        49.48976
301.67        50.20607
302.12        50.90227
302.58        51.74262
303.03        52.72326
303.48        53.83267
303.94        55.01646
304.39        56.14606
304.84        57.19194
305.30        58.19839
305.75         59.1548
306.20        60.14035
306.66         61.1692
307.11        62.18144
307.57        63.16054
308.02        64.02328
308.47        64.77486
308.93        65.48209
309.38        66.15476
309.83         66.8213
310.29        67.60993
310.74         68.3931
311.19        69.18116
311.65        69.92544
312.10        70.59711
312.55        71.21349
313.00        71.78648
313.46        72.33823
313.91        72.86339
314.36        73.36208
314.82        73.82989
315.27        74.26292
315.72        74.66344
316.18        75.03153
316.63        75.38025
317.08        75.73358
317.53        76.09306
317.99        76.45485
318.44        76.78168
318.89         77.0004
319.35        77.10545
319.80        77.12843
320.25        77.14915
320.70        77.30128
321.16        77.60299
321.61         78.0199
322.06        78.46558
322.51        78.80545
322.97        78.99074
323.42        79.09077
323.87        79.13123
324.32        79.17458
324.78        79.23379
325.23        79.31061
325.68        79.41921
326.13        79.60829
326.59        79.85976
327.04        80.20972
327.49        80.56033
327.94        80.76766
328.39        80.80247
328.85        80.68185
329.30        80.56477
329.75         80.6221
330.20        80.90972
330.66        81.35242
331.11        81.90024
331.56        82.36102
332.01        82.67776
332.46         82.8908
332.92        83.03334
333.37        83.27571
333.82        83.61933
334.27        84.02746
334.72        84.44099
335.17        84.76887
335.63        84.96852
336.08         85.1258
336.53        85.29463
336.98        85.59367
337.43        86.05411
337.88        86.63824
338.34        87.25592
338.79        87.79826
339.24        88.20609
339.69        88.50735
340.14        88.75378
340.59        89.03764
341.05        89.38499
341.50        89.76645
341.95        90.13819
342.40        90.43615
342.85        90.64766
343.30        90.80788
343.75        90.94672
344.20        91.10782
344.66        91.31779
345.11        91.54903
345.56        91.80951
346.01        92.10755
346.46        92.42763
346.91        92.76278
347.36        93.07536
347.81        93.28756
348.26        93.38812
348.72        93.49459
349.17        93.46157
349.62        93.45364
350.07        93.44743
350.52        93.43263
350.97        93.42986
351.42        93.47366
351.87        93.56077
352.32        93.67721
352.77        93.75959
353.22        93.70784
353.67         93.5055
354.13        93.19592
354.58        92.82348
355.03        92.51498
355.48         92.3008
355.93        92.14085
356.38        91.98957
356.83        91.77404
357.28        91.46676
357.73        91.08976
358.18        90.64771
358.63        90.15078
359.08        89.61739
359.53        89.05433
359.98        88.48484
360.43        87.94138
360.88        87.42957
361.33        86.94027
361.78        86.46867
362.23        86.00507
362.68        85.54111
363.13        85.07811
363.58        84.59235
364.03        84.04417
364.48         83.4333
364.93        82.78034
365.38         82.1232
365.83        81.52803
366.28        81.00961
366.73         80.5349
367.18        80.10181
367.63        79.70377
368.08         79.3276
368.53        78.98759
368.98        78.60284
369.43        78.03933
369.88        77.28191
370.33        76.36079
370.78        75.44205
371.23        74.82709
371.68         74.5888
372.13        74.63555
372.58        74.76289
373.03        74.63475
373.48        74.16473
373.93        73.46018
374.38        72.65524
374.83        71.98405
375.28        71.52577
375.72        71.18073
376.17        70.92973
376.62        70.69984
377.07         70.4485
377.52        70.20081
377.97        69.90072
378.42        69.45593
378.87        68.87898
379.32        68.21921
379.77        67.58255
380.22        67.11489
380.67        66.83508
381.11        66.69444
381.56        66.62492
382.01        66.52176
382.46        66.34687
382.91        66.13048
383.36         65.8667
383.81        65.54787
384.26        65.17992
384.71        64.75807
385.15        64.31446
385.60         63.9628
386.05        63.70189
386.50        63.51625
386.95        63.35143
387.40        63.11963
387.85        62.81419
388.29        62.43664
388.74        62.12085
389.19        61.89321
389.64        61.75529
390.09        61.66899
390.54        61.60495
390.98        61.50626
391.43        61.38963
391.88        61.26562
392.33        61.12308
392.78        60.94983
393.23        60.75397
393.67        60.49483
394.12        60.28645
394.57        60.18814
395.02        60.18582
395.47        60.17515
395.91        60.12699
396.36        60.04288
396.81        59.93083
397.26        59.79569
397.71        59.63033
398.15        59.44562
398.60        59.31563
399.05        59.06918
399.50        58.81764
399.95        58.93777
400.39        59.31369
400.84        59.41065
401.29        59.16961
401.74        58.69863
402.18        58.18194
402.63        58.10037
403.08         58.3828
403.53         58.3543
403.97         57.9779
404.42        57.71596
404.87        57.61589
405.32        57.53929
405.76        57.47753
406.21        57.50275
406.66        57.56849
407.11        57.49924
407.55        57.31486
408.00        57.28582
408.45          57.398
408.90        57.14766
409.34        56.67307
409.79        56.76725
410.24         57.3021
410.68        57.48027
411.13        57.25698
411.58        57.05316
412.03         56.9464
412.47         56.8979
412.92        56.91512
413.37        57.01088
413.81        57.12087
414.26         57.1984
414.71        57.21103
415.15        57.18427
415.60        57.11348
416.05        57.04493
416.49        56.99547
416.94        56.94209
417.39        56.88184
417.83        56.80584
418.28        56.71368
418.73        56.60871
419.17        56.50005
419.62        56.41067
420.07         56.3505
420.51        56.31627
420.96        56.31293
421.41        56.31917
421.85        56.31205
422.30        56.28755
422.74         56.2601
423.19        56.44201
423.64        56.77839
424.08        57.02786
424.53        57.09922
424.98        57.18091
425.42        57.27642
425.87        57.20861
426.31        57.06004
426.76        57.07762
427.21        57.26269
427.65        57.47096
428.10        57.59292
428.54        57.59539
428.99        57.49864
429.44        57.32137
429.88        57.09871
430.33        56.95568
430.77        56.89005
431.22        56.94769
431.66        57.09118
432.11        57.37041
432.56        57.76809
433.00        57.79992
433.45        57.24984
433.89        57.24094
434.34        58.08843
434.78        56.46486
435.23        56.93494
435.67        58.39587
436.12         58.0449
436.57        58.10492
437.01        57.57099
437.46        57.27988
437.90        57.86768
438.35        57.81968
438.79        58.14301
439.24        58.21354
439.68        58.30463
440.13        58.15574
440.57        57.88604
441.02        58.23734
441.46        58.96136
441.91        58.81727
442.35        57.99115
442.80        57.91763
443.24        58.48653
443.69        58.68798
444.13        58.44677
444.58         58.2695
445.02        58.21358
445.47        58.28241
445.91        58.55434
446.36        58.65079
446.80        58.58873
447.24        58.48994
447.69        58.42397
448.13        58.58447
448.58        58.76567
449.02        58.80733
449.47        58.67495
449.91        58.63303
450.36        58.70425
450.80        58.66103
451.25        58.53866
451.69        58.53714
452.13        58.61983
452.58        58.49532
453.02        58.20393
453.47         58.0678
453.91         58.0987
454.36        58.13804
454.80        58.14607
455.24        58.16263
455.69        58.19343
456.13        58.13352
456.58        58.01994
457.02        58.11604
457.46        58.07437
457.91        57.98804
458.35         57.8731
458.79        57.78023
459.24        57.76094
459.68        57.71542
460.13        57.70328
460.57        57.68476
461.01        57.66197
461.46        57.75092
461.90        58.07364
462.34        57.62054
462.79        57.34156
463.23        57.34159
463.68        57.78302
464.12        57.65157
464.56        57.07058
465.01        57.26489
465.45        57.90943
465.89        57.84409
466.34        57.22027
466.78        56.71368
467.22        56.42113
467.67        57.19403
468.11        57.07936
468.55        57.29007
468.99        57.21671
469.44        57.19953
469.88        57.22055
470.32        57.03424
470.77        56.73328
471.21        56.58234
471.65        56.61637
472.10        56.74224
472.54        56.88621
472.98        56.94358
473.42        56.89521
473.87        56.82471
474.31        56.70095
474.75         56.5361
475.20        56.41186
475.64        56.12427
476.08        56.43964
476.52        56.45799
476.97         56.3629
477.41        56.49319
477.85        56.82681
478.29        56.45274
478.74        56.32158
479.18        56.38996
479.62        56.48695
480.06        56.59949
480.50        56.62976
480.95        56.64852
481.39        56.54589
481.83        56.92637
482.27        56.95511
482.72        56.49707
483.16        56.53961
483.60        56.74677
484.04        56.71907
484.48        56.59527
484.93         56.7972
485.37        56.37769
485.81        56.48023
486.25        55.93878
486.69        56.76803
487.14        56.53877
487.58        56.50501
488.02        56.37487
488.46        56.24886
488.90        56.47351
489.34        56.24035
489.79        55.82767
490.23        56.48018
490.67        56.51986
491.11        56.37947
491.55        56.17528
491.99        56.01319
492.43        55.95848
492.88        56.02682
493.32         56.1996
493.76        56.34784
494.20        56.44602
494.64            56.5
495.08        56.03086
495.52        55.78017
495.96        55.93134
496.41        56.48784
496.85        56.42637
497.29        55.79819
497.73        55.62995
498.17        55.65918
498.61        55.88957
499.05        56.08685
499.49        55.82998
499.93        55.28233
500.37        55.26832
500.82        55.71887
501.26         55.9427
501.70        55.86127
502.14         55.4693
502.58        55.32101
503.02        55.21991
503.46         55.2837
503.90        55.42877
504.34         55.5701
504.78        55.67044
505.22        55.72242
505.66        55.64006
506.10        55.44722
506.54        55.49718
506.98        55.84347
507.42        55.30205
507.86         55.6735
508.30        55.62281
508.74        55.56551
509.18        55.50387
509.62        55.42871
510.06        55.40352
510.50        55.40113
510.94        55.35909
511.38        55.27971
511.82        55.22739
512.26        55.20555
512.70        55.17613
513.14         55.1328
513.58        55.11005
514.02        55.11368
514.46        55.08298
514.90        54.99487
515.34        55.13277
515.78        55.07079
516.22        55.09711
516.66        54.93213
517.10        55.23049
517.54        54.98095
517.98        54.98434
518.42        54.96083
518.86        54.95527
519.30        54.97092
519.74        54.97023
520.18         54.9772
520.62        55.09009
521.06        55.26687
521.50        55.30502
521.93        55.20907
522.37        55.16327
522.81        55.17887
523.25        55.14565
523.69        55.07625
524.13        55.04289
524.57        55.05222
525.01        55.08662
525.45        55.13092
525.89        55.15892
526.32        55.16073
526.76        55.14835
527.20        55.13179
527.64        55.12949
528.08        55.14363
528.52        55.16754
528.96        55.18803
529.40         55.1783
529.83        55.13424
530.27        55.09616
530.71         55.0611
531.15        55.02184
531.59        54.98289
532.03        54.94678
532.46         54.9277
532.90        54.96044
533.34        55.03917
533.78        55.15081
534.22        55.24909
534.66        55.26283
535.09        55.17481
535.53        55.03007
535.97        54.86774
536.41        54.76585
536.85        54.74569
537.28         54.7823
537.72        54.85375
538.16        54.92371
538.60        54.97381
539.04        55.01545
539.47        55.02639
539.91        55.01797
540.35        54.97862
540.79        54.91089
541.22        54.83181
541.66        54.78588
542.10        54.77737
542.54        54.79248
542.97        54.81181
543.41        54.83089
543.85        54.84176
544.29        54.86303
544.72        54.87143
545.16        54.88028
545.60          54.881
546.04        54.80101
546.47        54.70699
546.91         54.8416
547.35        55.13425
547.79        55.27515
548.22        55.20502
548.66        55.03954
549.10        54.84708
549.53        54.74367
549.97        54.75186
550.41        54.73666
550.84        54.71206
551.28        54.76704
551.72         54.8639
552.15        54.97843
552.59        55.12608
553.03        54.87595
553.46        55.01714
553.90        54.94626
554.34        54.89493
554.77        54.83582
555.21        54.79654
555.65        54.79601
556.08        54.82621
556.52        54.88863
556.96        54.95609
557.39        55.04855
557.83        55.13807
558.27        55.08814
558.70        54.95083
559.14        54.90529
559.57        54.95818
560.01        55.12914
560.45        55.29241
560.88        55.16803
561.32        54.87005
561.75        54.61615
562.19        54.53455
562.63        54.80298
563.06        55.25175
563.50        55.23618
563.93        54.79914
564.37        54.59667
564.80        54.67137
565.24        54.81163
565.68        54.96694
566.11         55.0646
566.55        55.09819
566.98        55.18949
567.42        55.32108
567.85        55.21804
568.29        54.97239
568.72        54.90618
569.16        55.06609
569.60        55.01183
570.03         54.9904
570.47        55.05213
570.90        55.23421
571.34        55.14748
571.77        55.10409
572.21        55.23627
572.64        55.17733
573.08        54.84814
573.51        55.28984
573.95        55.62967
574.38        55.41372
574.82         55.5719
575.25        55.47809
575.69        55.19354
576.12        54.99522
576.56        55.12071
576.99        55.37756
577.42        55.35563
577.86        55.43213
578.29        56.01989
578.73        55.80897
579.16        55.36795
579.60        55.07773
580.03        55.54997
580.47        55.35915
580.90        55.50264
581.33        55.56207
581.77        55.89819
582.20        55.72863
582.64        55.51048
583.07        55.64578
583.51         55.2761
583.94        55.35894
584.37        55.23382
584.81        55.07338
585.24        55.02236
585.68        55.42841
586.11        55.28171
586.54        55.27057
586.98        55.44187
587.41        55.45076
587.85        55.64423
588.28        55.56202
588.71        55.48908
589.15        55.81069
589.58        54.96123
590.01        54.96422
590.45        55.18322
590.88        55.36486
591.31         55.1292
591.75        55.00247
592.18        54.93762
592.61        54.98114
593.05        55.98145
593.48        55.79474
593.91        55.41674
594.35        55.53911
594.78        55.37305
595.21        55.49128
595.65        55.48436
596.08        55.41423
596.51        55.57059
596.94         55.4217
597.38        55.40864
597.81        55.42995
598.24        55.25378
598.68        55.17735
599.11        55.02166
599.54        55.54268
599.97        54.96578
600.41        55.16595
600.84        55.60994
601.27        55.61175
601.70        55.19371
602.14        55.18689
602.57        55.20185
603.00        55.47794
603.43        55.69139
603.87         55.6357
604.30         55.4526
604.73        55.25851
605.16        55.13518
605.60        55.27053
606.03         55.3821
606.46        55.55807
606.89        55.15362
607.32         54.9662
607.76         55.8747
608.19        55.48089
608.62        55.37265
609.05        56.12855
609.48        55.57731
609.92        55.59282
610.35        55.39261
610.78        55.82917
611.21        55.35561
611.64        55.56902
612.07          55.465
612.50        55.49685
612.94         55.4828
613.37         55.4245
613.80        55.65756
614.23        55.63564
614.66        55.53736
615.09        55.26811
615.52        55.20555
615.96        55.34432
616.39         55.3311
616.82        55.14754
617.25        55.27911
617.68        55.17241
618.11        55.20244
618.54        55.34697
618.97        55.29515
619.40         55.0772
619.84        55.23992
620.27        55.24807
620.70        55.17194
621.13        54.92464
621.56        55.02816
621.99        55.43809
622.42        55.58821
622.85        55.43582
623.28        55.46971
623.71        55.51925
624.14        55.71243
624.57        55.58947
625.00        55.99249
625.43        55.49253
625.86        55.50142
626.29        55.69324
626.72        55.22647
627.15        55.37529
627.58        55.31391
628.01        55.47857
628.44        55.17337
628.87        55.03881
629.30        55.43792
629.73        55.18857
630.16        55.01049
630.59        54.98742
631.02        55.24136
631.45        55.09969
631.88         55.1911
632.31        55.30166
632.74        55.15607
633.17        55.30201
633.60        55.24955
634.03        55.17304
634.46         55.1143
634.89        55.01885
635.32         55.0085
635.75        55.05963
636.18        55.16306
636.61        55.28162
637.04        55.35699
637.47        55.37275
637.89        55.35079
638.32        55.30019
638.75        55.25658
639.18        55.23155
639.61        55.23092
640.04        55.23364
640.47        55.23065
640.90        55.22192
641.33        55.24979
641.76        55.30352
642.18        55.33607
642.61        55.33011
643.04        55.31556
643.47        55.30382
643.90        55.30905
644.33          55.336
644.76        55.36669
645.18         55.3931
645.61        55.42752
646.04        55.45271
646.47         55.4069
646.90        55.31575
647.33        55.28197
647.75        55.30667
648.18        55.36003
648.61        55.43898
649.04        55.46314
649.47        55.40679
649.89        55.64876
650.32        55.56524
650.75        55.54828
651.18        55.44582
651.61        55.38519
652.03         55.3752
652.46         55.3932
652.89        55.43755
653.32        55.41521
653.74        55.28006
654.17          55.457
654.60        55.07148
655.03         55.2598
655.46        54.94701
655.88        55.84209
656.31        56.08494
656.74        58.10791
657.16        56.95848
657.59        55.72669
658.02        55.15256
658.45        55.48279
658.87        55.57553
659.30        55.93013
659.73         55.4735
660.15         54.8166
660.58        55.43661
661.01        55.76957
661.44        56.12663
661.86        56.01551
662.29        55.52791
662.72        55.26095
663.14        55.28425
663.57        55.30013
664.00        55.27244
664.42        55.25993
664.85        55.26412
665.27        55.20144
665.70        55.25744
666.13        55.27717
666.55        55.31537
666.98        55.36663
667.41        55.41112
667.83         55.4199
668.26        55.39895
668.69        55.31227
669.11        55.18027
669.54        55.23312
669.96        55.52475
670.39        55.24478
670.82        55.69211
671.24        55.74164
671.67        55.75305
672.09        55.72304
672.52        55.68691
672.94        55.56806
673.37        55.41169
673.80          55.383
674.22        55.47125
674.65        55.47874
675.07        55.41185
675.50         55.3686
675.92        55.37452
676.35         55.4045
676.77        55.45696
677.20        55.55222
677.62        55.68391
678.05        55.75293
678.47        55.73257
678.90        55.94658
679.32        55.84208
679.75         55.8927
680.17        55.93544
680.60        55.98101
681.02        56.00798
681.45        55.99472
681.87        55.94868
682.30        55.84587
682.72        55.74595
683.15        55.75738
683.57        55.84333
684.00        55.99545
684.42        55.80847
684.85        55.80905
685.27        55.86947
685.70        55.88931
686.12        55.84597
686.54        55.80634
686.97         55.7738
687.39        55.70414
687.82        55.70998
688.24        55.70388
688.66        55.69941
689.09         55.9103
689.51        55.91206
689.94        56.06435
690.36         56.2159
690.78        56.32212
691.21        56.36208
691.63        56.30331
692.06        56.18695
692.48        56.11651
692.90        56.11494
693.33        56.09081
693.75          56.054
694.17        56.10804
694.60        56.19518
695.02        56.20243
695.44        55.94331
695.87        55.91771
696.29        56.08426
696.71        56.17408
697.14        56.17287
697.56        56.34972
697.98        56.65522
698.41        56.56729
698.83        56.63639
699.25        56.47339
699.68        56.29701
700.10        56.17763
700.52        56.14636
700.94        56.17535
701.37        56.21818
701.79        56.25521
702.21        56.25375
702.64        56.23217
703.06        56.20922
703.48         56.2172
703.90        56.26712
704.33        56.34579
704.75        56.42837
705.17        56.45895
705.59        56.42604
706.01        56.33957
706.44        56.25908
706.86        56.28662
707.28        56.42303
707.70        56.66667
708.12        56.92423
708.55        56.96348
708.97        56.79013
709.39        56.64804
709.81        56.57767
710.23        56.48215
710.66        56.38835
711.08        56.39094
711.50        56.46925
711.92        56.55204
712.34        56.62541
712.76        56.71017
713.19        56.78569
713.61        56.85603
714.03        56.89673
714.45        56.91728
714.87        56.93253
715.29        56.93318
715.71        56.91724
716.13        57.03124
716.56        56.99073
716.98        57.03983
717.40        57.08178
717.82        57.12499
718.24        57.15744
718.66        57.16342
719.08        57.14476
719.50        57.10445
719.92        57.06428
720.34        57.05754
720.76        57.09093
721.19        57.14723
721.61        57.22005
722.03        57.27084
722.45        57.28975
722.87        57.28682
723.29        57.27547
723.71        57.27861
724.13        57.30275
724.55        57.33765
724.97        57.37864
725.39        57.41867
725.81        57.45527
726.23        57.49434
726.65        57.52823
727.07        57.54959
727.49        57.55982
727.91        57.54287
728.33        57.52278
728.75        57.58035
729.17        57.70298
729.59         57.7875
730.01        57.81807
730.43        57.84757
730.85        57.87051
731.27        57.83237
731.69        57.75761
732.10        57.67809
732.52         57.7702
732.94        57.62708
733.36        57.36234
733.78        57.26395
734.20        57.35873
734.62        57.48223
735.04        57.59531
735.46         57.7044
735.88        57.79501
736.30        57.87319
736.72        57.91703
737.13        57.93433
737.55        57.90038
737.97          57.747
738.39        57.56374
738.81        57.69618
739.23        58.07986
739.65        58.20285
740.06        58.02047
740.48        57.98417
740.90        58.06782
741.32        58.02169
741.74        57.87749
742.16        57.83458
742.57        57.92672
742.99         58.0793
743.41        58.24288
743.83         58.3222
744.25        58.29337
744.67        58.18365
745.08        58.07121
745.50        58.04331
745.92        58.13774
746.34        58.32758
746.75        58.52645
747.17        58.59184
747.59        58.49717
748.01        58.25873
748.42        57.99748
748.84        57.93519
749.26        58.08081
749.68         58.3115
750.09         58.5222
750.51        58.50341
750.93         58.3056
751.35        58.29528
751.76         58.4636
752.18        58.47896
752.60        58.33907
753.01         58.2675
753.43        58.24399
753.85        58.18005
754.27         58.0784
754.68        57.96684
755.10        57.88837
755.52         57.8845
755.93        57.95919
756.35        58.09965
756.77        58.26898
757.18        58.36032
757.60        58.34222
758.02        58.32915
758.43        58.40021
758.85         58.1188
759.26        58.42377
759.68        58.54934
760.10         58.1184
760.51        57.92564
760.93         58.4307
761.34        58.58601
761.76        58.58033
762.18        58.59466
762.59        58.63546
763.01        58.91025
763.42        58.60638
763.84        58.78469
764.26        58.77938
764.67        58.88033
765.09        58.95566
765.50        59.01916
765.92        59.05168
766.33        58.97087
766.75        58.81155
767.16        58.65154
767.58        58.53733
768.00        58.93097
768.41        59.67599
768.83        59.66421
769.24        58.94085
769.66        59.09869
770.07        59.11052
770.49        59.13344
770.90        58.88036
771.32        58.77269
771.73        58.82942
772.15        58.87714
772.56        58.92945
772.97        59.03461
773.39        59.14936
773.80        59.25578
774.22        59.31312
774.63        59.33987
775.05        59.33768
775.46        59.36516
775.88        59.41345
776.29        59.48493
776.70        59.54461
777.12        59.54905
777.53        59.50731
777.95        59.43378
778.36        59.34926
778.77        59.27948
779.19        59.23428
779.60        59.21093
780.02        59.21824
780.43         59.2821
780.84        59.39795
781.26        59.55365
781.67        59.73081
782.09        59.80426
782.50        59.76742
782.91          59.736
783.33        59.71319
783.74        59.70281
784.15        59.68455
784.57        59.70504
784.98        59.76954
785.39        59.81276
785.81        59.84052
786.22        59.92384
786.63        60.03347
787.04        60.07206
787.46        60.04393
787.87        59.97206
788.28        59.90817
788.70        59.90503
789.11        59.95877
789.52        60.07768
789.93        60.22284
790.35        60.29345
790.76        60.29356
791.17        60.30653
791.58        60.35484
792.00        60.37944
792.41        60.40625
792.82        60.54268
793.23        60.72568
793.65        60.78047
794.06        60.74458
794.47        61.04631
794.88        61.60931
795.29        61.52246
795.71        61.69881
796.12        61.54513
796.53         61.3945
796.94        61.38177
797.35        61.48695
797.76        61.41782
798.18        61.17097
798.59        61.01595
799.00         60.9656
799.41        60.87645
799.82        60.75412
800.23        60.68502
800.64        60.67548
801.06        60.67767
801.47        60.72782
801.88        60.81459
802.29        60.93029
802.70        61.07432
803.11        61.21105
803.52        61.27947
803.93        61.26611
804.34        61.18403
804.75        61.08974
805.17        61.06369
805.58        61.15111
805.99        61.33103
806.40        61.54425
806.81         61.6499
807.22        61.63428
807.63         61.6096
808.04        61.62284
808.45        61.67386
808.86        61.77353
809.27        61.93573
809.68        62.11591
810.09        62.21714
810.50        62.21141
810.91         62.1264
811.32        61.98542
811.73        61.82602
812.14        61.66937
812.55        61.51335
812.96        61.36624
813.37         61.2421
813.78        61.15139
814.19        61.10167
814.60         61.0993
815.01        61.14654
815.42        61.24129
815.83          61.381
816.24        61.54692
816.65        61.70181
817.05        61.83038
817.46         61.9046
817.87         61.9647
818.28         62.0423
818.69        62.14825
819.10        62.27538
819.51        62.40501
819.92        62.50288
820.33        62.55427
820.74        62.56062
821.14        62.54551
821.55        62.56602
821.96        62.62075
822.37        62.70057
822.78        62.75175
823.19        62.68187
823.60        62.47547
824.00        62.17773
824.41        61.85238
824.82        61.66609
825.23        61.66066
825.64        61.79612
826.04        62.00364
826.45         62.1314
826.86        62.15208
827.27        62.11168
827.68        62.05325
828.08        62.07301
828.49        62.13152
828.90        62.23952
829.31        62.40636
829.72        62.54475
830.12        62.63754
830.53        63.11055
830.94        63.10924
831.35        63.12293
831.75        62.91291
832.16        62.51495
832.57        62.09811
832.97        61.94774
833.38        62.12484
833.79        62.53227
834.20        63.01055
834.60         63.3168
835.01        63.38353
835.42        63.28462
835.82        63.10163
836.23         62.9334
836.64        62.84293
837.04        62.80529
837.45        62.79089
837.86        62.81248
838.26        62.87512
838.67        62.97618
839.08        63.10816
839.48        63.23426
839.89        63.33739
840.29        63.41996
840.70        63.49997
841.11        63.60871
841.51        63.76249
841.92        63.91078
842.33        64.03968
842.73        64.12675
843.14        64.12222
843.54        64.06973
843.95        63.97279
844.35        63.85887
844.76        63.73682
845.17        63.60862
845.57        63.51566
845.98        63.48928
846.38        63.56044
846.79        63.69838
847.19        63.87701
847.60         63.9729
848.00        63.99286
848.41        63.93483
848.81        63.88887
849.22        63.94868
849.62        64.16444
850.03         64.4443
850.43        64.74606
850.84        64.90842
851.24        64.93655
851.65        64.81365
852.05        64.60711
852.46        64.35119
852.86        64.09476
853.27         63.8927
853.67        63.69455
854.07        63.55084
854.48        63.43478
854.88        63.35423
855.29        63.31922
855.69        63.49249
856.10        63.79784
856.50         64.2692
856.90        64.68022
857.31        64.70612
857.71        64.33458
858.12        63.60772
858.52        62.78896
858.92        62.27518
859.33         62.1845
859.73        62.46831
860.13        62.94048
860.54        63.27689
860.94        63.42459
861.34        63.41469
861.75        63.33372
862.15        63.40128
862.55        63.62051
862.96        63.89647
863.36        64.08767
863.76        63.93252
864.17        63.38991
864.57        62.59409
864.97        61.74628
865.38        61.15781
865.78        60.97627
866.18        61.12556
866.58        61.53736
866.99        62.02787
867.39        62.52212
867.79        63.02824
868.19        63.48535
868.60        63.71864
869.00        63.78714
869.40        63.89932
869.80        63.99191
870.21         63.7623
870.61        63.25799
871.01        62.65882
871.41        62.08344
871.81        61.58656
872.22        61.21977
872.62        60.98535
873.02        60.86862
873.42        61.02222
873.82        61.22808
874.22        60.93182
874.63        60.42962
875.03        60.32505
875.43        60.68914
875.83        62.26453
876.23        62.03322
876.63        61.60686
877.03        60.68163
877.44        58.65726
877.84        173.3666
878.24        60.07696
878.64        61.07472
879.04         62.8109
879.44        63.44678
879.84        60.04659
880.24        65.24319
880.64        65.40309
881.04         62.8631
881.44         60.9396
881.84        60.24427
882.24        60.87851
882.65         62.1545
883.05        62.53902
883.45        61.72717
883.85        60.64495
884.25        59.75999
884.65        59.38428
885.05        59.65416
885.45        60.38241
885.85        61.22439
886.25        61.72005
886.65        61.75294
887.05        61.46466
887.45        61.03544
887.85        60.76375
888.25        60.75517
888.65        60.91541
889.04        61.16203
889.44        61.37322
889.84        61.49664
890.24        61.57501
890.64        61.64798
891.04        61.76901
891.44        61.94502
891.84        62.14456
892.24         62.3066
892.64        62.33727
893.04        62.22262
893.44        62.01382
893.83        61.80417
894.23        61.69482
894.63          61.736
895.03        61.91193
895.43        62.18688
895.83        62.49357
896.23        62.79094
896.63        63.05877
897.02        63.30656
897.42        63.61586
897.82        63.95558
898.22        64.29382
898.62        64.50435
899.01        64.40178
899.41        63.94556
899.81        63.22713
900.21         62.4376
900.61        61.88568
901.00        61.65462
901.40        61.74225
901.80        62.02793
902.20        62.16051
902.59        62.04438
902.99        62.04762
903.39         62.3825
903.79        61.62394
904.18        62.59795
904.58        62.97079
904.98        63.35834
905.38        63.38197
905.77        62.99628
906.17        62.33241
906.57        61.61807
906.96        61.32904
907.36        61.56745
907.76        62.20141
908.15        63.00176
908.55        63.43498
908.95        63.40031
909.34        63.00566
909.74        62.48785
910.14        62.18539
910.53        62.19456
910.93        62.39177
911.33        62.60611
911.72        62.56995
912.12        62.23907
912.52         61.7386
912.91        61.21064
913.31        60.94543
913.70        60.99021
914.10        61.24379
914.49        61.63599
914.89         61.9739
915.29        62.20309
915.68        62.34733
916.08        62.42201
916.47        62.40549
916.87        62.33797
917.26        62.21863
917.66        62.07727
918.05        61.98601
918.45        61.95617
918.84        61.99757
919.24        62.11404
919.64        62.36197
920.03        62.72892
920.42        63.15088
920.82        63.53607
921.21        63.75982
921.61        63.81097
922.00        63.78849
922.40        63.76626
922.79        63.72835
923.19        63.32711
923.58        63.47381
923.98        64.65834
924.37        64.45042
924.77        61.39979
925.16        69.97414
925.55        63.82906
925.95        64.59725
926.34        64.78279
926.74        64.25177
927.13        62.99113
927.52        62.20741
927.92        62.40879
928.31        62.91394
928.70        63.57141
929.10        64.08835
929.49        64.40565
929.89        64.65112
930.28        64.74746
930.67        64.45808
931.07        63.80019
931.46        62.71731
931.85        61.63941
932.24        61.75933
932.64        63.22879
933.03        65.07507
933.42        66.26527
933.82        68.69711
934.21        66.78278
934.60        64.93648
934.99        63.03132
935.39        62.56713
935.78        63.66536
936.17        66.50437
936.56        73.68702
936.96        67.05074
937.35        70.71724
937.74        66.97432
938.13        63.91548
938.53        61.47371
938.92        60.61227
939.31        61.77999
939.70        63.61118
940.09        64.72919
940.49        64.79311
940.88        64.31448
941.27          63.604
941.66        63.20097
942.05        63.32364
942.44        63.69114
942.84        64.08105
943.23        64.32668
943.62         64.3502
944.01        64.23775
944.40        64.13543
944.79        64.25112
945.18        64.62405
945.57         65.1697
945.97        65.64944
946.36         65.8178
946.75        65.56815
947.14        64.96947
947.53        64.26063
947.92        63.86143
948.31        63.88483
948.70        64.21497
949.09        64.57624
949.48        64.53083
949.87        64.00424
950.26        63.17299
950.65        62.31449
951.04        61.87043
951.43         61.9717
951.82        62.46867
952.21        63.19806
952.60        63.87605
952.99        64.35187
953.38        64.66903
953.77        64.82587
954.16        64.82632
954.55        64.69778
954.94        64.44785
955.33        64.09515
955.72        63.70601
956.11        63.34206
956.50        63.01627
956.89        62.86084
957.28        63.05077
957.66        63.62071
958.05        64.43409
958.44        65.24408
958.83        65.67395
959.22        65.62782
959.61        65.15141
960.00        64.47128
960.39        64.04817
960.78        64.03721
961.16        64.36755
961.55        64.66728
961.94        64.50015
962.33        63.79258
962.72         62.6681
963.11        61.51971
963.49        61.14723
963.88        61.77108
964.27        63.06897
964.66        64.47062
965.04        65.21693
965.43        65.09239
965.82        64.37597
966.21        63.35571
966.60        62.55589
966.98         62.1923
967.37        62.10618
967.76        62.24637
968.15         62.5239
968.53        62.90207
968.92        63.42937
969.31        63.99831
969.69        64.39932
970.08        64.53982
970.47        64.39186
970.86        64.15009
971.24        64.18863
971.63        64.55859
972.02        65.17678
972.40        65.68898
972.79        65.46716
973.17        64.48945
973.56        62.96098
973.95        61.44426
974.33        60.93251
974.72        61.68307
975.11        63.34785
975.49        65.40991
975.88         66.9323
976.26        67.67065
976.65        67.80918
977.04        67.52991
977.42        67.07345
977.81        66.51778
978.19        65.72531
978.58         65.0624
978.96        65.12591
979.35        65.96432
979.74        67.33669
980.12        68.73965
980.51        69.32774
980.89        69.11295
981.28        68.24375
981.66        66.97763
982.05        66.07565
982.43        65.84598
982.82        66.10756
983.20         66.7019
983.59        67.33544
983.97        67.92426
984.35        68.53489
984.74        68.98476
985.12        69.01892
985.51        68.59001
985.89         67.8782
986.28        67.12729
986.66        66.75779
987.04        66.91782
987.43        67.39994
987.81        67.90542
988.20        69.32458
988.58        71.61262
988.96        72.19735
989.35        70.42068
989.73        76.09775
990.12        72.72714
990.50        72.90782
990.88        72.32319
991.27        71.80481
991.65        71.37354
992.03        71.17814
992.42         71.1788
992.80        70.72005
993.18        69.71336
993.56        68.40023
993.95         67.1604
994.33        66.54036
994.71        66.69788
995.10        67.45063
995.48        68.49277
995.86        69.31042
996.24        69.72043
996.63        69.76039
997.01        69.71501
997.39        69.84862
997.77         70.2021
998.15        70.64542
998.54        71.00954
998.92        70.93942
999.30         70.4029
999.68        69.54081
1000.06        68.55901
1000.45         67.8378
1000.83        67.67173
1001.21         67.9532
1001.59        68.62947
1001.97         69.5862
1002.35        70.66663
1002.73        71.78483
1003.12        72.78572
1003.50        73.55801
1003.88        74.08167
1004.26        74.40658
1004.64        74.49445
1005.02        74.30044
1005.40        73.82068
1005.78        73.03537
1006.16        72.20406
1006.54        71.72458
1006.92        71.72286
1007.30        72.23326
1007.69        72.80009
1008.07         72.8093
1008.45        72.12683
1008.83        70.84171
1009.21        69.72783
1009.59        70.32263
1009.97        72.74274
1010.35        76.06512
1010.73        79.03031
1011.11        80.55007
1011.49        80.65553
1011.86        79.44414
1012.24         77.0957
1012.62        77.54555
1013.00        78.34314
1013.38        78.82399
1013.76        77.43893
1014.14        81.80261
1014.52        87.55778
1014.90         80.8435
1015.28        81.94405
1015.66        82.96387
1016.04        79.17736
1016.41        78.67561
1016.79        77.13445
1017.17        76.57667
1017.55        76.49917
1017.93        77.06822
1018.31        78.22288
1018.69        79.18008
1019.06        79.76991
1019.44        80.13755
1019.82        80.20206
1020.20        79.78979
1020.58        78.89476
1020.95        77.32554
1021.33        75.60162
1021.71        75.13612
1022.09        76.45378
1022.46        78.75933
1022.84        80.92024
1023.22        82.17478
1023.60        82.61736
1023.97        82.62232
1024.35         82.3018
1024.73        81.86661
