SpectraSmart Spectrum 2.9.0.0
--------- Device Information -----------
Spectrum Name :  反射率_0
Saving Time :  2024/04/21 00:17:00
Spectro-Module Model Name : SE2030-DUVN
Spectro-Module Serial Number : OS361AC55029948
Wavelength Start : 200
Wavelength End : 1025
Wavelength Unit : Wavelength(nm)
Spectrum Unit : Reflectance(%)
-----------Spectrum Setting ------------
Integration Time : 20ms
Average : 10
Boxcar : 0
Background removal :  enabled
linearity correction :  enabled
SC :  disabled
Intensity correction :  disabled
DWT denoise :  enabled
savitzky-golay :  disabled
FFT :  disabled
Running average :  disabled
Kalman :  disabled
High pass :  disabled
---------------BEGIN--------------------
Wavelength(nm)             Reflectance(%)
200.29               0
200.75       -90.36821
201.21       -14.19824
201.67        26.71419
202.13        40.76172
202.58        39.25542
203.04        27.48852
203.50        9.911554
203.96      -0.1540257
204.42        3.471837
204.88        14.86282
205.34        28.06606
205.80        35.18812
206.26        34.13641
206.72        28.82969
207.18        16.74335
207.64       -6.228074
208.10       -36.26952
208.55       -71.04041
209.01       -83.49431
209.47       -47.69283
209.93      -0.1854216
210.39         37.4262
210.85        60.87221
211.31        70.13217
211.77        68.82556
212.23        57.44342
212.69        31.68416
213.14       -9.595817
213.60       -67.34421
214.06       -196.7024
214.52       -412.8511
214.98       -132.8306
215.44       -7.898114
215.90        29.73561
216.36        40.46489
216.81        38.33378
217.27        22.85858
217.73       -51.41444
218.19        841.4152
218.65        370.5632
219.11       -783.0815
219.57       -23.39677
220.02        25.02254
220.48        33.07758
220.94        27.38972
221.40        6.490823
221.86       -43.61596
222.32       -76.85835
222.77       -32.62008
223.23         6.12397
223.69        25.80147
224.15        32.77003
224.61        33.17113
225.06        30.62557
225.52        25.80998
225.98        19.11348
226.44        11.29457
226.90        1.230403
227.36        -6.65265
227.81       -3.831862
228.27        6.367563
228.73        17.89071
229.19        25.70029
229.65        27.13978
230.10        23.25044
230.56        15.87884
231.02        6.490176
231.48       0.5026905
231.93        1.773078
232.39        8.108361
232.85        15.19028
233.31        19.48878
233.77        21.25369
234.22        22.08301
234.68        22.34987
235.14        22.56422
235.60         23.2353
236.05        23.41493
236.51        23.05631
236.97         27.8248
237.43        37.89718
237.88         43.6451
238.34        41.43835
238.80        62.11578
239.26        52.71292
239.71        52.28493
240.17        46.94854
240.63        41.67661
241.08        39.35372
241.54        42.50835
242.00        50.41312
242.46        53.55013
242.91        49.36621
243.37        37.74064
243.83        21.96807
244.28        15.81475
244.74        26.16754
245.20        44.74147
245.66        62.03562
246.11        69.22952
246.57        65.72122
247.03        54.82122
247.48        38.12759
247.94        17.51809
248.40       -11.37453
248.85       -77.14194
249.31        -273.061
249.77       -416.9342
250.22       -112.5093
250.68        12.31748
251.14         53.1421
251.59        67.16119
252.05        72.18131
252.51        72.93701
252.96        70.56486
253.42        68.97466
253.88        70.55666
254.33        73.39512
254.79        77.68775
255.25        81.76026
255.70        84.40114
256.16         86.3914
256.62        87.44989
257.07         87.4329
257.53        87.15295
257.99        86.37683
258.44        84.78667
258.90        83.01174
259.35        80.58968
259.81        78.24548
260.27        75.97289
260.72        73.91013
261.18         72.5186
261.63        71.30347
262.09        70.34772
262.55        69.15758
263.00        67.60626
263.46        66.04579
263.91        64.49818
264.37        63.53152
264.83         63.0352
265.28        62.76287
265.74        62.52945
266.19        61.80564
266.65        60.63285
267.11        59.10683
267.56        57.45351
268.02        56.13565
268.47        55.18005
268.93          54.474
269.38        53.76755
269.84        52.75633
270.30        51.36129
270.75         49.7233
271.21        48.03695
271.66        46.50941
272.12        45.25769
272.57        44.18561
273.03        43.29095
273.48        42.50266
273.94        41.81129
274.39        41.18711
274.85        40.61486
275.31        39.97805
275.76        39.25074
276.22        38.50826
276.67        37.77147
277.13        37.18606
277.58        36.71569
278.04        36.34597
278.49        35.99098
278.95        35.64201
279.40        35.22355
279.86         34.7915
280.31        34.27371
280.77         33.6748
281.22        32.97237
281.68        32.25954
282.13        31.55907
282.59        30.99796
283.04        30.57249
283.50        30.28662
283.95        30.12993
284.41        30.12477
284.86        30.23756
285.32        30.47318
285.77        30.73358
286.22        30.91198
286.68        31.00406
287.13        30.98151
287.59        30.97497
288.04        31.07255
288.50        31.27431
288.95        31.64471
289.41        32.10662
289.86        32.09186
290.32        31.53502
290.77        32.22777
291.22        31.40858
291.68        31.62955
292.13        32.08942
292.59        32.82602
293.04         33.7781
293.50        34.91481
293.95        36.21546
294.40         37.6608
294.86        39.21823
295.31        40.82359
295.77        42.44818
296.22        44.06295
296.68        45.68101
297.13        47.32403
297.58        49.01686
298.04          50.756
298.49        52.53388
298.95        54.36089
299.40        56.21364
299.85        58.10522
300.31        60.01595
300.76        61.87563
301.21        63.68795
301.67        65.49084
302.12        67.30743
302.58        69.30498
303.03        71.45809
303.48        73.76061
303.94        76.11328
304.39        78.29656
304.84         80.2696
305.30        82.10269
305.75         83.8327
306.20         85.6507
306.66        87.59399
307.11        89.53734
307.57        91.42586
308.02         93.0762
308.47        94.49426
308.93        95.78551
309.38         96.9678
309.83        98.16313
310.29        99.42271
310.74        100.6686
311.19        101.9206
311.65        103.1892
312.10        104.4386
312.55        105.6731
313.00        106.8146
313.46        107.7404
313.91        108.4158
314.36        108.8904
314.82        109.2803
315.27        109.7584
315.72        110.3786
316.18         111.089
316.63         111.811
317.08        112.4136
317.53        112.8558
317.99        113.1828
318.44         113.433
318.89         113.647
319.35        113.8497
319.80        114.0407
320.25        114.2401
320.70        114.4923
321.16        114.7905
321.61        115.1335
322.06        115.4926
322.51         115.826
322.97        116.0991
323.42        116.3656
323.87        116.5801
324.32        116.6939
324.78        116.6907
325.23        116.6271
325.68        116.5864
326.13        116.7384
326.59        117.0916
327.04        117.6637
327.49        118.2952
327.94        118.7514
328.39        118.9629
328.85        118.9449
329.30        118.9002
329.75        119.0276
330.20          119.39
330.66         119.884
331.11        120.4394
331.56         120.784
332.01        120.8609
332.46         120.754
332.92        120.5746
333.37        120.6657
333.82        121.0633
334.27        121.6976
334.72        122.4526
335.17        123.1326
335.63        123.6373
336.08        124.0855
336.53        124.5145
336.98        125.0425
337.43        125.6931
337.88        126.4011
338.34        127.0708
338.79        127.6264
339.24        128.0105
339.69        128.2708
340.14        128.4519
340.59        128.6214
341.05        128.8173
341.50        129.0401
341.95        129.3173
342.40        129.6957
342.85        130.1737
343.30        130.7314
343.75        131.3038
344.20        131.7897
344.66        132.1603
345.11        132.4062
345.56        132.5585
346.01        132.6748
346.46        132.7896
346.91        132.8752
347.36        132.8971
347.81        132.9059
348.26        132.9253
348.72        132.5808
349.17         132.641
349.62        132.6962
350.07        132.9644
350.52        133.3671
350.97        133.7494
351.42        133.8483
351.87        133.5923
352.32        133.0658
352.77        132.4078
353.22        131.8339
353.67        131.4066
354.13        131.0842
354.58        130.7705
355.03        130.3667
355.48        129.8497
355.93        129.2694
356.38        128.6849
356.83        128.1736
357.28        127.7383
357.73        127.3282
358.18        126.8814
358.63        126.3126
359.08        125.6054
359.53        124.8027
359.98        123.9307
360.43        123.0218
360.88        122.0945
361.33        121.1387
361.78         120.202
362.23        119.3614
362.68        118.6288
363.13        117.9905
363.58        117.3538
364.03        116.5655
364.48        115.5923
364.93        114.4722
365.38        113.3194
365.83         112.326
366.28        111.5337
366.73        110.8782
367.18        110.2434
367.63        109.4456
368.08        108.4466
368.53        107.3239
368.98        106.1607
369.43        105.0671
369.88        104.0766
370.33        103.1522
370.78        102.2846
371.23        101.4796
371.68        100.7379
372.13          100.06
372.58        99.44035
373.03        98.84659
373.48        98.25767
373.93        97.68241
374.38        97.07005
374.83        96.35789
375.28        95.55692
375.72        94.66937
376.17        93.85368
376.62        93.25854
377.07        92.88621
377.52        92.67066
377.97        92.45336
378.42        91.98209
378.87         91.2205
379.32        90.28153
379.77        89.31567
380.22        88.52035
380.67        87.93149
381.11        87.47971
381.56        87.10638
382.01        86.74149
382.46        86.36163
382.91        86.00497
383.36         85.6368
383.81        85.19607
384.26        84.67396
384.71        84.06976
385.15        83.45287
385.60        83.00782
386.05        82.73373
386.50        82.58598
386.95        82.43279
387.40        82.07216
387.85        81.48438
388.29        80.70683
388.74        79.98805
389.19        79.45637
389.64        79.12827
390.09        78.92845
390.54        78.76468
390.98        78.47902
391.43        78.08423
391.88         77.6329
392.33        77.17714
392.78        76.79024
393.23        76.49122
393.67        76.19321
394.12        75.97655
394.57        75.82025
395.02        75.68774
395.47        75.48774
395.91        75.22731
396.36        74.97018
396.81        74.74467
397.26        74.53394
397.71        74.31423
398.15         74.0589
398.60        73.84762
399.05        73.52409
399.50        73.19215
399.95        73.18809
400.39        73.41184
400.84        73.37061
401.29        73.00146
401.74        72.41015
402.18        71.74824
402.63        71.36665
403.08        71.25372
403.53         70.9881
403.97        70.56402
404.42        70.30617
404.87        70.21797
405.32        70.16426
405.76         70.1209
406.21        70.11898
406.66        70.10329
407.11        70.03643
407.55        69.90961
408.00        69.60191
408.45        69.19649
408.90        68.93947
409.34        68.83944
409.79        68.72366
410.24        68.57518
410.68         68.4934
411.13        68.46885
411.58        68.43843
412.03        68.38454
412.47        68.32818
412.92        68.23808
413.37        68.11436
413.81        67.97115
414.26        67.88433
414.71        67.84258
415.15        67.85199
415.60        67.83109
416.05        67.70037
416.49        67.45281
416.94        67.11539
417.39        66.78353
417.83        66.58778
418.28        66.55595
418.73        66.64472
419.17        66.76137
419.62        66.76261
420.07        66.60967
420.51        66.34541
420.96        66.07219
421.41        65.87737
421.85        65.75828
422.30        65.77846
422.74        65.85574
423.19        65.83717
423.64        65.75475
424.08        65.97536
424.53        66.35145
424.98        66.49354
425.42        66.37762
425.87        66.02239
426.31         65.6051
426.76        65.68443
427.21        66.13074
427.65        66.02613
428.10        65.39436
428.54        65.12009
428.99        65.25633
429.44        65.29187
429.88        65.19585
430.33        65.19916
430.77        65.22915
431.22        65.36449
431.66        65.52118
432.11        65.49405
432.56        65.36578
433.00        65.16066
433.45        64.71955
433.89        64.76871
434.34        65.42833
434.78        63.83489
435.23        63.69387
435.67        64.60879
436.12        65.30997
436.57        65.47591
437.01        64.62622
437.46        64.25865
437.90         65.1028
438.35        64.93454
438.79        65.16765
439.24        65.07807
439.68        65.04641
440.13        64.96886
440.57        64.86388
441.02        64.82278
441.46        64.81559
441.91        64.75349
442.35        64.63538
442.80        64.85896
443.24        65.29065
443.69        65.46635
444.13        65.32279
444.58        65.10977
445.02        64.89101
445.47         64.8428
445.91        64.93209
446.36        64.92813
446.80        64.81637
447.24        64.71292
447.69        64.64758
448.13        64.76846
448.58        64.83385
449.02        64.69006
449.47        64.34351
449.91        64.15546
450.36        64.17009
450.80        64.11726
451.25        64.00748
451.69        64.01871
452.13        64.09292
452.58        63.91539
453.02        63.54339
453.47        63.34907
453.91        63.34626
454.36        63.35668
454.80        63.30629
455.24        63.18629
455.69        63.00844
456.13        62.70548
456.58        62.37962
457.02        62.36635
457.46        62.31508
457.91         62.3539
458.35        62.43971
458.79        62.46597
459.24        62.44987
459.68        62.41537
460.13        62.39814
460.57        62.20776
461.01        61.83782
461.46        61.97102
461.90        61.41817
462.34        61.41527
462.79        61.29045
463.23        61.45067
463.68        61.66435
464.12        61.42274
464.56        60.84674
465.01        60.83279
465.45        61.23719
465.89        61.14053
466.34        60.61095
466.78        60.51066
467.22        60.90025
467.67        60.39175
468.11        60.50516
468.55        60.26076
468.99        60.13802
469.44        60.00297
469.88        59.86748
470.32         59.7378
470.77        59.60418
471.21        59.48533
471.65        59.38279
472.10        59.30913
472.54         59.2366
472.98        59.14804
473.42         59.0485
473.87         58.9236
474.31        58.79758
474.75        58.87268
475.20        59.08689
475.64        59.19372
476.08        59.18838
476.52        59.11922
476.97         58.9233
477.41        59.02008
477.85        59.04152
478.29        58.31363
478.74        57.86598
479.18         58.1003
479.62        58.25662
480.06        58.36211
480.50        58.42131
480.95        58.50713
481.39        58.62391
481.83        58.68289
482.27        59.12973
482.72        58.43902
483.16        58.63313
483.60        58.75312
484.04        58.61932
484.48        58.25752
484.93        58.12907
485.37        58.00749
485.81         58.4677
486.25        58.09414
486.69         60.3813
487.14        60.52709
487.58        59.05031
488.02        58.49443
488.46        58.34169
488.90         58.0722
489.34        57.49465
489.79        57.20877
490.23         57.8927
490.67        57.98486
491.11        57.70822
491.55        57.51392
491.99        57.47097
492.43        57.41693
492.88        57.36138
493.32        57.39714
493.76        57.45477
494.20        57.49272
494.64        57.51882
495.08        57.21133
495.52         57.1837
495.96        57.13054
496.41        57.18131
496.85        57.09179
497.29         56.8569
497.73        56.91387
498.17        56.91937
498.61        56.89258
499.05        56.72506
499.49        56.52403
499.93          56.388
500.37          56.411
500.82        56.54916
501.26        56.80312
501.70         57.0456
502.14        56.64765
502.58        56.20053
503.02        55.95195
503.46        56.04171
503.90        56.17317
504.34        56.25851
504.78        56.33058
505.22        56.37291
505.66        56.32555
506.10        56.20463
506.54        56.22717
506.98        56.44043
507.42        56.06371
507.86        56.38454
508.30        56.33501
508.74        56.26206
509.18        56.16327
509.62        56.05634
510.06        55.99114
510.50         55.9495
510.94        55.86967
511.38        55.75591
511.82        55.67631
512.26        55.63285
512.70        55.58594
513.14         55.5378
513.58          55.509
514.02        55.49991
514.46        55.50412
514.90        55.49686
515.34        55.48767
515.78        55.47965
516.22        55.41813
516.66        55.18162
517.10        55.46796
517.54        55.27708
517.98        55.36867
518.42        55.42044
518.86        55.43151
519.30        55.39105
519.74        55.27422
520.18        55.14497
520.62        55.16758
521.06         55.3158
521.50        55.36644
521.93        55.30095
522.37        55.26597
522.81         55.2614
523.25        55.19204
523.69        55.07881
524.13        55.00495
524.57        54.98158
525.01        54.98406
525.45         55.0023
525.89        55.01997
526.32        55.02759
526.76        55.03677
527.20        55.04259
527.64        55.03801
528.08        55.02207
528.52        54.99634
528.96        54.96849
529.40        54.94568
529.83        54.92738
530.27        54.93672
530.71        54.95139
531.15        54.93338
531.59        54.87882
532.03        54.80588
532.46        54.72874
532.90        54.68159
533.34        54.66864
533.78        54.68039
534.22        54.70398
534.66        54.71956
535.09        54.71307
535.53        54.70833
535.97         54.6982
536.41        54.68666
536.85         54.6759
537.28        54.66358
537.72        54.65455
538.16        54.65855
538.60        54.67595
539.04        54.70575
539.47        54.72614
539.91        54.74931
540.35        54.75943
540.79        54.75909
541.22        54.75253
541.66        54.76073
542.10        54.78011
542.54        54.79944
542.97        54.80441
543.41        54.80188
543.85        54.78838
544.29        54.78032
544.72        54.75696
545.16        54.73445
545.60        54.70742
546.04        54.60836
546.47        54.50196
546.91        54.62746
547.35        54.91262
547.79        55.03981
548.22         54.9608
548.66         54.8167
549.10        54.67074
549.53        54.61485
549.97        54.64521
550.41        54.60102
550.84        54.47868
551.28        54.39047
551.72        54.36372
552.15         54.3885
552.59        54.44899
553.03        54.54686
553.46        54.48727
553.90        54.43818
554.34        54.34254
554.77        54.16542
555.21        53.98472
555.65        53.94395
556.08        54.05875
556.52        54.27579
556.96         54.5019
557.39        54.65649
557.83         54.6931
558.27        54.51715
558.70         54.2275
559.14        54.08781
559.57        54.13063
560.01        54.30864
560.45        54.49586
560.88        54.49302
561.32        54.35667
561.75        54.13357
562.19        53.96081
562.63        54.15679
563.06        54.57334
563.50        54.52483
563.93        54.06038
564.37        53.83964
564.80        53.90808
565.24        54.07336
565.68        54.26739
566.11        54.38171
566.55        54.40979
566.98        54.46355
567.42        54.54916
567.85        54.51432
568.29         54.4312
568.72        54.41822
569.16        54.53185
569.60        54.69421
570.03        54.89054
570.47        55.13374
570.90        55.30804
571.34        55.50505
571.77        55.80699
572.21        55.27348
572.64        55.42923
573.08        55.18996
573.51        54.88474
573.95        55.41434
574.38        55.70328
574.82        56.04362
575.25        55.89602
575.69        55.64025
576.12        55.29829
576.56        55.68194
576.99        55.82109
577.42        56.13502
577.86        55.44462
578.29        56.33212
578.73        56.65667
579.16        56.21187
579.60         55.7508
580.03        55.65269
580.47        55.69292
580.90        55.83736
581.33        55.92429
581.77         56.4687
582.20        56.66594
582.64        56.78028
583.07        56.40468
583.51        55.91724
583.94        55.55542
584.37        55.33727
584.81        55.14357
585.24        55.31881
585.68        55.97469
586.11        56.03584
586.54        55.95848
586.98        55.84303
587.41        55.30283
587.85        55.67552
588.28        55.64633
588.71        55.96489
589.15        55.34217
589.58        55.44932
590.01        54.95948
590.45        55.13469
590.88        55.11385
591.31        54.84488
591.75        54.85012
592.18        54.68545
592.61        54.55692
593.05        55.35883
593.48        55.54057
593.91         55.6866
594.35        55.62894
594.78        55.44313
595.21        54.68106
595.65        54.70962
596.08        55.23165
596.51         55.4807
596.94        54.92516
597.38         54.7999
597.81        55.04166
598.24          54.798
598.68        54.75953
599.11        54.60175
599.54        55.13102
599.97        55.07401
600.41        55.04094
600.84        55.46235
601.27        55.22757
601.70        55.35268
602.14        54.91425
602.57        54.81358
603.00        54.90972
603.43        54.93431
603.87        55.37761
604.30        55.26937
604.73        55.17167
605.16         55.0182
605.60         54.8255
606.03        54.82598
606.46        54.99725
606.89        54.79801
607.32        54.45378
607.76        55.26105
608.19        54.80938
608.62         54.7908
609.05        55.40006
609.48        54.75496
609.92        54.64723
610.35        54.60088
610.78        54.82256
611.21        54.67429
611.64        54.69828
612.07        54.64806
612.50        54.69908
612.94        54.68414
613.37        54.61187
613.80        54.68488
614.23        54.59016
614.66        54.49992
615.09        54.35154
615.52        54.27032
615.96        54.25649
616.39        54.21481
616.82        54.14231
617.25        54.10225
617.68        54.13516
618.11        54.03497
618.54        53.95224
618.97        53.91224
619.40        54.00163
619.84        53.57346
620.27        53.79623
620.70        53.77298
621.13        53.82424
621.56        53.93226
621.99        54.07364
622.42         54.0928
622.85        53.95771
623.28        54.00667
623.71        53.90071
624.14        54.07114
624.57         54.0159
625.00        54.45897
625.43        53.88025
625.86        53.84169
626.29        54.00091
626.72        53.53634
627.15        53.66723
627.58        53.62509
628.01         53.8032
628.44        53.52978
628.87        53.46402
629.30        53.70237
629.73        53.69511
630.16        53.60058
630.59        53.48902
631.02        53.72835
631.45        53.63349
631.88        53.61375
632.31        53.41577
632.74        53.58222
633.17        53.31551
633.60        53.27151
634.03        53.22506
634.46         53.2375
634.89        53.21998
635.32        53.25871
635.75         53.3288
636.18        53.41395
636.61        53.49266
637.04        53.53214
637.47        53.52416
637.89        53.48347
638.32        53.41076
638.75        53.33317
639.18         53.2637
639.61        53.20058
640.04        53.15711
640.47          53.153
640.90        53.18884
641.33        53.25756
641.76        53.33849
642.18        53.40159
642.61        53.42333
643.04        53.41687
643.47        53.38797
643.90        53.35434
644.33        53.32376
644.76        53.27772
645.18        53.22941
645.61        53.22569
646.04        53.25775
646.47        53.25648
646.90        53.22292
647.33        53.22598
647.75        53.25719
648.18        53.27023
648.61        53.29213
649.04        53.34306
649.47        53.36906
649.89         53.6205
650.32        53.49931
650.75        53.38702
651.18        53.18758
651.61        53.25812
652.03         53.5243
652.46        53.51848
652.89         53.3269
653.32        53.26925
653.74        53.26003
654.17        53.70598
654.60        53.18316
655.03        52.72107
655.46        52.65083
655.88        53.86624
656.31        55.30935
656.74        60.93384
657.16        59.53654
657.59        57.79775
658.02        54.92665
658.45         53.7095
658.87        53.41961
659.30        53.42664
659.73        53.31911
660.15        52.77988
660.58        53.25795
661.01        53.49198
661.44        53.75837
661.86        53.63832
662.29        53.20722
662.72        52.96702
663.14        52.99601
663.57        53.12753
664.00        53.28603
664.42        53.37525
664.85        53.37336
665.27        53.24238
665.70        53.20091
666.13        53.16854
666.55        53.21583
666.98        53.30419
667.41        53.39467
667.83        53.43636
668.26        53.42274
668.69        53.32706
669.11        53.16927
669.54        53.17002
669.96        53.38642
670.39        53.04511
670.82        53.40517
671.24        53.40364
671.67        53.39233
672.09        53.36735
672.52        53.36639
672.94        53.31117
673.37        53.24205
673.80        53.32893
674.22        53.53191
674.65        53.59336
675.07        53.50625
675.50        53.39057
675.92        53.29425
676.35        53.22759
676.77        53.20539
677.20        53.24449
677.62        53.34177
678.05        53.39609
678.47        53.37757
678.90        53.62713
679.32        53.55276
679.75        53.63356
680.17         53.6914
680.60        53.73906
681.02        53.75615
681.45        53.72616
681.87        53.65917
682.30        53.53307
682.72        53.41202
683.15        53.40496
683.57        53.47891
684.00        53.64864
684.42        53.48262
684.85        53.50708
685.27        53.58409
685.70        53.62259
686.12        53.60353
686.54        53.58992
686.97        53.59137
687.39        53.58325
687.82        53.55949
688.24        53.59492
688.66        53.69598
689.09        53.63497
689.51         53.7683
689.94        53.84181
690.36        53.93953
690.78         53.9836
691.21        53.97767
691.63        53.92036
692.06        53.84873
692.48        53.85936
692.90        53.92638
693.33        53.91243
693.75        53.82185
694.17        53.69775
694.60        53.55811
695.02        53.60031
695.44        53.59195
695.87        53.55151
696.29        53.46742
696.71        53.53724
697.14        53.74694
697.56        54.01227
697.98        54.26677
698.41        54.28581
698.83        54.38237
699.25        54.28871
699.68        54.13166
700.10        53.97248
700.52        53.84021
700.94        53.72269
701.37        53.62248
701.79        53.58828
702.21        53.60749
702.64        53.68008
703.06        53.78228
703.48        53.87654
703.90        53.95163
704.33        54.00946
704.75        54.04945
705.17        54.05656
705.59        54.03397
706.01        53.98198
706.44        53.93483
706.86        53.96628
707.28        54.07533
707.70        54.23806
708.12        54.40876
708.55        54.50851
708.97        54.51156
709.39         54.4487
709.81        54.34392
710.23        54.24435
710.66        54.17686
711.08        54.14577
711.50        54.13602
711.92        54.13718
712.34          54.146
712.76        54.16195
713.19        54.19876
713.61        54.31565
714.03        54.48863
714.45        54.70747
714.87        54.90931
715.29        54.96376
715.71        54.84816
716.13        54.74174
716.56        54.45079
716.98         54.3487
717.40        54.38501
717.82        54.52585
718.24         54.7094
718.66        54.83406
719.08        54.87025
719.50        54.85106
719.92         54.8023
720.34        54.76189
720.76        54.74538
721.19          54.728
721.61        54.73179
722.03        54.77122
722.45        54.84651
722.87        54.95753
723.29        55.07525
723.71        55.14824
724.13        55.16437
724.55        55.13246
724.97        55.08868
725.39        55.09663
725.81         55.1687
726.23        55.28158
726.65        55.39211
727.07        55.43812
727.49        55.40784
727.91        55.31171
728.33        55.18681
728.75        55.13528
729.17        55.16019
729.59        55.14912
730.01        55.11905
730.43        55.18223
730.85        55.33675
731.27        55.50143
731.69        55.64005
732.10        55.69993
732.52         55.8204
732.94        55.60816
733.36        55.22321
733.78        55.05017
734.20        55.14406
734.62        55.31986
735.04        55.49059
735.46        55.57844
735.88        55.56464
736.30        55.50215
736.72        55.42259
737.13        55.42671
737.55        55.48898
737.97         55.4356
738.39        55.31577
738.81        55.49015
739.23        55.87996
739.65        55.94113
740.06        55.66219
740.48        55.55809
740.90        55.61337
741.32        55.56232
741.74        55.42111
742.16        55.35929
742.57        55.40347
742.99        55.49707
743.41        55.60125
743.83        55.63306
744.25        55.57336
744.67        55.44305
745.08        55.32304
745.50        55.30795
745.92        55.43291
746.34        55.66892
746.75        55.91174
747.17        55.99004
747.59        55.87123
748.01        55.58021
748.42        55.26069
748.84         55.1662
749.26        55.31546
749.68        55.59547
750.09        55.87791
750.51        55.87608
750.93         55.6476
751.35        55.64776
751.76        55.86615
752.18        55.90426
752.60        55.75832
753.01         55.6878
753.43        55.68105
753.85        55.64294
754.27        55.57718
754.68        55.51807
755.10        55.48918
755.52         55.4973
755.93        55.54365
756.35        55.62954
756.77        55.75135
757.18         55.8457
757.60        55.88064
758.02         55.9784
758.43        56.18455
758.85        55.91676
759.26        56.10411
759.68        56.31945
760.10        56.12734
760.51        55.79891
760.93        55.85744
761.34         55.8316
761.76        55.91077
762.18        55.97102
762.59        55.96498
763.01        56.08648
763.42        55.61532
763.84        55.76888
764.26        55.87482
764.67        56.16332
765.09        56.41161
765.50        56.49289
765.92        56.43155
766.33        56.33746
766.75        56.24719
767.16        56.20111
767.58        56.16042
768.00        56.26855
768.41        56.48383
768.83        56.32312
769.24        55.81983
769.66         56.0743
770.07        55.96741
770.49        55.98087
770.90        55.82346
771.32        55.86778
771.73        56.08664
772.15        56.20596
772.56        56.22271
772.97        56.25008
773.39          56.257
773.80        56.20905
774.22        56.08398
774.63        55.92141
775.05        55.75546
775.46        55.68427
775.88        55.71143
776.29        55.83203
776.70        55.99019
777.12        56.09947
777.53        56.15037
777.95        56.16492
778.36        56.16066
778.77        56.16358
779.19        56.17974
779.60        56.19519
780.02        56.23165
780.43        56.32094
780.84        56.45707
781.26        56.68773
781.67        56.95897
782.09        56.93974
782.50        56.68897
782.91        56.65803
783.33        56.82782
783.74        56.87073
784.15        56.74849
784.57        56.71405
784.98        56.78724
785.39        56.81271
785.81        56.81172
786.22        56.92764
786.63        57.11647
787.04        57.20826
787.46        57.19947
787.87        57.14565
788.28        57.09804
788.70        57.10474
789.11        57.15932
789.52        57.24808
789.93        57.34135
790.35        57.38284
790.76        57.37537
791.17        57.35077
791.58        57.30838
792.00        57.24864
792.41        57.21146
792.82        57.13308
793.23        57.10794
793.65        57.34387
794.06        57.79101
794.47        58.22861
794.88        58.58126
795.29        58.45696
795.71         58.7221
796.12        58.52493
796.53        58.19263
796.94        58.03606
797.35        58.06538
797.76        57.95995
798.18        57.71498
798.59        57.57707
799.00         57.5494
799.41         57.5022
799.82        57.43349
800.23        57.40429
800.64        57.41296
801.06        57.41941
801.47        57.44557
801.88        57.46105
802.29        57.46418
802.70         57.4673
803.11        57.47974
803.52        57.51475
803.93        57.57282
804.34        57.64133
804.75        57.73468
805.17        57.84406
805.58        57.98193
805.99        58.20399
806.40        58.44506
806.81        58.42244
807.22        58.19843
807.63        58.18586
808.04        58.40058
808.45        58.52099
808.86        58.52936
809.27        58.62386
809.68        58.78553
810.09        58.86417
810.50        58.84159
810.91        58.77701
811.32        58.65731
811.73        58.45906
812.14        58.19982
812.55        57.88549
812.96         57.6296
813.37        57.62488
813.78        57.89935
814.19        58.38478
814.60        58.90663
815.01         59.1982
815.42        59.19223
815.83        58.94995
816.24        58.59234
816.65        58.35981
817.05        58.34499
817.46         58.4566
817.87        58.62758
818.28        58.71421
818.69        58.68381
819.10        58.59926
819.51        58.52084
819.92        58.54296
820.33        58.68765
820.74        58.89317
821.14        59.12152
821.55        59.34867
821.96        59.54111
822.37         59.7117
822.78        59.80063
823.19        59.70584
823.60        59.41819
824.00        58.98122
824.41        58.50238
824.82        58.22108
825.23        58.20225
825.64        58.39829
826.04        58.70188
826.45        58.89241
826.86        58.92364
827.27        58.85802
827.68        58.77185
828.08        58.81837
828.49        58.97104
828.90        59.21563
829.31        59.51778
829.72        59.71769
830.12        59.77871
830.53        60.18332
830.94        60.04966
831.35        59.97797
831.75        59.73092
832.16        59.33286
832.57        58.93191
832.97        58.77937
833.38        58.92799
833.79        59.29532
834.20        59.73331
834.60        60.01396
835.01        60.07169
835.42        59.97025
835.82        59.78933
836.23        59.62888
836.64        59.55151
837.04        59.54088
837.45        59.55298
837.86        59.57483
838.26        59.60849
838.67        59.65083
839.08        59.73991
839.48        59.91489
839.89        60.16504
840.29        60.46414
840.70        60.74344
841.11        60.88847
841.51         60.8849
841.92        60.73336
842.33        60.51587
842.73        60.37138
843.14        60.30442
843.54         60.3141
843.95        60.35505
844.35        60.36799
844.76         60.3283
845.17        60.26321
845.57         60.2149
845.98        60.21452
846.38        60.29579
846.79        60.41946
847.19         60.5682
847.60         60.6463
848.00        60.66217
848.41        60.60393
848.81        60.55908
849.22        60.61529
849.62        60.82315
850.03        61.11545
850.43        61.42004
850.84        61.52607
851.24        61.43765
851.65        61.14491
852.05        60.82153
852.46        60.69528
852.86          60.826
853.27        61.17523
853.67        61.49996
854.07        61.58712
854.48        61.37182
854.88        60.94285
855.29        60.44836
855.69        60.30739
856.10        60.54408
856.50        61.11492
856.90        61.72807
857.31        61.93723
857.71        61.67582
858.12        61.03942
858.52        60.26469
858.92        59.70076
859.33        59.46752
859.73        59.51122
860.13         59.7393
860.54        59.99311
860.94        60.25742
861.34         60.5331
861.75        60.78596
862.15        61.02385
862.55        61.19436
862.96         61.2532
863.36        61.19551
863.76         60.9846
864.17        60.63694
864.57        60.22717
864.97        59.79588
865.38         59.3876
865.78        59.07642
866.18        58.85237
866.58        58.84125
866.99        59.20734
867.39        59.95217
867.79        60.94926
868.19        61.89669
868.60        62.29985
869.00        62.15627
869.40        61.77508
869.80        61.24997
870.21        60.57183
870.61        59.91814
871.01        59.41862
871.41        59.06794
871.81        58.72569
872.22        58.39913
872.62        58.14339
873.02         58.0452
873.42        58.43443
873.82        59.08809
874.22        59.32863
874.63        59.30715
875.03        59.39184
875.43        59.59254
875.83        60.77411
876.23        59.96322
876.63        59.03857
877.03        57.75003
877.44        55.40421
877.84        179.3111
878.24        56.69452
878.64        57.55229
879.04        59.21372
879.44        59.73118
879.84        55.92625
880.24        61.73479
880.64        62.07613
881.04        59.49428
881.44        57.52951
881.84         56.8021
882.24        57.44362
882.65        58.77958
883.05        59.24239
883.45        58.52982
883.85        57.60818
884.25         56.9128
884.65        56.67773
885.05        57.00787
885.45        57.71676
885.85        58.47915
886.25        58.86042
886.65        58.76098
887.05        58.34732
887.45        57.75132
887.85        57.19533
888.25        56.79055
888.65        56.45755
889.04        56.30686
889.44         56.5286
889.84        57.09649
890.24        57.93391
890.64        58.74296
891.04        59.07961
891.44        58.86837
891.84        58.23944
892.24        57.45178
892.64        56.96768
893.04        56.94496
893.44        57.26572
893.83        57.78252
894.23        58.23194
894.63        58.54261
895.03        58.78183
895.43        59.01593
895.83        59.33665
896.23        59.74224
896.63        60.15757
897.02        60.46019
897.42        60.54644
897.82         60.3858
898.22        60.03671
898.62        59.61097
899.01        59.29707
899.41        59.13057
899.81        59.07441
900.21        59.06149
900.61        58.96795
901.00        58.74755
901.40        58.52641
901.80        58.34635
902.20        58.10103
902.59        57.77875
902.99        57.70926
903.39        58.08612
903.79        57.26025
904.18        58.35072
904.58        58.78789
904.98        59.26419
905.38        59.35032
905.77        58.99072
906.17        58.31599
906.57        57.54738
906.96        57.16425
907.36        57.28555
907.76         57.7953
908.15        58.50494
908.55        58.94936
908.95         59.0434
909.34        58.86926
909.74        58.64145
910.14        58.65872
910.53        58.98322
910.93        59.47973
911.33        59.92276
911.72        59.96986
912.12         59.5631
912.52        58.84504
912.91        58.02443
913.31        57.49837
913.70        57.34976
914.10        57.47083
914.49        57.74934
914.89        57.91669
915.29        57.91092
915.68        57.79496
916.08        57.66121
916.47        57.59911
916.87        57.66365
917.26        57.80391
917.66          57.956
918.05         58.0484
918.45        58.04427
918.84        57.97972
919.24        57.91636
919.64         58.0091
920.03         58.2815
920.42        58.65706
920.82        59.00228
921.21        59.12086
921.61        59.00513
922.00        58.80003
922.40        58.67589
922.79        58.74449
923.19        58.61451
923.58        59.23299
923.98        60.99929
924.37        61.04284
924.77        57.75196
925.16        67.03384
925.55        60.01239
925.95        60.49224
926.34        60.28434
926.74        59.22416
927.13        57.38443
927.52        56.33295
927.92        56.70612
928.31        57.67256
928.70        58.88781
929.10        59.77644
929.49        60.21233
929.89        60.38723
930.28        60.32314
930.67        59.96563
931.07        59.39389
931.46        58.49476
931.85        57.59741
932.24        57.77727
932.64        59.16814
933.03        60.78173
933.42        61.68398
933.82        64.38251
934.21        62.57539
934.60        61.19267
934.99        59.80702
935.39        59.58431
935.78        60.54002
936.17        63.06506
936.56        70.43097
936.96        62.52893
937.35        66.65006
937.74        62.59161
938.13        59.48052
938.53        57.01892
938.92        56.16407
939.31        57.48348
939.70        59.45214
940.09        60.52087
940.49         60.3285
940.88        59.42725
941.27        58.26721
941.66        57.67143
942.05        57.94664
942.44        58.71135
942.84          59.575
943.23        60.14333
943.62        60.27501
944.01         60.1106
944.40        59.87547
944.79          59.919
945.18        60.31429
945.57        60.91636
945.97        61.41045
946.36        61.43707
946.75        60.87306
947.14        59.85851
947.53        58.70947
947.92        57.96619
948.31        57.80622
948.70         58.0925
949.09        58.55698
949.48        58.77243
949.87        58.63205
950.26        58.27325
950.65        57.89888
951.04        57.82989
951.43        58.14971
951.82        58.73466
952.21        59.39191
952.60        59.81344
952.99        59.88706
953.38        59.68809
953.77         59.3794
954.16        59.19079
954.55        59.18889
954.94        59.34455
955.33        59.49574
955.72         59.3629
956.11        58.89606
956.50         58.1831
956.89        57.57109
957.28        57.58831
957.66        58.35319
958.05        59.62321
958.44        60.91656
958.83         61.5118
959.22        61.24461
959.61        60.25569
960.00        59.03699
960.39        58.54005
960.78        59.03545
961.16        60.25553
961.55        61.46459
961.94        61.77876
962.33        61.04535
962.72        59.51062
963.11        57.78863
963.49        57.12433
963.88        57.90405
964.27        59.65266
964.66         61.5695
965.04        62.57758
965.43        62.39454
965.82        61.41212
966.21        60.05839
966.60        59.09309
966.98        58.79696
967.37        58.90773
967.76        59.26431
968.15        59.61639
968.53        59.86608
968.92        60.12514
969.31        60.31244
969.69        60.24334
970.08        59.88395
970.47        59.24937
970.86         58.6122
971.24        58.47833
971.63         58.9343
972.02          59.825
972.40        60.80648
972.79        61.27019
973.17        61.15074
973.56        60.62862
973.95        60.00472
974.33        59.81684
974.72        60.21206
975.11          60.963
975.49        61.92473
975.88        62.79248
976.26        63.50976
976.65        64.11555
977.04        64.49921
977.42        64.44455
977.81        63.91079
978.19        62.87606
978.58         61.9236
978.96        62.04441
979.35        63.36244
979.74        65.42422
980.12        67.43147
980.51        68.21966
980.89        67.74918
981.28        66.22974
981.66        64.09944
982.05         62.5665
982.43        62.16318
982.82        62.67072
983.20        63.62513
983.59         64.2463
983.97        64.34864
984.35        64.10947
984.74        63.78235
985.12        63.84933
985.51        64.36842
985.89        65.20167
986.28        65.90981
986.66        65.97588
987.04        65.37441
987.43        64.16769
987.81        62.57254
988.20         62.7828
988.58        65.22004
988.96        66.34324
989.35        65.00626
989.73        72.13725
990.12        68.24129
990.50        68.28042
990.88        67.36894
991.27        66.71117
991.65        66.42294
992.03        66.53249
992.42        67.01725
992.80        67.17747
993.18        66.87543
993.56          66.367
993.95        65.79861
994.33        65.33732
994.71        65.08665
995.10        64.96433
995.48        65.02554
995.86        65.37236
996.24        65.96831
996.63        66.66879
997.01        67.41702
997.39        67.91603
997.77        68.06991
998.15        67.94815
998.54        67.61039
998.92        67.04931
999.30        66.35445
999.68        65.56259
1000.06        64.82875
1000.45        64.43069
1000.83        64.57113
1001.21        65.15936
1001.59        66.09784
1001.97        67.20349
1002.35        68.31166
1002.73        69.35408
1003.12        70.19083
1003.50          70.738
1003.88        70.99263
1004.26        71.01197
1004.64        70.82667
1005.02        70.53493
1005.40        70.18991
1005.78        69.73831
1006.16        69.35921
1006.54        69.30392
1006.92        69.61744
1007.30        70.32442
1007.69        70.96026
1008.07          70.919
1008.45        70.07832
1008.83        68.53806
1009.21        67.06171
1009.59        67.22034
1009.97        69.22392
1010.35        72.19528
1010.73        74.95822
1011.11        76.53843
1011.49        76.96891
1011.86        76.25166
1012.24         74.4531
1012.62        75.46257
1013.00          76.369
1013.38         76.6582
1013.76        74.67644
1014.14        79.16212
1014.52         85.4852
1014.90        77.16145
1015.28        78.17929
1015.66        79.75495
1016.04        76.44096
1016.41        77.55952
1016.79        77.47374
1017.17        77.38295
1017.55        76.59502
1017.93        75.44999
1018.31        74.59133
1018.69        74.50662
1019.06        75.39091
1019.44        77.00732
1019.82        78.49889
1020.20        78.68175
1020.58        77.31921
1020.95        74.33893
1021.33        70.78945
1021.71        69.80109
1022.09        72.56178
1022.46        77.27065
1022.84        81.52455
1023.22        83.66396
1023.60        83.83424
1023.97        82.71359
1024.35        80.80714
1024.73        79.15303
