SpectraSmart Spectrum 2.9.0.0
--------- Device Information -----------
Spectrum Name :  反射率_0
Saving Time :  2024/04/20 23:59:02
Spectro-Module Model Name : SE2030-DUVN
Spectro-Module Serial Number : OS361AC55029948
Wavelength Start : 200
Wavelength End : 1025
Wavelength Unit : Wavelength(nm)
Spectrum Unit : Reflectance(%)
-----------Spectrum Setting ------------
Integration Time : 20ms
Average : 10
Boxcar : 0
Background removal :  enabled
linearity correction :  enabled
SC :  disabled
Intensity correction :  disabled
DWT denoise :  enabled
savitzky-golay :  disabled
FFT :  disabled
Running average :  disabled
Kalman :  disabled
High pass :  disabled
---------------BEGIN--------------------
Wavelength(nm)             Reflectance(%)
200.29               0
200.75       -70.02296
201.21       -16.41642
201.67        13.60434
202.13        25.61179
202.58        27.32907
203.04        23.20089
203.50        15.84347
203.96         11.5411
204.42         12.9629
204.88        17.03722
205.34        20.40525
205.80        18.14106
206.26         8.46891
206.72       -6.355384
207.18       -26.02485
207.64        -48.1296
208.10        -66.0296
208.55       -78.99887
209.01        -71.5556
209.47       -34.55601
209.93        3.213305
210.39        29.98421
210.85         45.9734
211.31        52.95731
211.77        53.85755
212.23        49.84805
212.69        37.29727
213.14        8.359966
213.60       -54.79235
214.06       -252.8785
214.52       -725.3231
214.98       -320.7109
215.44       -69.67889
215.90        14.33258
216.36        42.66587
216.81        47.57743
217.27        35.51237
217.73       -34.02007
218.19        821.3611
218.65        373.4507
219.11       -756.4858
219.57        -12.4728
220.02        34.61121
220.48        42.07069
220.94        35.48128
221.40        12.81046
221.86       -42.05102
222.32       -82.73582
222.77       -39.00785
223.23        2.187462
223.69        23.76282
224.15        31.66746
224.61        32.56813
225.06        30.49611
225.52        26.60737
225.98        22.02701
226.44        17.54867
226.90        11.77525
227.36        7.739873
227.81        10.96155
228.27        18.70309
228.73        27.07825
229.19        32.37042
229.65         32.3189
230.10        27.58559
230.56        19.52559
231.02        9.678304
231.48        3.899431
231.93        5.966121
232.39        13.28484
232.85        20.96734
233.31        25.02566
233.77        25.75961
234.22        24.96783
234.68        23.15849
235.14        21.25401
235.60        20.06465
236.05        18.43874
236.51          16.724
236.97        21.84578
237.43        33.99033
237.88        42.57011
238.34        43.63427
238.80        64.75227
239.26        55.29903
239.71        51.77361
240.17        41.18894
240.63        30.94247
241.08        26.77645
241.54        32.41319
242.00        46.43188
242.46        55.58629
242.91        56.32962
243.37        49.55419
243.83        37.07261
244.28        28.52941
244.74        30.25915
245.20        36.80915
245.66         42.7698
246.11        43.04092
246.57        36.75437
247.03        26.29161
247.48        11.69959
247.94       -8.189582
248.40       -40.02248
248.85       -117.1546
249.31       -356.9401
249.77       -562.6915
250.22       -200.5736
250.68       -45.27966
251.14        6.286878
251.59        23.02656
252.05        26.71156
252.51        23.97458
252.96        15.16361
253.42        5.434233
253.88        1.033625
254.33        1.365417
254.79        8.617393
255.25        21.40078
255.70        34.42062
256.16        45.32408
256.62        52.57825
257.07        55.52654
257.53        55.93829
257.99         54.9169
258.44        53.47635
258.90        53.11567
259.35        53.23141
259.81        53.66988
260.27        53.64131
260.72        52.45105
261.18        50.68882
261.63        48.63404
262.09        46.88409
262.55        45.60828
263.00        44.67668
263.46        44.06598
263.91        43.51782
264.37        43.08719
264.83        42.65826
265.28         42.2087
265.74        41.78076
266.19        41.24074
266.65        40.62896
267.11         39.9162
267.56        39.10392
268.02        38.29271
268.47        37.46268
268.93        36.63308
269.38        35.77036
269.84        34.88074
270.30        33.95856
270.75        33.01566
271.21        32.10405
271.66        31.23558
272.12        30.44506
272.57        29.71628
273.03         29.0467
273.48        28.38985
273.94        27.76077
274.39        27.15038
274.85        26.60329
275.31        26.12465
275.76        25.70336
276.22        25.34602
276.67        25.03236
277.13        24.80402
277.58          24.615
278.04        24.47121
278.49        24.27779
278.95        23.97252
279.40        23.51835
279.86        22.98128
280.31         22.4098
280.77        21.95115
281.22        21.60593
281.68        21.38675
282.13        21.20532
282.59        20.99873
283.04        20.73319
283.50        20.45438
283.95        20.22858
284.41        20.17753
284.86         20.2999
285.32        20.54856
285.77        20.80422
286.22        20.90933
286.68        20.85698
287.13        20.67352
287.59        20.49542
288.04        20.42356
288.50        20.46037
288.95        20.69101
289.41        21.09073
289.86        21.12381
290.32        20.69186
290.77        21.80851
291.22        21.12579
291.68        21.36371
292.13        21.55348
292.59        21.79052
293.04        22.11378
293.50        22.66244
293.95        23.47043
294.40        24.46442
294.86        25.55764
295.31        26.59938
295.77         27.5459
296.22        28.43227
296.68        29.30508
297.13        30.23194
297.58        31.25233
298.04        32.34404
298.49        33.52286
298.95        34.83432
299.40        36.25466
299.85        37.77478
300.31        39.31076
300.76        40.71225
301.21        41.96122
301.67         43.1202
302.12        44.26718
302.58        45.61547
303.03        47.17508
303.48        48.91639
303.94        50.74368
304.39        52.46424
304.84        54.03625
305.30        55.52981
305.75        56.97496
306.20        58.50959
306.66        60.15463
307.11        61.81561
307.57        63.45536
308.02        64.96623
308.47        66.34077
308.93        67.65592
309.38        68.88961
309.83        70.02695
310.29        71.18215
310.74        72.24417
311.19        73.28448
311.65        74.35746
312.10        75.45569
312.55         76.5741
313.00        77.64281
313.46        78.55117
313.91        79.26426
314.36         79.8196
314.82        80.31577
315.27        80.90751
315.72        81.63122
316.18         82.4405
316.63        83.23093
317.08        83.83562
317.53          84.215
317.99        84.42703
318.44        84.56353
318.89        84.75893
319.35        85.05162
319.80         85.3968
320.25        85.75983
320.70        86.08923
321.16        86.35482
321.61        86.59995
322.06        86.79813
322.51        86.90738
322.97         86.9223
323.42        86.88404
323.87        86.85884
324.32        86.97942
324.78        87.25562
325.23        87.67332
325.68         88.1356
326.13        88.50474
326.59        88.71395
327.04        88.84695
327.49        88.90792
327.94        88.93934
328.39        88.97263
328.85        88.97436
329.30        89.03808
329.75        89.21256
330.20        89.50748
330.66        89.87167
331.11        90.30764
331.56        90.69456
332.01        90.99725
332.46        91.24156
332.92        91.38341
333.37        91.47803
333.82        91.51202
334.27        91.49867
334.72        91.52933
335.17         91.7556
335.63        92.18444
336.08         92.8234
336.53        93.55343
336.98        94.20718
337.43        94.71797
337.88        95.11327
338.34        95.39662
338.79        95.63361
339.24        95.83418
339.69        95.99122
340.14        96.12324
340.59        96.26849
341.05        96.44586
341.50        96.66186
341.95        96.93523
342.40        97.28776
342.85        97.71224
343.30        98.19702
343.75        98.66879
344.20        99.01644
344.66         99.2254
345.11        99.30684
345.56        99.34669
346.01        99.48377
346.46        99.74539
346.91        100.0849
347.36        100.4201
347.81        100.6266
348.26        100.6811
348.72        100.6394
349.17        100.5492
349.62        100.5054
350.07        100.5397
350.52        100.6155
350.97        100.7073
351.42         100.777
351.87        100.8009
352.32        100.7862
352.77        100.7169
353.22        100.5654
353.67        100.3321
354.13        100.0428
354.58        99.69492
355.03         99.3408
355.48        98.99975
355.93        98.66122
356.38        98.33761
356.83        98.04372
357.28        97.76286
357.73        97.47536
358.18        97.13126
358.63        96.65322
359.08        96.03636
359.53        95.32658
359.98        94.56115
360.43        93.79323
360.88        93.04825
361.33        92.30989
361.78        91.63154
362.23         91.0954
362.68        90.70291
363.13        90.43094
363.58        90.15195
364.03        89.65907
364.48        88.91371
364.93          87.977
365.38        86.99766
365.83        86.22511
366.28        85.71803
366.73        85.38882
367.18        85.11848
367.63        84.71765
368.08        84.12848
368.53        83.41728
368.98        82.62235
369.43        81.79023
369.88        80.94353
370.33        80.06238
370.78        79.18205
371.23        78.38418
371.68        77.70552
372.13        77.15002
372.58        76.68571
373.03          76.236
373.48        75.76885
373.93        75.29152
374.38        74.81899
374.83        74.38763
375.28        74.00426
375.72        73.63535
376.17        73.26594
376.62        72.82524
377.07        72.29263
377.52        71.67713
377.97        71.02772
378.42        70.44221
378.87        69.96141
379.32        69.57469
379.77        69.22239
380.22        68.79974
380.67        68.27864
381.11         67.6881
381.56        67.09433
382.01        66.62769
382.46        66.32423
382.91        66.14115
383.36        65.98428
383.81        65.70973
384.26         65.2822
384.71        64.74625
385.15         64.1704
385.60        63.71672
386.05        63.40059
386.50        63.18247
386.95        62.99206
387.40        62.72805
387.85         62.3741
388.29        61.93086
388.74        61.54464
389.19         61.2532
389.64        61.05895
390.09        60.93061
390.54        60.79727
390.98        60.53873
391.43        60.17265
391.88        59.73769
392.33        59.32766
392.78        59.04988
393.23        58.91644
393.67        58.91661
394.12        59.01765
394.57         58.8937
395.02        58.57983
395.47         58.4388
395.91        58.47206
396.36        58.36414
396.81        58.11987
397.26        57.93791
397.71          57.808
398.15         57.5827
398.60        57.32269
399.05        57.06303
399.50        56.84857
399.95        56.64143
400.39        56.48124
400.84        56.55447
401.29        56.76371
401.74        56.58071
402.18        56.06181
402.63          55.813
403.08        55.83638
403.53          55.664
403.97        55.30132
404.42        55.05112
404.87        54.91907
405.32        54.82878
405.76        54.77422
406.21        54.70262
406.66        54.63034
407.11        54.74717
407.55        54.97482
408.00        54.93225
408.45        54.63774
408.90        54.31129
409.34         54.0744
409.79        54.12762
410.24         54.3805
410.68         54.4476
411.13        54.30285
411.58         54.1905
412.03        54.15503
412.47        54.16153
412.92        54.20446
413.37        54.29905
413.81        54.41969
414.26        54.57406
414.71        54.73928
415.15        54.92289
415.60        55.07384
416.05        55.15121
416.49        55.14753
416.94        55.06889
417.39        54.95664
417.83         54.8721
418.28        54.83393
418.73        54.82006
419.17        54.82376
419.62        54.84216
420.07         54.8734
420.51        54.92633
420.96        54.98866
421.41        55.02516
421.85        55.01789
422.30        54.92902
422.74        54.82034
423.19         55.0613
423.64         55.5716
424.08        55.88921
424.53        55.91916
424.98        56.04623
425.42        56.28308
425.87        56.29785
426.31        56.17061
426.76        56.30539
427.21        56.66735
427.65        56.86086
428.10        56.84692
428.54        56.90239
428.99        57.05424
429.44        57.19724
429.88        57.28007
430.33        57.22337
430.77        57.06148
431.22        57.16887
431.66        57.49855
432.11        57.75699
432.56        57.97286
433.00        58.08588
433.45        57.87671
433.89        58.02665
434.34        58.80182
434.78        57.14792
435.23        57.84125
435.67        58.94779
436.12        58.71713
436.57        58.92491
437.01        58.80073
437.46         58.6227
437.90        58.96493
438.35        59.31892
438.79        59.25434
439.24        59.32545
439.68        59.38611
440.13        59.30275
440.57        59.15217
441.02        59.46264
441.46        60.08705
441.91        60.14754
442.35        59.75324
442.80        60.04858
443.24        60.88977
443.69        61.24325
444.13        61.04433
444.58        60.93669
445.02         60.9858
445.47        61.16831
445.91        61.41641
446.36        61.51914
446.80        61.45291
447.24        61.36886
447.69         61.3176
448.13        61.39367
448.58        61.41956
449.02        61.41732
449.47         61.3544
449.91         61.3535
450.36        61.43498
450.80        61.46747
451.25        61.48208
451.69         61.5941
452.13         61.7729
452.58        61.80997
453.02        61.70363
453.47        61.64247
453.91        61.62692
454.36        61.57479
454.80        61.47788
455.24        61.35165
455.69         61.2194
456.13        61.06544
456.58        61.00099
457.02        60.85483
457.46         61.2857
457.91        61.20646
458.35        60.98243
458.79        60.90667
459.24        61.02386
459.68        61.12329
460.13        61.19151
460.57         61.0563
461.01        60.69471
461.46        60.82754
461.90        60.37578
462.34        60.23844
462.79        60.16814
463.23        60.46054
463.68        60.96246
464.12        60.91493
464.56        60.42999
465.01        60.55431
465.45         61.0508
465.89         61.0176
466.34        60.57858
466.78        60.19124
467.22        59.88491
467.67        60.61324
468.11         60.1703
468.55        60.26921
468.99        60.24151
469.44        60.23703
469.88        60.23587
470.32        60.14327
470.77        60.00039
471.21        59.88869
471.65        59.82737
472.10        59.79132
472.54        59.75686
472.98        59.72108
473.42        59.68406
473.87        59.63196
474.31        59.55104
474.75        59.59082
475.20        59.69148
475.64         59.6087
476.08        59.40866
476.52        59.29404
476.97        59.22679
477.41        59.38698
477.85        59.75841
478.29        59.16483
478.74        58.92534
479.18        59.35126
479.62        59.29013
480.06        59.49387
480.50        59.52882
480.95        59.57695
481.39        59.56249
481.83        59.81192
482.27         60.1154
482.72        59.68033
483.16        60.05098
483.60        60.10646
484.04        60.05676
484.48        59.72133
484.93        59.73721
485.37        59.76445
485.81        59.91666
486.25        59.52583
486.69        60.31007
487.14        59.97057
487.58        59.70138
488.02        59.38323
488.46         59.8116
488.90        59.73904
489.34        59.73172
489.79        59.23624
490.23        59.53165
490.67        59.48402
491.11         59.4185
491.55        59.29648
491.99        59.17113
492.43        59.16159
492.88        59.26694
493.32        59.43964
493.76        59.57211
494.20        59.65281
494.64        59.69012
495.08        59.29621
495.52        59.12375
495.96        59.17754
496.41        59.53533
496.85        59.50333
497.29        59.08847
497.73        59.20409
498.17        59.43755
498.61        59.31911
499.05        58.81745
499.49        58.49006
499.93        58.46113
500.37        58.75827
500.82        59.25794
501.26        59.35256
501.70        59.52029
502.14         59.1764
502.58        59.04803
503.02         58.8754
503.46        58.79336
503.90        58.76981
504.34        58.77114
504.78        58.81496
505.22        58.91058
505.66        58.97939
506.10        58.97918
506.54        59.12383
506.98        59.45904
507.42        58.84771
507.86        59.23438
508.30        59.16364
508.74        59.09081
509.18        59.05295
509.62        59.02053
510.06        59.00589
510.50        58.97252
510.94        58.87471
511.38        58.73852
511.82        58.66661
512.26        58.66611
512.70        58.68036
513.14        58.68615
513.58        58.66541
514.02        58.61053
514.46        58.53408
514.90        58.43297
515.34        58.34458
515.78        58.28572
516.22        58.20898
516.66        57.99313
517.10        58.30386
517.54        58.20032
517.98        58.40567
518.42        58.59083
518.86        58.69701
519.30          58.702
519.74        58.59472
520.18        58.45808
520.62        58.49394
521.06         58.6807
521.50        58.76888
521.93        58.73104
522.37        58.71104
522.81        58.70476
523.25        58.62189
523.69         58.4777
524.13        58.34645
524.57         58.2459
525.01        58.15995
525.45        58.10969
525.89        58.12889
526.32        58.21385
526.76        58.35325
527.20        58.50936
527.64        58.62215
528.08        58.67114
528.52        58.67299
528.96        58.63387
529.40        58.56009
529.83        58.46173
530.27        58.36788
530.71        58.28972
531.15        58.24342
531.59        58.23464
532.03        58.26435
532.46        58.31114
532.90        58.35055
533.34        58.36661
533.78        58.36427
534.22        58.34318
534.66        58.30378
535.09        58.24354
535.53        58.18685
535.97        58.12879
536.41        58.08006
536.85        58.04545
537.28        58.01748
537.72        58.01344
538.16        58.06656
538.60        58.16851
539.04        58.29259
539.47        58.37947
539.91        58.40176
540.35        58.33595
540.79        58.19675
541.22        58.03187
541.66        57.93617
542.10        57.92899
542.54        57.98426
542.97        58.05798
543.41        58.10934
543.85         58.1169
544.29        58.10675
544.72        58.08333
545.16        58.08736
545.60         58.1133
546.04        58.12709
546.47        58.14397
546.91        58.21616
547.35        58.31752
547.79        58.41132
548.22        58.44185
548.66        58.33005
549.10        58.13614
549.53        58.07033
549.97        58.14347
550.41        58.16281
550.84        58.13296
551.28        58.15118
551.72        58.20283
552.15         58.2781
552.59        58.39904
553.03        58.16949
553.46        58.42731
553.90        58.19957
554.34        58.26368
554.77        58.16013
555.21        58.10306
555.65        58.12178
556.08        58.20892
556.52        58.39966
556.96        58.60188
557.39         58.6369
557.83        58.52293
558.27        58.41113
558.70        58.35919
559.14        58.32936
559.57        58.32417
560.01        58.49747
560.45        58.72335
560.88        58.62559
561.32        58.31028
561.75        58.10073
562.19        58.09633
562.63        58.24237
563.06        58.45056
563.50        58.49305
563.93        58.34801
564.37        58.23056
564.80        58.16497
565.24        58.18468
565.68        58.27488
566.11         58.3181
566.55        58.32387
566.98        58.42112
567.42        58.59093
567.85        58.55431
568.29        58.39478
568.72        58.42632
569.16        58.67097
569.60        58.67667
570.03        58.71915
570.47        58.78312
570.90        58.69307
571.34         58.8605
571.77        58.91966
572.21        58.68669
572.64        58.67386
573.08        58.77675
573.51         58.6814
573.95        59.06353
574.38        58.82424
574.82        59.33467
575.25        59.33262
575.69        59.08699
576.12        58.48428
576.56        58.60216
576.99        58.86871
577.42        59.22665
577.86        58.90381
578.29        59.25048
578.73        59.59224
579.16        59.21985
579.60        58.64584
580.03        58.99455
580.47        59.01813
580.90        59.19246
581.33        59.01756
581.77        59.34389
582.20        59.35981
582.64        59.25424
583.07        59.29303
583.51        59.03923
583.94        58.71993
584.37        58.69436
584.81        58.57079
585.24        58.66612
585.68        59.16555
586.11        59.04152
586.54        58.90316
586.98        59.01811
587.41        58.76242
587.85        58.94667
588.28        59.03097
588.71        59.15413
589.15        59.23211
589.58        58.83097
590.01        58.70015
590.45        58.38078
590.88        58.84753
591.31        58.53469
591.75        58.38229
592.18         58.3289
592.61        58.54525
593.05        58.94178
593.48        59.08847
593.91        59.09176
594.35        58.91036
594.78        58.97786
595.21         58.7555
595.65        58.78223
596.08        58.82096
596.51        59.02676
596.94        58.86784
597.38        58.79568
597.81         58.6534
598.24        58.97147
598.68        58.75065
599.11        58.57396
599.54        59.18796
599.97        59.01281
600.41        58.99803
600.84        59.01461
601.27        59.35497
601.70        58.83738
602.14        58.82669
602.57        58.72114
603.00         58.8441
603.43        59.24078
603.87         59.2641
604.30        59.14376
604.73        59.16195
605.16        59.10759
605.60        59.10456
606.03        59.17913
606.46        59.40098
606.89        58.77893
607.32        58.71667
607.76        59.36998
608.19         59.0757
608.62        59.02967
609.05         59.6932
609.48        59.27267
609.92        59.42895
610.35        58.95575
610.78        59.33821
611.21        58.83321
611.64        59.01802
612.07        58.97276
612.50        59.05725
612.94        59.05409
613.37        58.94361
613.80        59.16131
614.23        59.03025
614.66        58.94797
615.09        58.78091
615.52        58.78478
615.96        58.92305
616.39        58.98683
616.82        58.97785
617.25        58.80904
617.68        58.89898
618.11        58.82825
618.54        58.87943
618.97        58.82601
619.40        58.70614
619.84         58.6978
620.27        58.56988
620.70        58.62738
621.13        58.76078
621.56        58.90562
621.99        59.04186
622.42        59.09757
622.85        59.02801
623.28        59.11113
623.71        58.98295
624.14        58.92419
624.57        58.99426
625.00        59.23667
625.43        58.84724
625.86        58.88739
626.29         59.1123
626.72        58.86994
627.15        58.88491
627.58        58.76329
628.01        58.82531
628.44        58.58712
628.87        58.39767
629.30        58.96415
629.73        58.77348
630.16        58.67744
630.59        58.71877
631.02        58.87936
631.45         58.7511
631.88        58.78767
632.31        58.85929
632.74        58.65982
633.17        58.77096
633.60        58.66525
634.03        58.52711
634.46        58.41071
634.89        58.26928
635.32        58.24679
635.75        58.31906
636.18        58.46795
636.61        58.63877
637.04         58.7459
637.47        58.76522
637.89        58.72627
638.32        58.64291
638.75        58.56588
639.18        58.51402
639.61        58.47262
640.04        58.44684
640.47        58.44694
640.90        58.46935
641.33         58.5121
641.76        58.55567
642.18        58.56994
642.61        58.53484
643.04        58.46981
643.47        58.38675
643.90        58.31253
644.33        58.25803
644.76        58.20067
645.18        58.15982
645.61        58.18847
646.04        58.27577
646.47        58.35488
646.90        58.39639
647.33        58.41639
647.75        58.40018
648.18        58.31324
648.61        58.22355
649.04        58.24775
649.47        58.33932
649.89        58.65612
650.32        58.53248
650.75        58.54527
651.18        58.52042
651.61        58.49657
652.03        58.46504
652.46        58.39291
652.89        58.33598
653.32        58.29755
653.74        58.27431
654.17        58.64689
654.60         58.3182
655.03        58.51384
655.46        58.66507
655.88         58.7157
656.31        59.45097
656.74        62.32592
657.16        61.10526
657.59        59.10469
658.02        58.22074
658.45        58.69509
658.87        58.57098
659.30         58.3169
659.73        58.85128
660.15         58.3557
660.58        58.57434
661.01        58.84508
661.44        59.36803
661.86        59.25713
662.29        58.60255
662.72        58.27824
663.14        58.37463
663.57        58.51077
664.00        58.61829
664.42        58.70726
664.85        58.76036
665.27        58.71029
665.70        58.75574
666.13        58.73067
666.55         58.7019
666.98        58.66433
667.41        58.62389
667.83         58.5976
668.26        58.59814
668.69        58.57071
669.11        58.50721
669.54          58.598
669.96        58.89022
670.39        58.55385
670.82        58.97101
671.24        58.96469
671.67        58.93842
672.09        58.85034
672.52          58.773
672.94        58.79408
673.37         58.8938
673.80        58.93771
674.22        58.91574
674.65        58.88552
675.07        58.86113
675.50        58.77713
675.92        58.66415
676.35        58.58992
676.77        58.56552
677.20        58.58885
677.62        58.66104
678.05        58.69636
678.47        58.67092
678.90        58.89342
679.32        58.83439
679.75        58.91114
680.17         58.9628
680.60        59.00056
681.02        59.02351
681.45        59.02858
681.87        59.02425
682.30        59.02241
682.72        59.04113
683.15        59.01725
683.57        58.95631
684.00        59.10209
684.42        59.06705
684.85        59.11604
685.27        59.12181
685.70        59.12694
686.12        59.11649
686.54        59.09079
686.97        59.04823
687.39        59.02014
687.82        59.01121
688.24        59.00064
688.66        58.97033
689.09        59.15517
689.51        59.11474
689.94        59.24688
690.36        59.39725
690.78         59.5164
691.21        59.57925
691.63        59.53974
692.06        59.44096
692.48         59.4039
692.90        59.43047
693.33        59.41236
693.75        59.36526
694.17        59.31999
694.60        59.27228
695.02        59.40779
695.44        59.45306
695.87        59.41883
696.29        59.29011
696.71        59.34141
697.14        59.56053
697.56         59.7432
697.98        59.81499
698.41        59.88786
698.83        59.80887
699.25        59.65475
699.68        59.45005
700.10        59.34399
700.52        59.36495
700.94        59.47934
701.37        59.60784
701.79         59.6534
702.21        59.57291
702.64        59.41463
703.06        59.24698
703.48        59.18087
703.90        59.24554
704.33         59.3977
704.75        59.58529
705.17        59.70697
705.59        59.73374
706.01        59.69236
706.44        59.62657
706.86        59.62544
707.28        59.69696
707.70        59.81133
708.12         59.9303
708.55        59.98863
708.97        59.96545
709.39        59.89437
709.81        59.80237
710.23        59.73867
710.66        59.72358
711.08        59.75093
711.50        59.79512
711.92        59.83241
712.34        59.85531
712.76        59.87281
713.19        59.88037
713.61        59.91358
714.03        59.95357
714.45        60.00335
714.87        60.06526
715.29          60.104
715.71        60.10947
716.13        60.24584
716.56        60.20658
716.98        60.24023
717.40        60.24632
717.82        60.23366
718.24        60.21568
718.66        60.22017
719.08        60.25512
719.50        60.30915
719.92         60.3665
720.34        60.39957
720.76        60.40158
721.19        60.37513
721.61        60.34618
722.03        60.32839
722.45        60.33025
722.87        60.34835
723.29        60.38306
723.71        60.43482
724.13        60.50095
724.55        60.57762
724.97        60.66174
725.39        60.74791
725.81        60.83053
726.23        60.90691
726.65        60.96379
727.07        60.98829
727.49        60.98152
727.91         60.9351
728.33        60.87317
728.75        60.87368
729.17        60.93307
729.59        60.95455
730.01        60.92778
730.43        60.96576
730.85        61.07813
731.27        61.09226
731.69        60.97675
732.10        61.25289
732.52        61.14892
732.94        61.03474
733.36        60.76521
733.78          60.653
734.20        60.72422
734.62        60.87866
735.04        61.05547
735.46        61.07996
735.88        60.98558
736.30        61.05428
736.72        61.24817
737.13        61.30717
737.55        61.17374
737.97         60.9405
738.39        60.71022
738.81        60.70921
739.23        60.92623
739.65        61.09375
740.06        61.11581
740.48        61.16685
740.90        61.20213
741.32        61.11132
741.74        60.95683
742.16        60.92212
742.57        61.04879
742.99        61.26186
743.41        61.47839
743.83        61.55203
744.25        61.45131
744.67        61.22052
745.08        60.97963
745.50        60.88496
745.92        60.99301
746.34        61.25348
746.75        61.54607
747.17        61.67433
747.59        61.59552
748.01         61.3405
748.42        61.04346
748.84         60.9592
749.26        61.10648
749.68        61.31914
750.09        61.49746
750.51        61.51349
750.93         61.3882
751.35        61.34449
751.76        61.40326
752.18        61.40493
752.60        61.35889
753.01        61.39294
753.43        61.46486
753.85        61.49077
754.27        61.45982
754.68        61.39439
755.10        61.33775
755.52        61.33471
755.93        61.39698
756.35        61.50779
756.77        61.60892
757.18        61.67079
757.60        61.69178
758.02        61.56277
758.43         61.3228
758.85        61.55742
759.26        61.59041
759.68        61.70501
760.10           61.45
760.51        61.27998
760.93        61.77206
761.34        61.49939
761.76        61.87263
762.18        61.81956
762.59        61.70263
763.01        61.85714
763.42        61.47061
763.84        61.61153
764.26        61.63441
764.67        61.78947
765.09        61.92601
765.50        62.09685
765.92        62.25462
766.33        62.12778
766.75        61.78578
767.16        61.68153
767.58        61.79732
768.00        62.06654
768.41        62.42364
768.83        62.32107
769.24        61.84253
769.66        62.34612
770.07        62.72369
770.49        62.73882
770.90        62.16743
771.32        61.89492
771.73        62.00458
772.15        62.03643
772.56        62.02013
772.97        62.21385
773.39        62.51804
773.80        62.69984
774.22        62.68307
774.63        62.55111
775.05        62.36846
775.46        62.29099
775.88        62.33952
776.29        62.49133
776.70        62.65199
777.12        62.68609
777.53        62.58123
777.95        62.37509
778.36        62.17178
778.77         62.1283
779.19        62.27701
779.60        62.56881
780.02        62.89482
780.43        63.10791
780.84        63.16724
781.26        63.07997
781.67        62.94397
782.09        62.93105
782.50        63.03096
782.91        63.07631
783.33        63.05767
783.74        63.05901
784.15        63.02173
784.57        63.12315
784.98        63.36429
785.39        62.90622
785.81        62.77425
786.22        62.90505
786.63        63.45322
787.04        63.65756
787.46        63.49181
787.87        63.33468
788.28        63.25675
788.70        63.21151
789.11        63.20186
789.52        63.24183
789.93         63.3179
790.35        63.39948
790.76        63.48815
791.17         63.5951
791.58        63.68233
792.00        63.69384
792.41        63.66037
792.82        63.51813
793.23        63.33492
793.65        63.47638
794.06        63.95227
794.47        64.16869
794.88        64.00011
795.29        64.79266
795.71        64.46346
796.12          64.523
796.53        64.38932
796.94        64.39144
797.35        64.48602
797.76        64.36025
798.18        64.07454
798.59        63.92773
799.00        63.94452
799.41        63.96615
799.82        63.95231
800.23        63.91219
800.64        63.83706
801.06        63.71053
801.47        63.60881
801.88        63.58652
802.29        63.65736
802.70        63.79187
803.11        63.96415
803.52        64.12907
803.93        64.27307
804.34        64.41246
804.75        64.52029
805.17         64.5986
805.58        64.68242
805.99        64.59114
806.40        64.41216
806.81        64.68533
807.22        65.24182
807.63        65.17378
808.04        64.56802
808.45        64.36098
808.86        64.61884
809.27        64.79321
809.68        64.82769
810.09        64.88554
810.50        64.94816
810.91         64.9749
811.32        64.95103
811.73        64.85292
812.14        64.68555
812.55        64.46638
812.96        64.26071
813.37        64.17384
813.78        64.23091
814.19        64.40311
814.60         64.6154
815.01        64.74689
815.42        64.76611
815.83        64.70528
816.24        64.60667
816.65         64.5519
817.05        64.57857
817.46         64.6354
817.87        64.72737
818.28        64.82484
818.69        64.92014
819.10        65.02545
819.51        65.15069
819.92        65.30738
820.33         65.4862
820.74        65.65633
821.14        65.79174
821.55        65.89901
821.96        65.95532
822.37        65.93047
822.78        65.83123
823.19        65.71198
823.60        65.59007
824.00         65.4539
824.41        65.30917
824.82        65.24123
825.23        65.25916
825.64        65.34649
826.04         65.4596
826.45        65.48522
826.86        65.41252
827.27        65.27647
827.68         65.1216
828.08        65.05158
828.49        65.03188
828.90        65.08191
829.31        65.21261
829.72        65.33982
830.12        65.44615
830.53        65.91755
830.94        65.95876
831.35        66.01003
831.75        65.84671
832.16        65.49725
832.57         65.1171
832.97        64.96899
833.38        65.11103
833.79        65.45668
834.20        65.86951
834.60        66.14143
835.01        66.21342
835.42        66.14896
835.82        66.01704
836.23        65.88961
836.64        65.82079
837.04        65.79448
837.45        65.77975
837.86        65.78967
838.26        65.83179
838.67        65.89924
839.08        65.99653
839.48        66.10926
839.89        66.22061
840.29        66.32524
840.70        66.42078
841.11        66.50459
841.51        66.58961
841.92        66.64541
842.33         66.6723
842.73        66.67094
843.14        66.60359
843.54        66.50549
843.95        66.41113
844.35        66.39558
844.76        66.46892
845.17        66.62389
845.57        66.81881
845.98        66.94786
846.38        67.01166
846.79         67.0029
847.19        67.00874
847.60        67.09663
848.00        67.31059
848.41        67.58546
848.81        67.87133
849.22        68.01364
849.62        68.01009
850.03        67.86914
850.43        67.68938
850.84        67.51978
851.24        67.43469
851.65        67.35008
852.05        67.31475
852.46        67.31323
852.86        67.33745
853.27        67.43964
853.67         67.4845
854.07        67.41338
854.48        67.18974
854.88         66.8488
855.29        66.47874
855.69        66.41205
856.10          66.634
856.50        67.14796
856.90        67.68524
857.31        67.83751
857.71        67.55764
858.12        66.90554
858.52         66.1385
858.92        65.63637
859.33         65.5089
859.73        65.69598
860.13        66.01861
860.54        66.17641
860.94        66.13539
861.34        65.94415
861.75        65.69193
862.15        65.59575
862.55        65.67131
862.96        65.83377
863.36        65.99183
863.76        65.95766
864.17        65.69329
864.57         65.3012
864.97        64.88899
865.38         64.6145
865.78        64.57825
866.18        64.72878
866.58        65.05157
866.99        65.47904
867.39        65.97643
867.79         66.5067
868.19        66.98672
868.60        67.21851
869.00        67.24545
869.40        67.27946
869.80        67.26104
870.21        66.90786
870.61        66.29462
871.01        65.60661
871.41        64.98556
871.81        64.52277
872.22        64.27105
872.62        64.21288
873.02        64.34203
873.42        64.79939
873.82        65.34233
874.22        65.44396
874.63        65.27818
875.03        65.22732
875.43         65.3349
875.83        66.33858
876.23        65.65501
876.63        64.85315
877.03        63.70803
877.44        61.61654
877.84         168.287
878.24        62.90764
878.64        64.03413
879.04        65.94271
879.44         66.7989
879.84        63.75735
880.24        68.26683
880.64        68.02176
881.04        65.20522
881.44        63.11843
881.84        62.45332
882.24        63.25237
882.65        64.73425
883.05        65.26664
883.45         64.5153
883.85        63.40432
884.25        62.44086
884.65        62.03664
885.05        62.33845
885.45        63.09446
885.85        63.94564
886.25        64.41685
886.65        64.38444
887.05        64.02852
887.45        63.46929
887.85        62.89551
888.25        62.42956
888.65        62.03141
889.04        61.82259
889.44        62.01548
889.84        62.59549
890.24        63.44577
890.64        64.36118
891.04        65.04236
891.44        65.40273
891.84        65.52575
892.24        65.39159
892.64        64.99107
893.04        64.39714
893.44        63.65537
893.83        63.02037
894.23        62.83831
894.63        63.18423
895.03        63.97403
895.43        64.96326
895.83        65.71281
896.23        66.07836
896.63        66.15047
897.02        66.07092
897.42        66.13441
897.82        66.37274
898.22        66.67739
898.62        66.91647
899.01         66.9016
899.41        66.57506
899.81        66.05196
900.21        65.44998
900.61         64.9409
901.00        64.58804
901.40        64.42156
901.80         64.4349
902.20        64.47878
902.59        64.49308
902.99         64.7478
903.39        65.33077
903.79        64.75865
904.18        65.57677
904.58        65.70731
904.98        65.75328
905.38        65.41454
905.77        64.69547
906.17         63.7351
906.57        62.80967
906.96        62.46824
907.36        62.83438
907.76        63.76269
908.15        65.00075
908.55        65.96064
908.95        66.48663
909.34        66.64732
909.74        66.60947
910.14        66.62727
910.53        66.76607
910.93        66.91241
911.33        66.91367
911.72        66.54449
912.12        65.80533
912.52        64.84889
912.91        63.87777
913.31        63.26059
913.70        63.07295
914.10        63.21152
914.49        63.59373
914.89        63.98687
915.29        64.31265
915.68        64.59199
916.08        64.81633
916.47        64.93128
916.87        64.96667
917.26        64.92088
917.66        64.82242
918.05        64.75714
918.45         64.7356
918.84        64.74702
919.24         64.8251
919.64         65.0739
920.03        65.48783
920.42        66.01064
920.82        66.45596
921.21        66.54269
921.61        66.24606
922.00        65.71716
922.40        65.22344
922.79        65.06374
923.19        64.96241
923.58        65.68563
923.98        67.43402
924.37        67.61686
924.77        64.85651
925.16         72.4521
925.55        66.44062
925.95        66.92822
926.34        67.10241
926.74        66.76245
927.13        65.79622
927.52        65.14162
927.92        65.21533
928.31         65.4575
928.70         65.8584
929.10        66.31846
929.49        66.80431
929.89        67.36526
930.28        67.79221
930.67        67.62253
931.07        66.81158
931.46        65.39743
931.85        63.91633
932.24        63.72095
932.64        65.03293
933.03        66.85112
933.42        68.14899
933.82        70.64142
934.21        69.04095
934.60         67.5154
934.99        65.88782
935.39        65.45004
935.78        66.30995
936.17        68.68236
936.56        75.14388
936.96        68.62698
937.35         72.0065
937.74        68.38019
938.13        65.46864
938.53        63.18283
938.92         62.4266
939.31        63.66903
939.70        65.49677
940.09        66.44778
940.49        66.18803
940.88        65.20979
941.27        64.04768
941.66        63.67836
942.05        64.40146
942.44        65.78195
942.84        67.17971
943.23        67.82468
943.62        67.53821
944.01        66.57617
944.40        65.46638
944.79         65.0907
945.18        65.67593
945.57        66.92532
945.97        68.25103
946.36        68.85545
946.75        68.49258
947.14        67.42925
947.53        66.13342
947.92        65.40842
948.31        65.49534
948.70        66.12228
949.09        66.91759
949.48        67.31741
949.87        67.17767
950.26        66.71636
950.65         66.1318
951.04        65.72715
951.43          65.607
951.82         65.6321
952.21        65.77351
952.60        66.00731
952.99        66.26996
953.38        66.56839
953.77        66.76522
954.16        66.63486
954.55        66.16278
954.94         65.4345
955.33        64.62656
955.72        64.08929
956.11        63.95921
956.50        64.13181
956.89        64.56676
957.28        65.17274
957.66        65.89245
958.05        66.66273
958.44        67.29724
958.83        67.50962
959.22        67.24854
959.61        66.53777
960.00        65.63406
960.39        65.07438
960.78        65.03843
961.16        65.43766
961.55        65.88278
961.94        65.90033
962.33        65.40903
962.72        64.56529
963.11        63.69001
963.49        63.43441
963.88        63.98521
964.27        65.05626
964.66        66.27292
965.04         67.1712
965.43        67.57254
965.82        67.65692
966.21        67.47415
966.60        67.12355
966.98        66.68365
967.37         66.1061
967.76         65.5396
968.15        65.23016
968.53        65.25818
968.92        65.59828
969.31        66.04964
969.69        66.23247
970.08        66.02894
970.47        65.52049
970.86        65.01193
971.24        65.04204
971.63        65.68324
972.02         66.7272
972.40        67.76276
972.79        68.10751
973.17        67.70178
973.56         66.7851
973.95        65.73892
974.33        65.24535
974.72        65.50722
975.11        66.24419
975.49        67.34833
975.88        68.56007
976.26        69.77106
976.65        70.97626
977.04        71.83822
977.42        71.80895
977.81        70.78956
978.19        68.84082
978.58        66.78204
978.96        66.17974
979.35        67.37453
979.74        69.72744
980.12        72.20097
980.51        73.33974
980.89        73.03773
981.28         71.6268
981.66        69.52689
982.05        67.86918
982.43        67.20286
982.82        67.26103
983.20        67.81741
983.59        68.46035
983.97        69.05694
984.35        69.73088
984.74        70.33772
985.12         70.6504
985.51        70.58564
985.89        70.24576
986.28        69.75971
986.66        69.41083
987.04        69.31805
987.43        69.31008
987.81        69.18462
988.20          69.994
988.58        71.83256
988.96        72.12075
989.35        70.09735
989.73        75.61543
990.12        71.87982
990.50         71.7977
990.88        70.96139
991.27        70.25108
991.65        69.70793
992.03        69.45525
992.42        69.55624
992.80        69.48967
993.18        69.17403
993.56        68.80302
993.95        68.47337
994.33        68.29285
994.71        68.31905
995.10        68.45969
995.48        68.76431
995.86        69.32024
996.24        70.08484
996.63        70.93015
997.01        71.75037
997.39        72.17635
997.77        72.13401
998.15        71.73671
998.54        71.21135
998.92        70.81962
999.30         70.7165
999.68        70.88046
1000.06        71.26077
1000.45        71.67795
1000.83        72.12701
1001.21        72.58752
1001.59        73.10346
1001.97        73.74335
1002.35        74.45647
1002.73         75.1363
1003.12        75.63721
1003.50        75.84315
1003.88        75.72739
1004.26         75.3342
1004.64        74.73956
1005.02        74.12991
1005.40        73.61095
1005.78        73.17252
1006.16        72.82291
1006.54        72.51136
1006.92        72.26287
1007.30        72.21039
1007.69        72.28651
1008.07        72.47204
1008.45          72.743
1008.83        73.04598
1009.21        73.65086
1009.59        75.01117
1009.97        76.94431
1010.35        78.98868
1010.73        80.59597
1011.11         81.4379
1011.49        81.64438
1011.86        81.12273
1012.24        79.80483
1012.62        80.56919
1013.00        81.07272
1013.38        80.99331
1013.76        79.12571
1014.14        82.89995
1014.52        88.36406
1014.90        82.40423
1015.28         83.8649
1015.66        85.17242
1016.04        82.16447
1016.41        81.89819
1016.79        80.56057
1017.17         79.7505
1017.55        79.07131
1017.93        78.72852
1018.31        78.95232
1018.69        79.54994
1019.06        80.47137
1019.44        81.59356
1019.82        82.61547
1020.20        83.14876
1020.58        83.14767
1020.95        82.59618
1021.33        81.65134
1021.71        80.78032
1022.09        80.41507
1022.46        80.47426
1022.84        80.78384
1023.22         81.2407
1023.60        81.80236
1023.97        82.52913
1024.35        83.30055
1024.73        83.78305
