SpectraSmart Spectrum 2.9.0.0
--------- Device Information -----------
Spectrum Name :  反射率_0
Saving Time :  2024/04/21 00:53:21
Spectro-Module Model Name : SE2030-DUVN
Spectro-Module Serial Number : OS361AC55029948
Wavelength Start : 200
Wavelength End : 1025
Wavelength Unit : Wavelength(nm)
Spectrum Unit : Reflectance(%)
-----------Spectrum Setting ------------
Integration Time : 20ms
Average : 10
Boxcar : 0
Background removal :  enabled
linearity correction :  enabled
SC :  disabled
Intensity correction :  disabled
DWT denoise :  enabled
savitzky-golay :  disabled
FFT :  disabled
Running average :  disabled
Kalman :  disabled
High pass :  disabled
---------------BEGIN--------------------
Wavelength(nm)             Reflectance(%)
200.29               0
200.75       -62.50143
201.21       -12.64542
201.67        15.26054
202.13        28.06277
202.58        32.79972
203.04        33.85231
203.50        31.76598
203.96        26.99263
204.42        20.41195
204.88        11.67254
205.34        2.482807
205.80       -6.060611
206.26       -13.78582
206.72       -17.21566
207.18       -18.20181
207.64       -23.26298
208.10       -32.25647
208.55       -44.11001
209.01       -40.65585
209.47       -6.635353
209.93        30.73815
210.39        57.91518
210.85        73.96461
211.31        79.95072
211.77        78.47312
212.23         69.8013
212.69        50.15228
213.14        16.32235
213.60       -38.36032
214.06       -177.4899
214.52       -451.7608
214.98        -158.383
215.44       -6.599975
215.90        41.44464
216.36        56.21998
216.81        55.81104
217.27        41.45025
217.73       -29.96865
218.19        833.6024
218.65        380.4031
219.11       -753.5568
219.57       -6.150607
220.02        41.65545
220.48         50.3451
220.94         46.1741
221.40        28.64924
221.86       -13.65348
222.32       -40.14984
222.77       -1.147071
223.23        32.08435
223.69        48.53617
224.15        53.78642
224.61        53.16101
225.06        49.86558
225.52        44.73444
225.98        38.53727
226.44        32.18356
226.90        24.55575
227.36        19.63619
227.81        24.35894
228.27         34.9964
228.73        45.95406
229.19        53.11442
229.65         54.5785
230.10        51.28328
230.56        44.50344
231.02        35.28123
231.48        28.58497
231.93        28.18196
232.39        32.40501
232.85        37.65502
233.31        40.80175
233.77        41.91291
234.22        42.41277
234.68        42.49994
235.14        42.39646
235.60        42.48637
236.05        42.00101
236.51         41.2767
236.97        45.46764
237.43        54.69337
237.88        61.57886
238.34          63.583
238.80        78.21924
239.26        73.62836
239.71        72.67066
240.17        67.73842
240.63        63.93489
241.08        65.17291
241.54         72.9782
242.00        84.61687
242.46        91.40543
242.91         91.0694
243.37        82.92736
243.83        68.94558
244.28        59.56808
244.74        61.56232
245.20        70.24613
245.66        79.22997
246.11         81.8899
246.57        77.47761
247.03        68.60226
247.48        56.33926
247.94        41.98988
248.40        22.55711
248.85       -21.89463
249.31       -152.8948
249.77       -238.5231
250.22       -31.35079
250.68        51.14348
251.14        76.35442
251.59        81.92989
252.05        79.48293
252.51        70.98785
252.96        58.53989
253.42        53.70634
253.88        63.20912
254.33        79.55895
254.79        94.56838
255.25        101.0719
255.70        100.7655
256.16        98.67682
256.62        96.30682
257.07        94.39249
257.53        93.46928
257.99        92.64011
258.44        91.23475
258.90        89.67273
259.35        87.41764
259.81        85.29277
260.27        83.34084
260.72        81.73612
261.18        80.87547
261.63        80.09081
262.09        79.42667
262.55        78.27989
263.00         76.5511
263.46        74.72884
263.91        72.84197
264.37        71.52952
264.83        70.71026
265.28        70.11842
265.74        69.67545
266.19        68.95476
266.65        67.99102
267.11        66.81866
267.56         65.5052
268.02        64.27789
268.47        63.12207
268.93        62.02188
269.38        60.87066
269.84        59.59828
270.30        58.18774
270.75        56.70091
271.21        55.26652
271.66        53.98222
272.12         52.9172
272.57        51.98981
273.03        51.18616
273.48        50.40126
273.94        49.63188
274.39        48.84463
274.85        48.05295
275.31        47.17945
275.76        46.21684
276.22        45.25195
276.67        44.30961
277.13         43.5546
277.58        42.94085
278.04        42.45887
278.49        42.00356
278.95         41.5555
279.40        41.02617
279.86        40.48558
280.31        39.84863
280.77        39.11984
281.22        38.27319
281.68        37.40705
282.13        36.56045
282.59        35.90019
283.04        35.41422
283.50        35.09165
283.95        34.88113
284.41        34.75472
284.86        34.66846
285.32        34.65872
285.77        34.65002
286.22        34.57399
286.68        34.44215
287.13        34.21599
287.59        34.03722
288.04        34.00673
288.50        34.12484
288.95        34.43907
289.41        34.84751
289.86        34.75605
290.32        34.08878
290.77         34.5759
291.22        33.56988
291.68        33.55906
292.13        33.77402
292.59        34.24597
293.04        34.90091
293.50        35.69176
293.95        36.59609
294.40         37.5995
294.86        38.69937
295.31        39.87737
295.77        41.11533
296.22        42.37941
296.68        43.63456
297.13        44.82371
297.58        45.95982
298.04        47.06559
298.49        48.20711
298.95        49.51337
299.40        50.98612
299.85        52.59491
300.31        54.24555
300.76        55.75871
301.21         57.1116
301.67         58.3844
302.12        59.65103
302.58        61.13679
303.03         62.8484
303.48        64.76872
303.94        66.79549
304.39        68.71391
304.84        70.48223
305.30        72.16871
305.75        73.82911
306.20          75.664
306.66        77.69595
307.11        79.79013
307.57        81.83386
308.02         83.5802
308.47        85.01614
308.93        86.26225
309.38        87.39275
309.83        88.59441
310.29         89.9644
310.74        91.38117
311.19        92.81232
311.65        94.17344
312.10        95.41239
312.55        96.56334
313.00        97.61926
313.46        98.56918
313.91        99.40162
314.36        100.1278
314.82        100.7887
315.27        101.4431
315.72        102.1226
316.18         102.825
316.63        103.5318
317.08        104.2095
317.53        104.8415
317.99        105.4258
318.44        105.9783
318.89        106.5102
319.35        107.0172
319.80        107.4983
320.25        107.9157
320.70        108.2202
321.16        108.3982
321.61        108.4848
322.06        108.5405
322.51        108.6696
322.97         108.885
323.42        109.2048
323.87        109.5501
324.32        109.8024
324.78        109.9174
325.23        109.9753
325.68        110.0406
326.13        110.2513
326.59        110.6108
327.04        111.1202
327.49        111.6763
327.94        112.1458
328.39         112.482
328.85          112.69
329.30         112.865
329.75        113.0291
330.20        113.2074
330.66        113.3416
331.11        113.5224
331.56         113.758
332.01        114.0563
332.46        114.4228
332.92         114.763
333.37        115.0555
333.82        115.2429
334.27         115.367
334.72         115.514
335.17        115.8306
335.63        116.3204
336.08        116.9873
336.53        117.7475
336.98        118.5112
337.43        119.2272
337.88        119.9118
338.34         120.483
338.79        120.8778
339.24        121.0678
339.69        121.0783
340.14        121.0452
340.59         121.192
341.05        121.5746
341.50        122.1532
341.95        122.8013
342.40        123.3045
342.85        123.6002
343.30        123.7438
343.75        123.8361
344.20        124.0417
344.66        124.4064
345.11         124.852
345.56        125.2747
346.01        125.5191
346.46        125.5611
346.91        125.4377
347.36        125.2494
347.81         125.224
348.26        125.4154
348.72        125.4749
349.17        125.8404
349.62        125.9564
350.07        125.9539
350.52         125.855
350.97        125.7255
351.42        125.6639
351.87        125.6766
352.32        125.7124
352.77        125.6996
353.22        125.5317
353.67        125.1889
354.13        124.7432
354.58        124.1973
355.03        123.6115
355.48        123.0239
355.93        122.4206
356.38        121.8782
356.83        121.5094
357.28        121.3047
357.73        121.2151
358.18        121.0781
358.63        120.6326
359.08        119.8304
359.53        118.7647
359.98         117.596
360.43         116.571
360.88        115.7602
361.33        115.0958
361.78        114.5115
362.23        113.8997
362.68        113.2229
363.13        112.5196
363.58        111.7998
364.03        111.0697
364.48        110.3297
364.93        109.5629
365.38        108.7666
365.83        107.9509
366.28        107.1214
366.73        106.2799
367.18        105.4403
367.63        104.6212
368.08        103.8311
368.53        103.0771
368.98        102.3326
369.43        101.5418
369.88        100.6899
370.33        99.78571
370.78        98.88291
371.23        98.09186
371.68        97.44775
372.13        96.92102
372.58         96.4507
373.03        95.92492
373.48        95.30864
373.93        94.63853
374.38        93.94263
374.83        93.27945
375.28        92.67651
375.72        92.08863
376.17        91.56368
376.62        91.09431
377.07        90.65704
377.52        90.24025
377.97        89.78308
378.42        89.19952
378.87        88.49741
379.32        87.72885
379.77        86.97491
380.22        86.33425
380.67        85.81729
381.11         85.3937
381.56        85.01637
382.01        84.63128
382.46         84.2253
382.91        83.81948
383.36        83.41134
383.81        82.99368
384.26        82.56322
384.71        82.11278
385.15        81.64344
385.60        81.22858
386.05        80.85287
386.50          80.507
386.95        80.16174
387.40        79.77805
387.85        79.36112
388.29        78.88512
388.74        78.48215
389.19        78.12975
389.64        77.81976
390.09        77.52884
390.54        77.24666
390.98        76.94402
391.43         76.6643
391.88         76.4192
392.33        76.20054
392.78        75.95792
393.23        75.68391
393.67        75.40188
394.12        75.26524
394.57        74.98344
395.02        75.13281
395.47        75.15427
395.91        75.13303
396.36          74.944
396.81        74.58382
397.26        74.08992
397.71         73.5745
398.15        73.18875
398.60         73.0427
399.05        73.00494
399.50        73.01964
399.95        73.04971
400.39        73.05432
400.84        72.92527
401.29        72.67225
401.74        72.35896
402.18        72.03449
402.63        71.72935
403.08        71.46739
403.53        71.22147
403.97        71.00436
404.42        70.89595
404.87        70.82697
405.32        70.70124
405.76        70.49557
406.21        70.15524
406.66        69.78003
407.11        69.73214
407.55        69.94625
408.00        69.92412
408.45        69.64695
408.90        69.30241
409.34        69.02409
409.79          69.146
410.24        69.53708
410.68        69.63313
411.13        69.39571
411.58         69.1568
412.03        68.99159
412.47        68.88567
412.92        68.84464
413.37        68.89023
413.81        68.95705
414.26        68.99818
414.71        68.97478
415.15        68.91283
415.60        68.80359
416.05        68.69771
416.49        68.61244
416.94        68.52764
417.39         68.4226
417.83        68.26062
418.28        68.04041
418.73        67.77048
419.17        67.50605
419.62        67.34538
420.07        67.31644
420.51        67.39101
420.96         67.5106
421.41        67.57272
421.85        67.53467
422.30        67.35287
422.74        67.11319
423.19        67.31458
423.64        67.83859
424.08        68.02046
424.53        67.77615
424.98        67.70034
425.42        67.82419
425.87        67.73125
426.31         67.4812
426.76        67.41801
427.21        67.52026
427.65        67.55305
428.10        67.47748
428.54        67.42515
428.99        67.42606
429.44        67.44017
429.88        67.42201
430.33        67.32514
430.77        67.15533
431.22        67.17933
431.66        67.33311
432.11        67.48786
432.56        67.63634
433.00        67.39445
433.45        66.59879
433.89        66.59684
434.34        67.59412
434.78        66.15102
435.23        65.75656
435.67        67.78048
436.12        67.41746
436.57        67.73824
437.01         67.2305
437.46        66.83252
437.90        67.20744
438.35        67.69604
438.79        67.44744
439.24        67.47872
439.68        67.49941
440.13        67.47089
440.57        67.38479
441.02        67.43895
441.46        67.59872
441.91        67.47044
442.35        67.13054
442.80        67.51733
443.24        68.41597
443.69        68.51591
444.13        67.75446
444.58        67.80581
445.02        67.34936
445.47        67.38145
445.91        67.44354
446.36         67.4586
446.80        67.40173
447.24        67.37637
447.69        67.41311
448.13        67.62659
448.58        67.76235
449.02        67.67383
449.47         67.3789
449.91        67.27416
450.36        67.40709
450.80        67.47817
451.25        67.49052
451.69         67.6273
452.13        67.82574
452.58        67.73423
453.02         67.3834
453.47        67.18849
453.91        67.18062
454.36        66.92188
454.80        66.83679
455.24        66.63732
455.69        66.49022
456.13        66.24691
456.58        65.98412
457.02        66.08617
457.46        66.12128
457.91        66.05532
458.35        65.90101
458.79         65.8028
459.24        65.80282
459.68        65.77081
460.13        65.76328
460.57        65.59604
461.01        65.25262
461.46        65.33648
461.90        65.44213
462.34        64.62212
462.79        65.05411
463.23        65.07298
463.68        65.28024
464.12         65.2374
464.56        65.00983
465.01        65.17375
465.45         65.4889
465.89        65.45515
466.34        65.15296
466.78        64.73957
467.22         64.2647
467.67        64.80589
468.11        64.31703
468.55        64.37283
468.99        64.32187
469.44        64.25461
469.88        64.14542
470.32        63.93856
470.77        63.71623
471.21         63.6027
471.65        63.62179
472.10        63.73406
472.54         63.8465
472.98        63.84678
473.42        63.71828
473.87        63.49369
474.31         63.2298
474.75        63.17208
475.20        63.29156
475.64        63.33622
476.08        63.29899
476.52         63.2851
476.97        63.24838
477.41         63.3305
477.85        63.50996
478.29         63.0238
478.74        62.60394
479.18        62.77957
479.62        63.19538
480.06        63.13863
480.50        63.26384
480.95        63.22729
481.39        63.21847
481.83        63.48376
482.27        63.48439
482.72        63.46803
483.16        63.40857
483.60        63.61535
484.04        63.58375
484.48        63.26686
484.93        63.27664
485.37        62.71686
485.81        63.41321
486.25        62.50951
486.69        64.04435
487.14        64.00933
487.58        63.61981
488.02        63.12662
488.46        63.33792
488.90        62.87047
489.34        62.80677
489.79        62.23897
490.23        62.99244
490.67        63.11814
491.11        63.04325
491.55        62.88932
491.99        62.72757
492.43        62.64007
492.88        62.63383
493.32        62.67581
493.76        62.67593
494.20        62.66027
494.64         62.6451
495.08        62.23571
495.52        62.05706
495.96         62.1732
496.41        62.60243
496.85        62.64633
497.29        62.29257
497.73        62.24062
498.17        62.21344
498.61        62.44806
499.05         62.7153
499.49        62.61934
499.93        62.24107
500.37        62.05302
500.82        62.13081
501.26        62.22556
501.70        62.76494
502.14        62.43559
502.58        62.01321
503.02        61.82248
503.46        62.00039
503.90        62.14244
504.34        62.15855
504.78        62.16435
505.22        62.15648
505.66        62.03962
506.10        61.87122
506.54        61.84665
506.98        62.00256
507.42         61.5617
507.86        62.46651
508.30        61.56579
508.74         62.1115
509.18        61.88925
509.62        61.74901
510.06        61.69283
510.50        61.71588
510.94        61.72034
511.38        61.65662
511.82        61.59282
512.26        61.52223
512.70        61.41143
513.14        61.30023
513.58        61.27034
514.02        61.33258
514.46        61.45836
514.90        61.58664
515.34        61.65635
515.78        61.65034
516.22        61.56268
516.66        61.28102
517.10        61.45953
517.54          61.244
517.98        61.29926
518.42        61.34723
518.86           61.38
519.30        61.38621
519.74        61.34073
520.18        61.29251
520.62        61.39059
521.06        61.59444
521.50        61.65943
521.93        61.57248
522.37        61.51287
522.81        61.48642
523.25        61.38549
523.69        61.22814
524.13        61.09851
524.57        61.01149
525.01         60.9478
525.45        60.91444
525.89         60.9201
526.32         60.9577
526.76        61.02841
527.20        61.10661
527.64        61.15176
528.08         61.1536
528.52        61.12558
528.96        61.08273
529.40        61.04369
529.83        61.01537
530.27        61.02017
530.71        61.04518
531.15        61.06867
531.59        61.08435
532.03        61.09982
532.46        61.10861
532.90         61.1128
533.34        61.10747
533.78        61.09658
534.22        61.06974
534.66        61.01214
535.09        60.91821
535.53        60.81494
535.97        60.72389
536.41        60.69463
536.85        60.73548
537.28        60.83175
537.72        60.94406
538.16        61.00868
538.60        61.00757
539.04        60.95924
539.47        60.88279
539.91         60.8596
540.35        60.88725
540.79         60.9483
541.22        61.01062
541.66        61.03906
542.10        61.01748
542.54        60.95559
542.97        60.87545
543.41        60.84185
543.85        60.86257
544.29         60.9338
544.72        60.99984
545.16        61.02883
545.60        61.00337
546.04        60.86666
546.47        60.70971
546.91        60.83335
547.35        61.16811
547.79        61.33423
548.22        61.27446
548.66        61.17477
549.10        61.08318
549.53        61.03118
549.97        61.02234
550.41        60.95206
550.84        60.83599
551.28        60.73712
551.72          60.659
552.15        60.66917
552.59        60.80209
553.03        60.57402
553.46        60.84311
553.90        60.80316
554.34        60.67166
554.77         60.6733
555.21        60.84618
555.65         60.3578
556.08         60.9051
556.52        60.96593
556.96        61.00573
557.39        61.06277
557.83        61.12118
558.27         60.9799
558.70        60.71207
559.14        60.62045
559.57        60.71817
560.01        60.96179
560.45        61.21262
560.88        61.19164
561.32        60.97328
561.75        60.75972
562.19        60.66061
562.63        60.73406
563.06        60.89318
563.50        60.82766
563.93        60.55096
564.37        60.37607
564.80        60.33879
565.24        60.45662
565.68        60.67937
566.11        60.80611
566.55        60.82588
566.98        60.93245
567.42        61.11262
567.85        61.00448
568.29        60.74631
568.72        60.82829
569.16        61.23669
569.60        61.30588
570.03        61.31026
570.47        61.28197
570.90        61.27902
571.34        61.35964
571.77        61.50446
572.21        61.39217
572.64        61.61334
573.08        61.55873
573.51        61.49841
573.95        61.86438
574.38        61.67607
574.82        62.13893
575.25         62.0977
575.69        61.85068
576.12        61.39822
576.56        61.72816
576.99        62.12348
577.42        62.04598
577.86        61.83654
578.29        62.48669
578.73        62.72317
579.16        62.23368
579.60        61.85155
580.03        61.97468
580.47        62.07425
580.90        62.24355
581.33        62.00208
581.77        62.26061
582.20        62.55014
582.64        62.60183
583.07        62.42372
583.51        62.08489
583.94        61.75432
584.37        61.41948
584.81        61.32019
585.24        61.36643
585.68        61.95261
586.11        61.72867
586.54        61.90008
586.98        62.05877
587.41        61.59708
587.85        62.20115
588.28        61.73693
588.71        61.96198
589.15        61.88157
589.58        61.27608
590.01        61.39432
590.45        61.28572
590.88        61.09326
591.31        60.84114
591.75        61.12442
592.18        61.23387
592.61        61.29998
593.05        61.69311
593.48        61.86058
593.91         61.9141
594.35        61.53551
594.78        61.53851
595.21        61.25152
595.65        61.42239
596.08        61.69369
596.51        61.89223
596.94        61.46333
597.38        61.31711
597.81        61.36271
598.24        61.65269
598.68        60.98048
599.11         61.4314
599.54        61.96693
599.97        61.38549
600.41         61.5412
600.84        61.66131
601.27        61.51419
601.70        61.57658
602.14        61.09692
602.57        61.05783
603.00        61.27569
603.43        61.43025
603.87        61.82986
604.30        61.63052
604.73         61.4735
605.16        61.17328
605.60        61.26057
606.03        61.38372
606.46        61.60939
606.89        61.50391
607.32        61.17764
607.76         61.8319
608.19        61.76455
608.62        61.41537
609.05        62.03825
609.48        61.56641
609.92        61.81802
610.35        61.35984
610.78        61.81585
611.21        61.39005
611.64        61.57481
612.07         61.5279
612.50        61.58332
612.94        61.54379
613.37        61.39367
613.80        61.62058
614.23         61.4031
614.66        61.34656
615.09        61.22186
615.52        61.15597
615.96        61.16045
616.39        61.10556
616.82        60.97805
617.25        61.16992
617.68        61.10909
618.11         61.0111
618.54           60.91
618.97        60.80285
619.40        60.75158
619.84         60.7225
620.27        60.74645
620.70        60.76381
621.13        60.78828
621.56        60.90532
621.99         61.1042
622.42         61.2394
622.85        61.25413
623.28        61.18302
623.71        61.30897
624.14         61.0866
624.57        61.21927
625.00        61.51515
625.43         60.9827
625.86        61.00731
626.29        61.27385
626.72        60.84992
627.15        61.02889
627.58        60.91775
628.01         60.9509
628.44        60.85463
628.87        60.71845
629.30        61.04592
629.73        60.96421
630.16         60.8152
630.59        60.84811
631.02        60.93018
631.45        60.84647
631.88        60.87294
632.31        60.93109
632.74        60.71228
633.17        60.83076
633.60        60.75534
634.03        60.67406
634.46        60.63249
634.89        60.55957
635.32         60.5729
635.75        60.63887
636.18        60.74503
636.61        60.84676
637.04        60.88291
637.47        60.82163
637.89        60.69745
638.32        60.56029
638.75        60.42122
639.18        60.28027
639.61        60.60686
640.04        60.49469
640.47        60.61811
640.90        60.69735
641.33          60.761
641.76         60.8051
642.18        60.84728
642.61        60.88233
643.04        60.90012
643.47        60.89484
643.90        60.86401
644.33        60.81097
644.76        60.73235
645.18        60.64759
645.61        60.60638
646.04        60.60419
646.47        60.57603
646.90        60.53124
647.33        60.53511
647.75        60.57826
648.18        60.64734
648.61        60.73705
649.04        60.76479
649.47        60.70509
649.89        60.92916
650.32        60.77455
650.75        60.78768
651.18        60.75953
651.61        60.65314
652.03        60.51036
652.46        60.40701
652.89        60.40067
653.32        60.54163
653.74        60.77891
654.17        60.84641
654.60        60.67338
655.03        60.65018
655.46        60.44923
655.88          61.163
656.31        62.18925
656.74        66.19244
657.16        64.79401
657.59        62.97896
658.02        61.37686
658.45         61.2242
658.87        61.21352
659.30        61.08213
659.73        60.81867
660.15        60.35574
660.58        60.89784
661.01        61.10868
661.44         61.1896
661.86        61.08776
662.29        60.83765
662.72        60.57417
663.14        60.40415
663.57        60.48482
664.00        60.74555
664.42        60.86041
664.85        60.80597
665.27        60.66496
665.70        60.66155
666.13        60.60277
666.55         60.5633
666.98        60.53596
667.41        60.52062
667.83        60.52674
668.26        60.56514
668.69        60.58486
669.11        60.56426
669.54        60.68435
669.96        60.98646
670.39        60.59659
670.82        60.98766
671.24         61.0036
671.67        61.05786
672.09        61.12824
672.52        61.20134
672.94        61.10427
673.37        60.87353
673.80        60.73619
674.22        60.72896
674.65        60.69502
675.07        60.65939
675.50        60.71811
675.92        60.83863
676.35        60.89035
676.77        60.85387
677.20         60.7823
677.62         60.7369
678.05        60.73434
678.47        60.77365
678.90        61.10304
679.32         61.1739
679.75        61.31546
680.17        61.35704
680.60         61.3351
681.02        61.26283
681.45        61.17251
681.87        61.09256
682.30        60.98017
682.72        60.87803
683.15        60.88384
683.57        60.95303
684.00        61.03988
684.42        60.81769
684.85        60.83764
685.27        60.98898
685.70        61.14722
686.12         61.2408
686.54        61.25605
686.97        61.17552
687.39        61.03378
687.82         60.8947
688.24         60.8367
688.66        60.86443
689.09        61.19585
689.51        61.30813
689.94        61.49939
690.36        61.58719
690.78        61.56513
691.21        61.47211
691.63        61.35963
692.06        61.29754
692.48        61.37693
692.90        61.54538
693.33        61.60314
693.75        61.53951
694.17        61.41476
694.60        61.25872
695.02        61.30776
695.44        61.29811
695.87        61.25725
696.29        61.14551
696.71        61.16096
697.14        61.32223
697.56        61.54358
697.98        61.71676
698.41          61.995
698.83        61.84335
699.25        61.72945
699.68         61.5634
700.10        61.45837
700.52        61.44056
700.94          61.489
701.37        61.55589
701.79        61.58838
702.21        61.55053
702.64        61.47499
703.06        61.38602
703.48        61.32433
703.90        61.30738
704.33        61.31984
704.75        61.35297
705.17        61.37488
705.59        61.37992
706.01        61.37457
706.44         61.3882
706.86        61.48522
707.28          61.655
707.70        61.86773
708.12        62.07163
708.55        62.18211
708.97        62.17458
709.39        62.08583
709.81        61.94767
710.23        61.82296
710.66        61.74345
711.08        61.70697
711.50        61.70172
711.92        61.72263
712.34        61.76389
712.76        61.82754
713.19        61.89546
713.61        61.97885
714.03        62.04734
714.45        62.11015
714.87        62.16445
715.29        62.16744
715.71        62.11235
716.13        62.17074
716.56        62.05035
716.98        62.04981
717.40        62.07524
717.82        62.12496
718.24        62.18471
718.66        62.23413
719.08        62.26777
719.50        62.28837
719.92        62.29837
720.34        62.29977
720.76        62.29577
721.19        62.27926
721.61        62.27104
722.03        62.27649
722.45        62.29992
722.87        62.34061
723.29        62.39837
723.71        62.47155
724.13         62.5555
724.55        62.64383
724.97        62.73048
725.39          62.807
725.81        62.86856
726.23        62.91635
726.65        62.94152
727.07        62.93688
727.49        62.90725
727.91        62.84564
728.33        62.78053
728.75        62.79289
729.17        62.87789
729.59        62.94492
730.01         62.9878
730.43        63.05954
730.85        63.15192
731.27        63.21687
731.69        63.25694
732.10        63.24213
732.52        63.36545
732.94        63.23639
733.36        62.98372
733.78        62.88483
734.20        62.97186
734.62        63.09637
735.04        63.20378
735.46        63.26778
735.88        63.27033
736.30        63.22821
736.72        63.15711
737.13        63.11658
737.55        63.09015
737.97        63.03024
738.39        62.97002
738.81        63.08842
739.23        63.33484
739.65        63.40712
740.06        63.27557
740.48        63.25595
740.90        63.32502
741.32        63.32286
741.74        63.27229
742.16        63.30455
742.57        63.44128
742.99        63.62225
743.41        63.80251
743.83        63.89301
744.25        63.87143
744.67        63.75829
745.08        63.62909
745.50        63.56619
745.92        63.61046
746.34          63.742
746.75        63.87984
747.17        63.88783
747.59        63.74231
748.01         63.4568
748.42        63.16223
748.84        63.08961
749.26        63.24593
749.68         63.5229
750.09        63.79566
750.51        63.77241
750.93        63.52877
751.35        63.56694
751.76        63.87276
752.18        63.98968
752.60        63.90575
753.01        63.91687
753.43         63.9866
753.85        63.96493
754.27        63.84677
754.68        63.67772
755.10        63.52016
755.52        63.44679
755.93        63.47741
756.35        63.59336
756.77          63.739
757.18        63.82771
757.60        63.83077
758.02        63.75799
758.43        63.69246
758.85        63.65088
759.26        63.88017
759.68        64.09398
760.10        63.62769
760.51        63.33189
760.93        63.77662
761.34        63.90768
761.76          64.076
762.18        64.19325
762.59        64.23252
763.01        64.25573
763.42        63.51773
763.84        63.55661
764.26        63.78675
764.67        64.31885
765.09        64.84187
765.50         64.9428
765.92        64.68739
766.33        64.54264
766.75         64.5556
767.16        64.50479
767.58        64.34834
768.00        64.42645
768.41        64.70778
768.83        64.58675
769.24        64.14112
769.66        64.51243
770.07        64.71115
770.49        64.89767
770.90        64.76114
771.32        64.51861
771.73        64.28641
772.15        64.20734
772.56        64.33492
772.97        64.58107
773.39        64.83146
773.80        64.99995
774.22        65.01215
774.63        64.92125
775.05        64.76431
775.46        64.65363
775.88        64.60152
776.29        64.59747
776.70        64.60693
777.12        64.59064
777.53        64.55517
777.95        64.51333
778.36        64.47475
778.77        64.44267
779.19        64.42415
779.60        64.42214
780.02          64.443
780.43        64.54148
780.84        64.72672
781.26        64.89129
781.67        65.04008
782.09        65.31233
782.50        65.57941
782.91         65.4381
783.33         64.9935
783.74          64.855
784.15        65.04685
784.57        65.37984
784.98         65.7059
785.39        65.62679
785.81        65.22095
786.22        65.10258
786.63         65.2998
787.04        65.36336
787.46        65.30468
787.87        65.38425
788.28        65.57626
788.70        65.66085
789.11        65.59425
789.52        65.52441
789.93        65.47381
790.35        65.29559
790.76         65.1042
791.17        65.27664
791.58        65.72041
792.00        65.93883
792.41        65.91296
792.82        65.83359
793.23        65.81042
793.65        66.00862
794.06        66.41137
794.47        66.73861
794.88         66.9062
795.29        66.97417
795.71        67.02974
796.12        66.85935
796.53        66.55638
796.94        66.45461
797.35        66.54461
797.76        66.47427
798.18        66.24874
798.59        66.14815
799.00        66.17828
799.41        66.18564
799.82        66.15511
800.23        66.14247
800.64        66.14367
801.06        66.11523
801.47        66.11018
801.88        66.14008
802.29        66.21262
802.70        66.33456
803.11        66.46507
803.52        66.52948
803.93        66.50661
804.34        66.40768
804.75        66.32362
805.17        66.34847
805.58        66.51843
805.99        66.91697
806.40        67.38989
806.81        67.34076
807.22        66.87138
807.63        66.80698
808.04        67.14948
808.45        67.21754
808.86        66.98849
809.27        66.88633
809.68        66.92725
810.09        66.91667
810.50        66.84908
810.91        66.79308
811.32        66.74022
811.73        66.66833
812.14        66.58082
812.55        66.47513
812.96        66.39241
813.37        66.41061
813.78        66.53864
814.19        66.74294
814.60        66.96043
815.01         67.0971
815.42         67.1314
815.83        67.09209
816.24        67.01315
816.65        66.96242
817.05        66.97226
817.46        66.98983
817.87        67.04428
818.28        67.13903
818.69        67.26878
819.10         67.4409
819.51        67.61097
819.92        67.69392
820.33        67.66779
820.74        67.54704
821.14        67.40095
821.55        67.36216
821.96        67.44846
822.37        67.63254
822.78           67.83
823.19        67.89091
823.60        67.77494
824.00        67.53886
824.41        67.25516
824.82        67.11521
825.23        67.16701
825.64        67.36123
826.04        67.61037
826.45        67.73636
826.86        67.70912
827.27        67.58228
827.68        67.43594
828.08         67.4315
828.49         67.5407
828.90        67.75334
829.31         68.0209
829.72        68.17925
830.12        68.19611
830.53        68.45485
830.94        68.27535
831.35        68.15306
831.75        67.91831
832.16        67.57744
832.57        67.26296
832.97        67.19199
833.38        67.39841
833.79        67.80192
834.20        68.26862
834.60        68.59458
835.01        68.71895
835.42        68.69831
835.82        68.57715
836.23        68.39028
836.64        68.19186
837.04        67.98359
837.45        67.78905
837.86        67.70693
838.26        67.76633
838.67        67.94029
839.08        68.18097
839.48         68.3846
839.89        68.50889
840.29        68.57141
840.70        68.60642
841.11        68.67881
841.51        68.81288
841.92        68.94066
842.33        69.03126
842.73        69.03487
843.14        68.90353
843.54        68.71402
843.95        68.49365
844.35        68.30444
844.76        68.16956
845.17        68.07604
845.57        68.08884
845.98        68.27446
846.38        68.65031
846.79        69.15612
847.19        69.67351
847.60        69.93374
848.00        69.90947
848.41        69.62803
848.81        69.27153
849.22        69.08932
849.62        69.19923
850.03        69.49403
850.43        69.87363
850.84        70.07246
851.24        70.07455
851.65        69.88322
852.05        69.66511
852.46         69.6066
852.86        69.75538
853.27         70.0713
853.67        70.31855
854.07         70.3187
854.48        70.01067
854.88        69.48485
855.29        68.87952
855.69        68.61973
856.10        68.72824
856.50        69.18167
856.90        69.70278
857.31        69.86829
857.71        69.62011
858.12        69.03203
858.52        68.32844
858.92        67.82103
859.33         67.6124
859.73        67.66445
860.13         67.8647
860.54        68.02875
860.94         68.1502
861.34        68.23524
861.75        68.31402
862.15         68.5061
862.55        68.78048
862.96        69.06593
863.36        69.26905
863.76        69.20321
864.17         68.8375
864.57        68.27405
864.97        67.63941
865.38        67.13008
865.78        66.86524
866.18        66.79096
866.58        66.91405
866.99        67.19566
867.39        67.61615
867.79        68.14971
868.19        68.65789
868.60        68.86082
869.00        68.78522
869.40        68.63971
869.80        68.46515
870.21        68.18051
870.61        67.89376
871.01        67.69877
871.41        67.55334
871.81        67.30013
872.22        66.93889
872.62         66.5268
873.02        66.19376
873.42        66.32409
873.82        66.78406
874.22        67.00869
874.63        67.08169
875.03        67.22649
875.43        67.42464
875.83        68.39331
876.23        67.77079
876.63        67.12426
877.03        66.27118
877.44        64.65591
877.84        162.3735
878.24        66.11282
878.64        66.83222
879.04        68.09354
879.44        68.45744
879.84        65.56144
880.24        70.29071
880.64        70.79193
881.04        69.03736
881.44        67.64654
881.84        67.02538
882.24        67.32314
882.65        67.99611
883.05        67.81519
883.45        66.54976
883.85        64.99692
884.25        63.72353
884.65        63.23741
885.05        63.68945
885.45        64.83781
885.85         66.1771
886.25        66.99755
886.65        67.12245
887.05         66.7488
887.45        66.14995
887.85        65.79553
888.25        65.83975
888.65        66.12574
889.04        66.50536
889.44        66.75298
889.84        66.79002
890.24        66.71086
890.64        66.60241
891.04         66.5703
891.44        66.64776
891.84        66.80119
892.24        66.95861
892.64        67.01344
893.04        66.93958
893.44        66.76756
893.83        66.63088
894.23        66.69485
894.63        67.00465
895.03        67.53267
895.43        68.09081
895.83        68.36624
896.23        68.29923
896.63        67.96637
897.02        67.63395
897.42        67.77178
897.82        68.39939
898.22        69.34044
898.62         70.2283
899.01        70.47858
899.41        69.94141
899.81        68.85559
900.21        67.53297
900.61        66.48804
901.00        65.90132
901.40        65.69791
901.80        65.83321
902.20        66.09235
902.59        66.37909
902.99         67.0031
903.39        67.92415
903.79        67.56713
904.18        68.24415
904.58        68.06516
904.98        67.79993
905.38        67.52284
905.77        67.27672
906.17         67.0704
906.57        66.87545
906.96        66.73804
907.36         66.6696
907.76        66.69865
908.15        66.85989
908.55        67.05223
908.95        67.29004
909.34        67.51104
909.74        67.75529
910.14        68.05505
910.53        68.39285
910.93        68.74543
911.33        68.94097
911.72        68.71239
912.12        68.05672
912.52        67.08611
912.91        66.09684
913.31        65.63395
913.70         65.7915
914.10        66.41999
914.49        67.24603
914.89        67.70707
915.29        67.66006
915.68        67.23777
916.08        66.68653
916.47         66.3512
916.87         66.3662
917.26        66.62404
917.66        66.95251
918.05        67.10741
918.45        67.00645
918.84        66.73787
919.24        66.49489
919.64        66.63493
920.03        67.21861
920.42        68.10482
920.82        68.95033
921.21         69.2366
921.61         68.8819
922.00        68.10844
922.40         67.3457
922.79        67.16109
923.19        67.34666
923.58         68.4979
923.98        70.58205
924.37        70.96588
924.77        68.35703
925.16         74.8983
925.55        68.93343
925.95        68.94799
926.34        68.79362
926.74        68.21568
927.13        67.15589
927.52        66.61605
927.92         66.9854
928.31        67.67886
928.70        68.50672
929.10        69.11932
929.49        69.44086
929.89         69.5753
930.28        69.47131
930.67        68.95064
931.07        68.07181
931.46         66.8285
931.85        65.62477
932.24        65.56129
932.64        66.79337
933.03         68.4194
933.42        69.59679
933.82        72.15685
934.21        71.10188
934.60        70.33347
934.99        69.44087
935.39        69.20222
935.78        69.64127
936.17        71.12766
936.56        76.48966
936.96        69.93563
937.35        73.28085
937.74        70.32018
938.13        68.27232
938.53        66.61732
938.92        65.98048
939.31        66.86552
939.70        68.22329
940.09        69.03233
940.49        69.04277
940.88        68.63354
941.27        68.06168
941.66         67.7971
942.05        68.01452
942.44        68.47448
942.84        68.97345
943.23        69.34422
943.62        69.50882
944.01        69.53767
944.40        69.52565
944.79        69.60828
945.18        69.81313
945.57        70.08293
945.97        70.26681
946.36         70.2478
946.75         69.9629
947.14        69.47824
947.53        68.95649
947.92        68.67444
948.31        68.71181
948.70        68.98284
949.09        69.34237
949.48        69.56039
949.87        69.57703
950.26        69.47134
950.65        69.30585
951.04        69.18308
951.43        69.13593
951.82        69.10136
952.21        69.09332
952.60        69.15182
952.99        69.25933
953.38        69.40936
953.77        69.49384
954.16        69.33395
954.55        68.91891
954.94        68.32504
955.33        67.69881
955.72        67.32533
956.11        67.29998
956.50        67.51254
956.89        67.91349
957.28        68.40528
957.66        68.94658
958.05        69.50538
958.44        69.90305
958.83        69.85991
959.22        69.33421
959.61        68.33866
960.00        67.23805
960.39        66.75359
960.78        67.09113
961.16         68.1003
961.55         69.1433
961.94        69.42635
962.33        68.81365
962.72        67.48586
963.11        66.03441
963.49        65.66653
963.88        66.69829
964.27        68.65923
964.66        70.67805
965.04        71.57949
965.43        71.09449
965.82        69.65571
966.21        67.82237
966.60        66.59248
966.98        66.32412
967.37        66.68541
967.76        67.43096
968.15        68.15241
968.53        68.68776
968.92         69.1842
969.31        69.52722
969.69        69.48975
970.08        69.02494
970.47        68.12207
970.86        67.15257
971.24        66.81281
971.63        67.22987
972.02        68.22134
972.40        69.27098
972.79        69.50177
973.17        68.80897
973.56        67.45803
973.95        65.99081
974.33        65.37436
974.72         65.8836
975.11         67.1753
975.49         68.8596
975.88        70.21815
976.26        71.06135
976.65        71.52753
977.04         71.6769
977.42        71.56155
977.81        71.20551
978.19        70.51548
978.58        69.90144
978.96        70.05552
979.35        71.04735
979.74        72.59258
980.12        74.11261
980.51        74.70575
980.89        74.36352
981.28        73.21597
981.66        71.62716
982.05        70.56374
982.43        70.42376
982.82        70.99622
983.20        71.84189
983.59        72.22343
983.97        71.99403
984.35        71.34119
984.74        70.53279
985.12        70.11269
985.51        70.20162
985.89        70.67819
986.28        71.21445
986.66        71.41891
987.04        71.25932
987.43        70.77168
987.81        70.03297
988.20        70.58008
988.58        72.65059
988.96        73.49091
989.35        72.27498
989.73        77.83299
990.12        74.70798
990.50        74.76231
990.88        74.04237
991.27        73.38905
991.65        72.87625
992.03         72.5836
992.42        72.58895
992.80        72.49346
993.18        72.23696
993.56        71.99524
993.95        71.82881
994.33        71.77594
994.71        71.86326
995.10        72.01112
995.48        72.27232
995.86        72.73399
996.24        73.37094
996.63        74.07507
997.01        74.73989
997.39        75.00604
997.77        74.79688
998.15        74.18877
998.54        73.48048
998.92        73.04726
999.30        73.05239
999.68        73.48406
1000.06        74.05484
1000.45        74.12358
1000.83        73.64597
1001.21        72.83105
1001.59        72.24806
1001.97        72.71386
1002.35        74.21595
1002.73        76.25018
1003.12         78.2692
1003.50        79.67355
1003.88        80.33461
1004.26        80.48563
1004.64        80.12003
1005.02        79.25281
1005.40        77.98783
1005.78        76.29963
1006.16        74.64284
1006.54        73.74882
1006.92        73.79438
1007.30        74.71456
1007.69        75.85473
1008.07        76.26693
1008.45        75.73434
1008.83        74.48125
1009.21         73.2027
1009.59        73.34335
1009.97        75.11343
1010.35        77.63314
1010.73        80.02684
1011.11         81.6605
1011.49        82.56143
1011.86        82.78951
1012.24        82.09866
1012.62        82.57507
1013.00        82.14137
1013.38        80.67361
1013.76        77.14491
1014.14        80.34676
1014.52        86.34571
1014.90        79.38569
1015.28        81.53153
1015.66        83.62398
1016.04        81.03752
1016.41        81.48203
1016.79        80.78083
1017.17        80.55123
1017.55        80.37914
1017.93        80.35874
1018.31        80.69123
1018.69        81.22446
1019.06          81.965
1019.44        82.91858
1019.82         83.7158
1020.20        83.82855
1020.58        83.14881
1020.95        81.48777
1021.33         79.4814
1021.71        78.94682
1022.09        80.55834
1022.46         83.4095
1022.84        85.77975
1023.22        86.29592
1023.60        85.06358
1023.97        82.50407
1024.35        79.59105
1024.73        78.39449
