SpectraSmart Spectrum 2.9.0.0
--------- Device Information -----------
Spectrum Name :  反射率_0
Saving Time :  2024/04/21 00:46:41
Spectro-Module Model Name : SE2030-DUVN
Spectro-Module Serial Number : OS361AC55029948
Wavelength Start : 200
Wavelength End : 1025
Wavelength Unit : Wavelength(nm)
Spectrum Unit : Reflectance(%)
-----------Spectrum Setting ------------
Integration Time : 20ms
Average : 10
Boxcar : 0
Background removal :  enabled
linearity correction :  enabled
SC :  disabled
Intensity correction :  disabled
DWT denoise :  enabled
savitzky-golay :  disabled
FFT :  disabled
Running average :  disabled
Kalman :  disabled
High pass :  disabled
---------------BEGIN--------------------
Wavelength(nm)             Reflectance(%)
200.29               0
200.75       -1.398582
201.21        31.79485
201.67          48.548
202.13        50.81417
202.58        43.26376
203.04        28.51673
203.50        10.40071
203.96        1.227675
204.42        6.680708
204.88        21.40045
205.34        37.62878
205.80         45.2259
206.26        41.27484
206.72        27.94674
207.18        6.214518
207.64       -18.06301
208.10       -36.89262
208.55       -50.41497
209.01       -46.28341
209.47       -17.08131
209.93        13.46908
210.39        35.70443
210.85        49.30656
211.31        55.51172
211.77        56.76566
212.23        53.97341
212.69        44.41839
213.14        22.55998
213.60       -25.31565
214.06       -175.4245
214.52       -543.5284
214.98       -248.8195
215.44       -56.85587
215.90        9.200984
216.36        31.44738
216.81        34.00726
217.27        20.63783
217.73       -51.04588
218.19        820.5919
218.65        360.3328
219.11       -755.8688
219.57       -21.62707
220.02        24.84647
220.48        32.13346
220.94        25.70286
221.40        3.342164
221.86       -49.43951
222.32       -82.95097
222.77        -34.8483
223.23        6.780667
223.69        27.50853
224.15        34.00531
224.61        33.02814
225.06        28.54285
225.52        22.01004
225.98        15.37202
226.44        9.830029
226.90        3.651031
227.36       0.3619669
227.81        5.797905
228.27        16.00411
228.73         26.3909
229.19        32.80312
229.65        32.87382
230.10        27.43645
230.56        17.83763
231.02         5.82238
231.48       -1.483121
231.93       0.5721944
232.39        8.870382
232.85        17.78824
233.31          22.748
233.77         24.0298
234.22        23.66175
234.68        22.09444
235.14        20.07111
235.60        18.39326
236.05        15.92175
236.51        13.18905
236.97        17.85748
237.43        30.38997
237.88        39.51366
238.34        41.17366
238.80        63.95698
239.26         55.6915
239.71        54.01323
240.17        45.92785
240.63        38.22457
241.08        35.85192
241.54        41.62685
242.00        54.10709
242.46        62.14523
242.91        62.89923
243.37        56.89772
243.83        46.29271
244.28        40.50847
244.74        44.94838
245.20        54.50677
245.66        62.58299
246.11        62.60655
246.57        54.02098
247.03          39.333
247.48        20.79771
247.94        1.912227
248.40       -19.28916
248.85       -60.76651
249.31       -168.7197
249.77        -210.703
250.22       -30.82154
250.68        32.26686
251.14        50.46836
251.59          55.671
252.05          56.368
252.51        53.78753
252.96        48.39207
253.42        44.72083
253.88        46.17497
254.33        51.35768
254.79        58.18949
255.25        63.14459
255.70        65.73711
256.16         67.2905
256.62        68.55859
257.07        70.06846
257.53        71.97784
257.99        73.54242
258.44        73.84953
258.90        72.88876
259.35        70.46847
259.81        67.69896
260.27        64.97456
260.72        62.82792
261.18        61.61603
261.63        60.69175
262.09        59.96887
262.55        58.89603
263.00        57.37197
263.46        55.79147
263.91        54.19033
264.37        53.07194
264.83        52.36756
265.28        51.85756
265.74         51.4424
266.19        50.77108
266.65        49.85565
267.11         48.7298
267.56        47.47037
268.02        46.29342
268.47        45.19712
268.93        44.16594
269.38        43.08584
269.84        41.85112
270.30        40.45202
270.75        38.96858
271.21        37.56692
271.66        36.42052
272.12        35.59507
272.57        34.99227
273.03        34.53904
273.48        34.07606
273.94        33.57808
274.39        33.06193
274.85        32.53913
275.31         31.9578
275.76        31.31987
276.22          30.663
276.67        30.06588
277.13          29.734
277.58        29.62222
278.04         29.6706
278.49        29.67382
278.95        29.42859
279.40        28.86091
279.86        28.10433
280.31        27.23966
280.77        26.47392
281.22        25.83747
281.68         25.3433
282.13        24.93425
282.59        24.60454
283.04        24.31666
283.50        24.09864
283.95        23.97513
284.41         24.0057
284.86        24.16941
285.32         24.4477
285.77         24.7158
286.22         24.8191
286.68        24.76091
287.13        24.55676
287.59        24.39312
288.04        24.44642
288.50        24.72152
288.95        25.25583
289.41        25.93643
289.86        26.11905
290.32        25.69849
290.77        26.61777
291.22        25.82262
291.68        25.99074
292.13        26.25409
292.59        26.68157
293.04        27.29084
293.50          28.181
293.95        29.36922
294.40         30.8001
294.86         32.3936
295.31        34.00205
295.77        35.57269
296.22        37.11563
296.68        38.65526
297.13        40.23264
297.58        41.88412
298.04        43.59531
298.49        45.39019
298.95         47.3296
299.40        49.39304
299.85        51.57471
300.31        53.79533
300.76        55.89654
301.21        57.86573
301.67        59.77213
302.12        61.69472
302.58        63.87854
303.03        66.32105
303.48        68.98262
303.94        71.74059
304.39        74.34137
304.84        76.72457
305.30          78.971
305.75        81.09966
306.20        83.26971
306.66        85.51861
307.11        87.72955
307.57        89.89007
308.02        91.88881
308.47          93.741
308.93         95.5275
309.38        97.21619
309.83        98.84901
310.29        100.4527
310.74        101.9722
311.19        103.4584
311.65        104.9734
312.10        106.4975
312.55        108.0205
313.00        109.4439
313.46        110.6149
313.91        111.4905
314.36        112.1316
314.82        112.6801
315.27        113.3461
315.72         114.191
316.18        115.1514
316.63        116.1119
317.08        116.8837
317.53        117.4111
317.99        117.7522
318.44        117.9897
318.89        118.2358
319.35        118.5317
319.80        118.8598
320.25        119.1891
320.70        119.4788
321.16        119.7096
321.61         119.918
322.06          120.14
322.51        120.4366
322.97        120.7963
323.42        121.2335
323.87        121.6591
324.32        121.9509
324.78        122.0611
325.23         122.073
325.68        122.0551
326.13        122.1567
326.59        122.3927
327.04        122.7845
327.49        123.2435
327.94        123.6581
328.39        123.9898
328.85        124.2336
329.30        124.4973
329.75        124.8047
330.20        125.1708
330.66        125.5271
331.11        125.9188
331.56        126.2673
332.01        126.5614
332.46         126.821
332.92        127.0174
333.37         127.267
333.82        127.5392
334.27        127.8365
334.72        128.1735
335.17        128.5709
335.63        128.9985
336.08        129.5221
336.53        130.0965
336.98        130.7012
337.43        131.3159
337.88        131.9225
338.34        132.4779
338.79        132.9922
339.24        133.4264
339.69        133.7867
340.14        134.0713
340.59        134.2845
341.05        134.4469
341.50        134.5853
341.95         134.752
342.40        135.0317
342.85        135.4401
343.30        135.9475
343.75        136.4955
344.20        136.9902
344.66        137.4044
345.11        137.7358
345.56        137.9906
346.01        138.1875
346.46        138.3491
346.91        138.4346
347.36        138.4494
347.81        138.5294
348.26        138.7035
348.72         138.501
349.17        138.7263
349.62        138.7242
350.07        138.7378
350.52        138.7498
350.97        138.7324
351.42        138.6271
351.87         138.414
352.32        138.1056
352.77        137.7567
353.22        137.4512
353.67        137.1996
354.13        136.9947
354.58        136.7225
355.03        136.2582
355.48        135.5891
355.93        134.7702
356.38        133.9281
356.83        133.2503
357.28        132.7627
357.73        132.3898
358.18        132.0139
358.63        131.4509
359.08        130.6576
359.53        129.7103
359.98        128.6735
360.43        127.6359
360.88        126.6362
361.33        125.6502
361.78        124.7063
362.23        123.8555
362.68        123.0983
363.13        122.4188
363.58        121.7528
364.03         120.989
364.48        120.0959
364.93        119.1016
365.38         118.043
365.83        116.9918
366.28        115.9759
366.73        114.9713
367.18        113.9925
367.63        113.0634
368.08        112.1866
368.53        111.3747
368.98        110.5675
369.43        109.6488
369.88        108.5974
370.33        107.4414
370.78        106.2868
371.23        105.3405
371.68        104.6606
372.13        104.1767
372.58        103.7847
373.03        103.3058
373.48        102.6732
373.93        101.9395
374.38        101.1116
374.83        100.2166
375.28        99.30102
375.72        98.35137
376.17        97.48335
376.62        96.77614
377.07        96.22549
377.52        95.79099
377.97        95.40108
378.42        94.94357
378.87        94.39482
379.32        93.79875
379.77        93.17471
380.22        92.53775
380.67        91.88642
381.11        91.20692
381.56        90.52224
382.01        89.90911
382.46        89.39574
382.91        88.97733
383.36        88.58749
383.81        88.11304
384.26        87.52978
384.71        86.87017
385.15         86.2011
385.60        85.69525
386.05        85.35591
386.50        85.13501
386.95         84.9358
387.40        84.61749
387.85        84.15745
388.29         83.5575
388.74        83.01308
389.19        82.57048
389.64        82.23971
390.09        81.98629
390.54        81.74048
390.98        81.38116
391.43        80.93161
391.88        80.42058
392.33        79.94577
392.78        79.59412
393.23        79.37091
393.67        79.32933
394.12        79.41719
394.57        79.08209
395.02        78.42313
395.47        78.16019
395.91        78.29425
396.36        78.18111
396.81        77.81969
397.26        77.61745
397.71        77.52072
398.15        77.22939
398.60         76.8294
399.05        76.34211
399.50        75.90103
399.95        75.70892
400.39          75.771
400.84        75.94733
401.29        76.10992
401.74        75.94772
402.18        75.50024
402.63        75.18651
403.08        75.01923
403.53        74.67793
403.97        74.18048
404.42        73.76202
404.87        73.47304
405.32        73.29539
405.76        73.22294
406.21        73.30331
406.66        73.42028
407.11        73.34686
407.55         73.0908
408.00        72.75753
408.45         72.4595
408.90         72.2855
409.34        72.24416
409.79         72.2813
410.24        72.31683
410.68        72.29019
411.13        72.17765
411.58        71.96436
412.03        71.72831
412.47        71.65379
412.92        71.74685
413.37        71.95473
413.81        72.16006
414.26        72.25263
414.71        72.18291
415.15        72.00828
415.60        71.76548
416.05        71.58457
416.49        71.51109
416.94        71.50194
417.39        71.51778
417.83        71.48957
418.28        71.40169
418.73        71.27271
419.17        71.13028
419.62        71.02657
420.07        70.97301
420.51        70.94292
420.96        70.92984
421.41        70.87605
421.85        70.75276
422.30        70.62164
422.74        70.48702
423.19         70.4974
423.64        70.62148
424.08        70.76326
424.53        70.85272
424.98        70.97307
425.42        71.11715
425.87        71.22734
426.31        71.29852
426.76         71.2774
427.21        71.20473
427.65         71.2961
428.10         71.4597
428.54        71.45911
428.99        71.32949
429.44        71.10262
429.88        70.86194
430.33         70.9429
430.77        71.17564
431.22        71.26466
431.66        71.16438
432.11        71.00353
432.56         70.9155
433.00        70.92649
433.45        70.81409
433.89        70.93137
434.34        71.46344
434.78        70.28127
435.23        70.53773
435.67        71.97499
436.12        71.89243
436.57         72.0394
437.01        71.49183
437.46        71.26687
437.90        72.21827
438.35        71.46104
438.79        72.06202
439.24         72.1073
439.68        72.37249
440.13        72.29616
440.57        71.95779
441.02        72.00656
441.46        72.34243
441.91        72.31197
442.35        71.94447
442.80         72.1322
443.24        72.75748
443.69        72.98972
444.13          72.713
444.58        72.94052
445.02        72.53925
445.47        72.66327
445.91        72.91158
446.36        72.95966
446.80        72.76801
447.24        72.67439
447.69        72.75291
448.13        72.58791
448.58        72.66864
449.02        72.76659
449.47        72.96858
449.91        73.07399
450.36         73.0824
450.80        72.98572
451.25        72.84807
451.69        72.84621
452.13        72.94137
452.58        72.79064
453.02        72.42945
453.47         72.2373
453.91        72.21604
454.36        72.16686
454.80        72.06225
455.24        71.94447
455.69        71.82359
456.13        71.70078
456.58        71.57223
457.02        71.39823
457.46        70.88346
457.91        70.80507
458.35        71.09105
458.79        71.11222
459.24        70.90739
459.68        70.75896
460.13        70.72256
460.57        70.63281
461.01        70.50722
461.46        70.53887
461.90        70.22692
462.34        70.41803
462.79        70.08913
463.23        70.13718
463.68        70.22266
464.12        69.82484
464.56        69.13547
465.01        69.30341
465.45        70.04994
465.89         70.0519
466.34        69.40759
466.78         69.1875
467.22         69.4765
467.67        69.31137
468.11        69.38081
468.55        69.14751
468.99        68.89211
469.44        68.76678
469.88        68.79154
470.32        68.81904
470.77        68.79837
471.21        68.74202
471.65        68.63622
472.10        68.48891
472.54        68.31123
472.98         68.1571
473.42        68.04528
473.87        67.94563
474.31        67.84201
474.75        67.88409
475.20        68.01899
475.64        68.02118
476.08        67.89121
476.52        67.83579
476.97        67.84818
477.41         67.8267
477.85         67.7533
478.29        67.69926
478.74         67.6317
479.18        67.58378
479.62        67.77004
480.06        67.81529
480.50        67.82504
480.95        67.69151
481.39        67.35224
481.83        67.85481
482.27        67.82677
482.72        67.57127
483.16        67.78566
483.60        68.16217
484.04        68.12059
484.48        67.83186
484.93        67.88988
485.37        67.36171
485.81         68.3419
486.25         67.5466
486.69        68.68153
487.14        68.97314
487.58        68.19987
488.02        67.55199
488.46        67.52232
488.90        67.28208
489.34        67.66955
489.79        67.19492
490.23         67.4321
490.67        67.33857
491.11        67.33279
491.55        67.25386
491.99        67.14449
492.43        67.11761
492.88        67.17171
493.32        67.31317
493.76        67.43636
494.20         67.4961
494.64        67.50438
495.08        67.10822
495.52        66.86241
495.96        66.97015
496.41        67.41301
496.85        67.24107
497.29        66.55409
497.73        66.57923
498.17        66.93344
498.61        67.23031
499.05        67.23486
499.49        67.04505
499.93        66.76283
500.37        66.66444
500.82        66.81402
501.26        66.77332
501.70         67.3849
502.14        66.96809
502.58        66.46964
503.02        66.18484
503.46        66.26964
503.90        66.32339
504.34        66.27382
504.78        66.27818
505.22        66.34135
505.66        66.34268
506.10        66.28964
506.54        66.42602
506.98        66.79472
507.42        66.36658
507.86        67.03751
508.30        66.77876
508.74        66.81743
509.18         66.6514
509.62        66.57281
510.06        66.27933
510.50        66.44793
510.94        66.43504
511.38        66.40373
511.82        66.36572
512.26        66.31403
512.70        66.20667
513.14        66.05399
513.58        65.98465
514.02        66.02448
514.46        66.01083
514.90        65.86594
515.34        66.21543
515.78         65.9099
516.22        65.87417
516.66        65.64709
517.10        65.85661
517.54        65.72614
517.98        65.84881
518.42        65.97865
518.86        66.08166
519.30        66.14108
519.74        66.12813
520.18        66.07902
520.62        66.13667
521.06        66.26154
521.50        66.20468
521.93        65.99007
522.37        65.86874
522.81        65.86202
523.25        65.83833
523.69        65.79025
524.13        65.76402
524.57        65.75845
525.01        65.76016
525.45        65.77731
525.89        65.82237
526.32         65.8887
526.76        65.97191
527.20        66.04565
527.64        66.07229
528.08         66.0441
528.52        65.97781
528.96        65.89274
529.40        65.81151
529.83        65.74242
530.27        65.71036
530.71        65.70124
531.15        65.68937
531.59        65.66978
532.03        65.65599
532.46        65.63976
532.90        65.62131
533.34         65.5956
533.78        65.56326
534.22        65.52666
534.66        65.49131
535.09        65.44949
535.53        65.42103
535.97        65.39433
536.41        65.36905
536.85        65.34541
537.28        65.32537
537.72        65.30971
538.16        65.30054
538.60        65.29736
539.04        65.30027
539.47        65.29425
539.91        65.31168
540.35        65.33599
540.79        65.36533
541.22        65.39054
541.66        65.41249
542.10        65.42378
542.54        65.42161
542.97        65.40454
543.41        65.40527
543.85        65.42388
544.29        65.46603
544.72        65.49971
545.16         65.5339
545.60        65.55518
546.04        65.48465
546.47        65.38338
546.91        65.51656
547.35        65.79962
547.79        65.85403
548.22        65.65424
548.66        65.44487
549.10        65.29632
549.53        65.24036
549.97        65.27446
550.41        65.25978
550.84         65.1934
551.28        65.17835
551.72        65.21377
552.15        65.26272
552.59        65.32122
553.03         65.2742
553.46        65.44577
553.90        65.36605
554.34        65.07689
554.77        65.43413
555.21         65.0804
555.65        65.05762
556.08        65.23501
556.52        65.38673
556.96        65.52262
557.39          65.617
557.83        65.65057
558.27        65.47844
558.70        65.18509
559.14        65.04068
559.57        65.06487
560.01        65.20436
560.45        65.35728
560.88        65.34278
561.32        65.22568
561.75        65.10685
562.19        65.07364
562.63        65.21304
563.06        65.44588
563.50        65.42384
563.93        65.17352
564.37        65.12971
564.80        65.26374
565.24        65.32942
565.68        65.30031
566.11        65.26801
566.55        65.24988
566.98        65.22723
567.42        65.21709
567.85        65.14136
568.29        65.10288
568.72        65.20051
569.16        65.39591
569.60        65.73765
570.03        65.61615
570.47         65.6222
570.90        65.56506
571.34        65.65754
571.77        65.93291
572.21        65.61258
572.64        65.76234
573.08        65.51359
573.51        66.03535
573.95        66.33531
574.38         66.1759
574.82        66.58015
575.25         66.4725
575.69        66.30507
576.12        65.87388
576.56        65.83607
576.99        66.34091
577.42        66.22941
577.86        66.07822
578.29        66.79562
578.73        66.99043
579.16        66.54466
579.60        66.03342
580.03        66.15408
580.47        66.30105
580.90        66.10949
581.33         66.4251
581.77        66.60007
582.20        66.68292
582.64        67.06082
583.07        66.54556
583.51        66.26816
583.94         66.0622
584.37        65.80795
584.81        65.50716
585.24        65.40247
585.68        65.83468
586.11        66.02747
586.54         66.1741
586.98         66.0718
587.41        65.79897
587.85        66.41479
588.28        66.52026
588.71        66.61612
589.15        66.57906
589.58        65.99279
590.01        65.77083
590.45        65.72037
590.88        65.96794
591.31        65.58981
591.75        65.33987
592.18        65.31749
592.61        65.70734
593.05        65.92297
593.48        65.93642
593.91        66.16814
594.35        66.05233
594.78        66.24406
595.21        65.77864
595.65        65.84326
596.08          66.087
596.51        66.24658
596.94        65.75321
597.38        65.62096
597.81        65.76814
598.24        65.67911
598.68        65.81113
599.11        65.59631
599.54        65.85928
599.97        65.74959
600.41        65.88564
600.84        66.06961
601.27        65.94146
601.70        66.05878
602.14        65.62283
602.57        65.49362
603.00        65.78378
603.43         65.7542
603.87        66.11488
604.30        65.84303
604.73        65.69427
605.16         65.5619
605.60        65.84443
606.03        65.79484
606.46         65.8741
606.89        65.49523
607.32         65.5242
607.76        66.12593
608.19        66.00329
608.62        65.62765
609.05        66.42429
609.48        65.90007
609.92         65.7971
610.35        65.62026
610.78        66.03455
611.21        65.86126
611.64        65.81735
612.07        65.66151
612.50        65.61423
612.94        65.57333
613.37         65.5657
613.80        65.65642
614.23        65.78497
614.66        65.71228
615.09        65.49543
615.52        65.51599
615.96        65.73354
616.39        65.76824
616.82        65.59729
617.25        65.45763
617.68        65.35852
618.11        65.25731
618.54        65.30721
618.97        65.35178
619.40        65.42108
619.84        65.07006
620.27        65.03603
620.70        64.94823
621.13        65.03583
621.56        65.10635
621.99        65.14584
622.42        65.37586
622.85        65.73613
623.28        65.50768
623.71        65.56108
624.14        65.64507
624.57        65.58221
625.00        65.71466
625.43        65.32817
625.86        65.27794
626.29        65.39121
626.72        65.21671
627.15        65.23227
627.58        65.22881
628.01        65.36713
628.44        65.22451
628.87        65.15382
629.30        65.39232
629.73        65.13463
630.16        65.17591
630.59        65.12665
631.02        65.38808
631.45        65.02953
631.88        65.03443
632.31        65.16562
632.74        64.97563
633.17        65.10314
633.60        65.00782
634.03        64.89262
634.46        64.79286
634.89        64.65387
635.32        64.63301
635.75        64.70274
636.18        64.85114
636.61        65.00816
637.04        65.06251
637.47        64.99036
637.89        64.83155
638.32        64.64387
638.75        64.54514
639.18        64.56656
639.61        64.68907
640.04        64.83105
640.47         64.9183
640.90        64.91628
641.33        64.85008
641.76        64.76781
642.18        64.75401
642.61        64.81172
643.04        64.92037
643.47        65.02193
643.90        65.02915
644.33        64.92583
644.76        64.73663
645.18        64.53172
645.61        64.43719
646.04        64.47029
646.47        64.54704
646.90        64.63026
647.33        64.70631
647.75        64.74012
648.18         64.7347
648.61         64.7291
649.04         64.7048
649.47        64.63752
649.89        64.91919
650.32        64.81139
650.75        64.74445
651.18        64.56783
651.61        64.55145
652.03        64.69815
652.46        64.78867
652.89        64.79714
653.32        64.78413
653.74        64.78628
654.17        64.64042
654.60        64.65392
655.03        64.64503
655.46        64.29349
655.88        65.14778
656.31        66.06863
656.74        69.88925
657.16        68.90367
657.59        67.32837
658.02         65.2528
658.45        65.37282
658.87        65.17625
659.30        65.50039
659.73        64.78938
660.15        64.43037
660.58        64.73457
661.01        65.03295
661.44        65.31907
661.86         65.2478
662.29        64.87383
662.72        64.65578
663.14        64.67509
663.57        64.73692
664.00         64.8065
664.42        64.87036
664.85        64.92389
665.27        64.88795
665.70        64.97488
666.13        64.99644
666.55        65.01818
666.98        65.03284
667.41        65.03177
667.83        65.00988
668.26        64.97955
668.69        64.88957
669.11        64.75128
669.54        64.80955
669.96        65.12295
670.39        64.75855
670.82        65.24435
671.24        65.26196
671.67         65.2468
672.09        65.20361
672.52        65.17813
672.94        65.10072
673.37        65.00459
673.80         65.0209
674.22        65.13354
674.65        65.16132
675.07        65.10875
675.50        65.05409
675.92        65.02286
676.35         64.9992
676.77        64.99093
677.20        65.01708
677.62        65.08464
678.05        65.13156
678.47        65.13886
678.90        65.35408
679.32        65.33706
679.75        65.45729
680.17        65.57703
680.60        65.69946
681.02        65.78409
681.45        65.77897
681.87        65.68837
682.30        65.48805
682.72        65.26199
683.15        65.18534
683.57        65.23302
684.00         65.3057
684.42        65.09013
684.85        65.07912
685.27        65.16681
685.70        65.23645
686.12         65.2561
686.54        65.27535
686.97        65.28371
687.39        65.29433
687.82        65.31624
688.24        65.33666
688.66        65.33445
689.09        65.57407
689.51        65.54861
689.94        65.66145
690.36        65.74306
690.78        65.77759
691.21        65.76775
691.63        65.68309
692.06        65.57126
692.48        65.62763
692.90        65.68102
693.33        65.71349
693.75        65.68173
694.17        65.62346
694.60        65.53381
695.02        65.61167
695.44        65.55981
695.87        65.44518
696.29        65.27566
696.71         65.2296
697.14        65.33899
697.56        65.71748
697.98        66.23885
698.41        66.23476
698.83        66.32746
699.25        66.10736
699.68        65.85173
700.10        65.65541
700.52        65.56644
700.94        65.54992
701.37        65.55857
701.79        65.57651
702.21        65.56846
702.64        65.56335
703.06        65.56157
703.48        65.56404
703.90        65.57647
704.33        65.58707
704.75        65.60771
705.17        65.64245
705.59        65.69144
706.01        65.74973
706.44        65.81633
706.86         65.9027
707.28        65.99133
707.70        66.09388
708.12        66.19804
708.55        66.23807
708.97        66.21859
709.39        66.23967
709.81         66.2925
710.23        66.28971
710.66        66.23163
711.08         66.1851
711.50        66.14796
711.92        66.10858
712.34        66.07275
712.76        66.04597
713.19        66.02802
713.61        66.06558
714.03        66.13583
714.45        66.24014
714.87        66.36152
715.29        66.42957
715.71        66.42577
716.13        66.53694
716.56        66.44211
716.98        66.44855
717.40        66.45523
717.82        66.46368
718.24        66.47356
718.66        66.49043
719.08        66.51691
719.50        66.54967
719.92        66.58687
720.34        66.62095
720.76        66.65044
721.19        66.67205
721.61         66.6986
722.03        66.72008
722.45        66.73898
722.87        66.75657
723.29        66.79084
723.71        66.87065
724.13        66.99274
724.55        67.14706
724.97        67.32683
725.39        67.41227
725.81        67.36724
726.23        67.41725
726.65        67.61888
727.07        67.00324
727.49        67.28043
727.91        67.08156
728.33        66.94306
728.75        66.90588
729.17        66.97903
729.59        67.06442
730.01        67.13109
730.43        67.22742
730.85        67.33611
731.27        67.41875
731.69        67.48009
732.10        67.47609
732.52        67.62441
732.94        67.52608
733.36        67.30513
733.78        67.24623
734.20        67.39244
734.62        67.43851
735.04        67.63388
735.46        67.71123
735.88        67.74728
736.30        67.68773
736.72        67.58075
737.13         67.6689
737.55        67.86575
737.97        67.81564
738.39        67.56129
738.81        67.52463
739.23        67.69697
739.65        67.74248
740.06        67.61112
740.48        67.55103
740.90        67.53058
741.32        67.45551
741.74        67.37102
742.16        67.39946
742.57         67.5659
742.99        67.81257
743.41        68.06725
743.83        68.19489
744.25        68.16446
744.67          68.008
745.08        67.82616
745.50        67.74592
745.92         67.8176
746.34        67.99778
746.75        68.19296
747.17         68.2491
747.59         68.1416
748.01        67.89629
748.42        67.61982
748.84        67.54947
749.26        67.69773
749.68        67.81612
750.09        67.86477
750.51         68.0011
750.93        68.16922
751.35        68.16329
751.76        68.01684
752.18        67.93449
752.60        67.93742
753.01        67.93436
753.43        67.89008
753.85        67.84274
754.27        67.79134
754.68        67.73022
755.10        67.68346
755.52        67.66002
755.93        67.66773
756.35        67.72077
756.77        67.80971
757.18        67.88538
757.60        67.94254
758.02        67.98501
758.43        68.07085
758.85        67.98181
759.26         68.7248
759.68        68.56962
760.10        68.38602
760.51        68.23943
760.93        68.44834
761.34        67.91467
761.76        67.92144
762.18          67.968
762.59        68.27028
763.01        68.47538
763.42        67.73438
763.84        67.85579
764.26        68.24642
764.67        68.77808
765.09        69.17134
765.50        69.17789
765.92        68.86842
766.33         68.5957
766.75         68.4344
767.16         68.3021
767.58        68.18787
768.00        68.36506
768.41        68.74519
768.83        68.74825
769.24        68.38213
769.66        68.48064
770.07        68.29404
770.49        68.42598
770.90        68.59212
771.32        68.57279
771.73        68.40977
772.15        68.41754
772.56        68.62654
772.97         68.8294
773.39          68.946
773.80        69.02426
774.22        69.01471
774.63        68.93408
775.05        68.80272
775.46         68.7091
775.88        68.65601
776.29        68.65166
776.70        68.66404
777.12        68.65105
777.53        68.62153
777.95        68.58481
778.36         68.5567
778.77        68.55013
779.19        68.57572
779.60        68.63799
780.02        68.72865
780.43        68.88313
780.84         69.1011
781.26        69.26476
781.67        69.41173
782.09        69.73013
782.50        70.10149
782.91        70.12661
783.33        69.82761
783.74        69.69215
784.15        69.72726
784.57        69.69072
784.98        69.59527
785.39        69.55278
785.81        69.56783
786.22         69.6124
786.63        69.67275
787.04        69.72237
787.46        69.76723
787.87        69.79613
788.28        69.82275
788.70        69.85922
789.11        69.88588
789.52        69.89948
789.93        69.92208
790.35        69.98045
790.76        70.09444
791.17        70.26652
791.58        70.42713
792.00        70.46886
792.41        70.41446
792.82        70.20216
793.23        69.96806
793.65        70.13991
794.06        70.68389
794.47        71.03534
794.88        71.10021
795.29        71.37831
795.71         71.3862
796.12        71.35683
796.53        71.16446
796.94        70.92246
797.35        70.68641
797.76        70.55092
798.18        70.53132
798.59        70.51054
799.00        70.47861
799.41        70.52675
799.82        70.62437
800.23        70.67139
800.64        70.65102
801.06        70.56572
801.47        70.49033
801.88        70.47353
802.29        70.53352
802.70        70.64919
803.11        70.79042
803.52        70.90623
803.93           70.98
804.34        71.02591
804.75        71.06418
805.17        71.12157
805.58        71.23117
805.99        71.34743
806.40        71.45596
806.81        71.56129
807.22        71.63661
807.63        71.63129
808.04        71.56744
808.45        71.53384
808.86        71.54066
809.27         71.5338
809.68        71.52304
810.09        71.54384
810.50        71.59623
810.91         71.6805
811.32        71.74258
811.73        71.68974
812.14        71.51096
812.55        71.23536
812.96        70.96874
813.37        70.89156
813.78        71.04389
814.19        71.36546
814.60        71.73506
815.01        71.96703
815.42        72.01234
815.83        71.91987
816.24        71.75909
816.65         71.6637
817.05        71.68832
817.46        71.76017
817.87        71.86549
818.28        71.94118
818.69        71.97215
819.10        71.99017
819.51        72.01636
819.92        72.07738
820.33        72.17792
820.74        72.29154
821.14        72.40701
821.55        72.53642
821.96        72.66118
822.37        72.77811
822.78        72.85018
823.19        72.81512
823.60        72.66171
824.00        72.42535
824.41        72.12991
824.82        71.89502
825.23        71.75797
825.64        71.70752
826.04        71.72431
826.45        71.72503
826.86         71.7058
827.27        71.69746
827.68        71.72482
828.08        71.85208
828.49        72.01466
828.90        72.21987
829.31        72.46686
829.72        72.68674
830.12        72.86761
830.53        73.29596
830.94        73.33283
831.35        73.29078
831.75        73.00572
832.16        72.51461
832.57        72.00585
832.97        71.78356
833.38        71.91758
833.79        72.31222
834.20        72.81795
834.60         73.2054
835.01         73.4006
835.42        73.46159
835.82        73.43497
836.23        73.34881
836.64        73.25043
837.04        73.13817
837.45        72.99928
837.86        72.88554
838.26        72.82332
838.67        72.79848
839.08         72.8371
839.48        72.95326
839.89           73.13
840.29        73.36152
840.70        73.59195
841.11        73.73383
841.51        73.77908
841.92        73.70591
842.33        73.58227
842.73        73.52567
843.14        73.52114
843.54        73.57414
843.95         73.6283
844.35        73.61623
844.76        73.51705
845.17        73.37258
845.57        73.24828
845.98        73.20728
846.38         73.2983
846.79        73.46637
847.19        73.70306
847.60        73.91563
848.00        74.10757
848.41         74.2548
848.81        74.39722
849.22        74.52213
849.62        74.66564
850.03        74.77983
850.43        74.87307
850.84        74.85677
851.24        74.77526
851.65        74.58341
852.05        74.40005
852.46        74.32129
852.86        74.37359
853.27        74.55781
853.67         74.6969
854.07        74.69051
854.48        74.48548
854.88        74.15283
855.29        73.74464
855.69         73.5471
856.10        73.53779
856.50        73.73271
856.90        73.97633
857.31        74.05484
857.71        73.96935
858.12        73.73635
858.52        73.43826
858.92        73.13386
859.33        72.85021
859.73        72.61646
860.13         72.4631
860.54        72.44759
860.94        72.62968
861.34        72.94051
861.75        73.27003
862.15        73.50935
862.55        73.57355
862.96        73.48212
863.36        73.27383
863.76        72.96697
864.17        72.58815
864.57        72.16779
864.97        71.76204
865.38        71.45097
865.78        71.30712
866.18        71.31382
866.58        71.45364
866.99          71.649
867.39        71.89708
867.79        72.18414
868.19        72.46349
868.60        72.59007
869.00         72.6046
869.40        72.66797
869.80        72.75749
870.21        72.67933
870.61        72.49149
871.01        72.29719
871.41        72.09609
871.81        71.81015
872.22        71.45306
872.62         71.0537
873.02        70.73116
873.42        70.83486
873.82        71.24588
874.22         71.4772
874.63        71.57193
875.03         71.6631
875.43        71.73515
875.83        72.45273
876.23        71.78815
876.63        71.15311
877.03        70.39014
877.44         68.9461
877.84        154.7927
878.24        70.33295
878.64        71.13234
879.04        72.45023
879.44         72.8334
879.84        69.91582
880.24        73.25311
880.64        72.63041
881.04        69.88147
881.44        68.01832
881.84        67.71056
882.24        68.92905
882.65        70.80413
883.05        71.70202
883.45        71.27631
883.85        70.35178
884.25        69.42661
884.65        68.99837
885.05        69.24785
885.45        69.91719
885.85        70.70827
886.25        71.23326
886.65        71.38316
887.05        71.31641
887.45        71.09589
887.85         70.8068
888.25        70.51633
888.65        70.18063
889.04        69.93117
889.44        70.00027
889.84        70.40364
890.24        71.06516
890.64        71.75117
891.04        72.10878
891.44        72.07304
891.84         71.7508
892.24        71.31753
892.64        71.08618
893.04        71.15271
893.44        71.41106
893.83        71.77702
894.23        72.09829
894.63        72.33638
895.03        72.56062
895.43        72.74996
895.83        72.85599
896.23        72.88234
896.63        72.81501
897.02        72.74447
897.42        72.89164
897.82        73.24207
898.22        73.72717
898.62         74.1621
899.01        74.25409
899.41        73.91618
899.81        73.26531
900.21        72.47738
900.61        71.84254
901.00        71.45784
901.40        71.32666
901.80        71.38273
902.20        71.40584
902.59        71.33512
902.99        71.42999
903.39        71.83562
903.79        71.45498
904.18        72.36083
904.58        72.80334
904.98        73.19785
905.38        73.20876
905.77        72.79426
906.17        72.09741
906.57        71.32143
906.96        70.88789
907.36        70.90881
907.76        71.28871
908.15        71.90159
908.55        72.37144
908.95        72.62778
909.34        72.71197
909.74        72.74272
910.14        72.87183
910.53        73.12942
910.93         73.4379
911.33        73.64097
911.72        73.50786
912.12        73.02224
912.52          72.285
912.91        71.50497
913.31        71.08472
913.70         71.0898
914.10        71.40679
914.49        71.85929
914.89        72.04979
915.29        71.89909
915.68        71.51488
916.08        71.07733
916.47        70.81937
916.87        70.84459
917.26        71.07118
917.66        71.40269
918.05        71.71374
918.45        71.93089
918.84        72.08901
919.24        72.23831
919.64        72.51711
920.03        72.93845
920.42        73.42676
920.82        73.79971
921.21        73.79609
921.61        73.40345
922.00        72.78196
922.40        72.22076
922.79         72.0714
923.19        72.12908
923.58        72.94847
923.98        74.60545
924.37        74.98095
924.77        72.99125
925.16        78.87265
925.55        74.19419
925.95        74.32864
926.34        74.07432
926.74        73.29845
927.13        72.00351
927.52        71.14619
927.92         71.1527
928.31         71.5022
928.70        72.11138
929.10        72.77923
929.49        73.43844
929.89        74.15483
930.28        74.72812
930.67        74.69958
931.07         74.0266
931.46        72.76207
931.85        71.42872
932.24        71.28858
932.64        72.53723
933.03        74.29971
933.42        75.69845
933.82        77.88908
934.21        76.84183
934.60        75.76478
934.99        74.47585
935.39        73.87067
935.78          74.076
936.17        75.33238
936.56        80.00088
936.96        74.62308
937.35        77.66918
937.74        75.50365
938.13        74.11803
938.53        72.88909
938.92        72.25983
939.31        72.67991
939.70        73.44968
940.09        73.93848
940.49        73.96446
940.88         73.7868
941.27        73.54314
941.66        73.46719
942.05        73.64739
942.44        73.95638
942.84         74.2495
943.23        74.41457
943.62        74.40994
944.01        74.27383
944.40        74.15627
944.79         74.3009
945.18         74.7366
945.57        75.35826
945.97        75.89358
946.36        76.03397
946.75        75.66283
947.14        74.89211
947.53        73.95253
947.92        73.25206
948.31        72.94449
948.70        72.94036
949.09        73.09547
949.48        73.17287
949.87         73.1028
950.26        72.95982
950.65        72.84132
951.04        72.89014
951.43        73.13723
951.82         73.5207
952.21        73.90217
952.60         74.0711
952.99        73.96824
953.38        73.64658
953.77        73.28534
954.16        73.13873
954.55        73.26583
954.94        73.63101
955.33        74.02491
955.72        74.07101
956.11        73.67674
956.50         72.9381
956.89         72.2178
957.28        72.08611
957.66        72.67508
958.05        73.73601
958.44         74.7978
958.83        75.14923
959.22        74.62649
959.61        73.38129
960.00        71.89477
960.39        71.10983
960.78        71.32277
961.16        72.28104
961.55        73.30431
961.94        73.53986
962.33        72.83143
962.72        71.41194
963.11         69.8467
963.49        69.28808
963.88        70.06365
964.27        71.72033
964.66        73.51189
965.04        74.44753
965.43        74.25874
965.82        73.29955
966.21        71.94512
966.60        70.86361
966.98        70.32915
967.37        70.13532
967.76        70.17522
968.15        70.27196
968.53        70.36625
968.92         70.5401
969.31        70.76067
969.69        70.91963
970.08        70.95901
970.47        70.85202
970.86        70.70926
971.24        70.76414
971.63        71.03736
972.02        71.46931
972.40        71.86885
972.79        71.86572
973.17        71.46297
973.56        70.78156
973.95        70.11441
974.33         69.9677
974.72        70.47332
975.11        71.46321
975.49        72.73987
975.88        73.89351
976.26        74.83114
976.65        75.54942
977.04        76.06362
977.42        76.39437
977.81        76.51537
978.19        76.35615
978.58        76.13625
978.96        76.18802
979.35        76.54323
979.74         77.1181
980.12        77.62569
980.51        77.47551
980.89        76.70156
981.28        75.36853
981.66        73.82793
982.05         72.9924
982.43         73.2028
982.82        74.20267
983.20        75.52043
983.59        76.39182
983.97        76.63891
984.35        76.43562
984.74        75.85605
985.12        75.15578
985.51         74.4683
985.89        73.83531
986.28        73.33624
986.66        73.13243
987.04        73.28559
987.43        73.67307
987.81        74.11192
988.20        75.38972
988.58        77.44071
988.96        78.13451
989.35        76.85855
989.73        81.15949
990.12        78.04798
990.50        77.54614
990.88        76.33473
991.27        75.30711
991.65        74.59999
992.03        74.31222
992.42        74.46006
992.80        74.52369
993.18        74.38692
993.56        74.23084
993.95        74.15742
994.33        74.28918
994.71        74.65877
995.10        75.14235
995.48        75.68622
995.86        76.21828
996.24         76.6847
996.63        77.02999
997.01        77.29942
997.39        77.36863
997.77        77.21685
998.15        76.86562
998.54        76.45384
998.92         76.0976
999.30        75.88696
999.68        75.85398
1000.06        75.88067
1000.45        75.68305
1000.83        75.32267
1001.21         74.8707
1001.59        74.64483
1001.97        75.09267
1002.35        76.16745
1002.73        77.56513
1003.12        78.90015
1003.50        79.74998
1003.88        80.03171
1004.26        79.90083
1004.64        79.41898
1005.02         78.7436
1005.40        78.00296
1005.78        77.15958
1006.16        76.43781
1006.54        76.16755
1006.92        76.42465
1007.30        77.21497
1007.69         78.1415
1008.07         78.6878
1008.45        78.72417
1008.83        78.33539
1009.21        77.97702
1009.59        78.55872
1009.97        80.12041
1010.35        82.06167
1010.73        83.72514
1011.11        84.61394
1011.49        84.78874
1011.86        84.28664
1012.24        82.99128
1012.62        83.28683
1013.00        83.26539
1013.38        82.62524
1013.76        80.37963
1014.14        83.80061
1014.52        89.13937
1014.90        84.22346
1015.28        86.28867
1015.66        87.69933
1016.04        84.84782
1016.41        83.77339
1016.79        81.72761
1017.17        80.88156
1017.55        80.99496
1017.93         81.9978
1018.31        83.60184
1018.69        84.77032
1019.06        85.22469
1019.44        85.24254
1019.82        84.88338
1020.20        84.11333
1020.58        82.93941
1020.95        81.11584
1021.33        79.11631
1021.71        78.37708
1022.09        79.53216
1022.46        81.87646
1022.84        84.22359
1023.22        85.74814
1023.60        86.52634
1023.97        86.85706
1024.35        86.97379
1024.73        87.28661
