SpectraSmart Spectrum 2.9.0.0
--------- Device Information -----------
Spectrum Name :  反射率_0
Saving Time :  2024/04/21 00:51:50
Spectro-Module Model Name : SE2030-DUVN
Spectro-Module Serial Number : OS361AC55029948
Wavelength Start : 200
Wavelength End : 1025
Wavelength Unit : Wavelength(nm)
Spectrum Unit : Reflectance(%)
-----------Spectrum Setting ------------
Integration Time : 20ms
Average : 10
Boxcar : 0
Background removal :  enabled
linearity correction :  enabled
SC :  disabled
Intensity correction :  disabled
DWT denoise :  enabled
savitzky-golay :  disabled
FFT :  disabled
Running average :  disabled
Kalman :  disabled
High pass :  disabled
---------------BEGIN--------------------
Wavelength(nm)             Reflectance(%)
200.29               0
200.75       -74.11027
201.21       -12.45715
201.67        22.90178
202.13        37.68411
202.58        40.94049
203.04        38.06754
203.50        30.49913
203.96        22.33518
204.42        16.36567
204.88        10.39882
205.34        5.263651
205.80        1.473632
206.26       -1.170271
206.72       0.8961494
207.18        2.906395
207.64       -8.135493
208.10       -34.06853
208.55       -70.04688
209.01       -87.72446
209.47       -56.89337
209.93       -11.87346
210.39        23.95327
210.85         46.6393
211.31        56.57582
211.77        57.54265
212.23        51.49643
212.69         35.0181
213.14        3.696762
213.60       -52.00662
214.06       -210.2366
214.52       -550.1006
214.98        -210.478
215.44        -24.1001
215.90        35.13689
216.36        53.63138
216.81         53.9502
217.27        38.09558
217.73       -40.98259
218.19        929.7336
218.65        437.9175
219.11       -1000.729
219.57       -45.56131
220.02        16.90958
220.48        29.11037
220.94        25.47642
221.40        6.637052
221.86       -38.80046
222.32       -63.64447
222.77       -17.38986
223.23        19.88254
223.69        37.47578
224.15        42.01739
224.61        39.51857
225.06        33.41929
225.52        25.47647
225.98        18.26485
226.44        13.29171
226.90        8.973198
227.36        8.066832
227.81        14.47632
228.27        24.10659
228.73        33.18542
229.19        38.78735
229.65        39.40777
230.10        35.85276
230.56        29.44482
231.02        20.97302
231.48        14.32084
231.93        13.00024
232.39        16.04966
232.85        20.54608
233.31         23.7639
233.77        25.71331
234.22        27.64708
234.68        29.36449
235.14        30.28022
235.60        30.47275
236.05        29.27545
236.51        27.19245
236.97        30.84811
237.43        40.85429
237.88        47.55614
238.34        47.31453
238.80        66.67515
239.26        58.21205
239.71        56.55613
240.17        49.38522
240.63        41.92854
241.08        37.84324
241.54        39.89099
242.00        47.78203
242.46        51.75318
242.91        49.06014
243.37        39.94458
243.83        27.18549
244.28         22.0687
244.74         30.2505
245.20        44.93943
245.66        57.40657
246.11        59.24923
246.57        49.79864
247.03        31.78546
247.48        7.904468
247.94       -17.83343
248.40       -49.33244
248.85       -115.0962
249.31       -305.5206
249.77        -457.605
250.22       -169.1058
250.68       -46.96118
251.14       -7.027566
251.59        4.740365
252.05        5.489413
252.51       0.3722854
252.96       -9.205172
253.42       -14.37551
253.88       -8.228765
254.33        5.047535
254.79        22.25537
255.25        39.12563
255.70        51.98165
256.16        60.73671
256.62        65.97623
257.07        68.23255
257.53        69.00655
257.99        68.91372
258.44        67.82297
258.90        66.32752
259.35        64.22134
259.81        62.11898
260.27        60.42957
260.72        59.68365
261.18        59.95223
261.63        60.45605
262.09        60.78216
262.55        60.07203
263.00        58.35452
263.46        56.26259
263.91          54.138
264.37        52.89083
264.83        52.47438
265.28        52.47013
265.74        52.61529
266.19        52.34801
266.65        51.64658
267.11        50.65499
267.56        49.44829
268.02        48.22794
268.47        47.02585
268.93        45.82691
269.38        44.66528
269.84        43.67936
270.30        42.86939
270.75        42.20642
271.21        41.62844
271.66        40.94756
272.12        40.15429
272.57        39.27774
273.03        38.39039
273.48        37.54695
273.94        36.79623
274.39        36.07499
274.85        35.42193
275.31        34.82112
275.76        34.25363
276.22        33.76406
276.67        33.29748
277.13        32.86295
277.58        32.41068
278.04        31.97194
278.49        31.51663
278.95        31.10097
279.40        30.67864
279.86        30.27631
280.31         29.8296
280.77        29.34297
281.22        28.78903
281.68        28.24917
282.13         27.7191
282.59        27.27613
283.04         26.9068
283.50        26.61362
283.95        26.40962
284.41        26.34937
284.86        26.40993
285.32        26.58663
285.77        26.76184
286.22        26.78919
286.68        26.66871
287.13        26.40498
287.59        26.17203
288.04        26.12588
288.50        26.27393
288.95        26.66611
289.41        27.19591
289.86        27.23134
290.32         26.6753
290.77         27.4435
291.22        26.54539
291.68        26.67026
292.13        26.95257
292.59        27.43367
293.04        28.07509
293.50        28.88864
293.95        29.87127
294.40        30.99887
294.86        32.22522
295.31        33.46093
295.77        34.68053
296.22        35.88175
296.68        37.10592
297.13         38.4162
297.58        39.84286
298.04        41.36471
298.49        42.95799
298.95        44.60633
299.40        46.27314
299.85        47.96837
300.31        49.66157
300.76        51.27861
301.21         52.8215
301.67         54.3317
302.12        55.84473
302.58        57.52631
303.03        59.37067
303.48        61.37998
303.94        63.47664
304.39         65.4822
304.84         67.3597
305.30        69.16096
305.75         70.9163
306.20        72.78634
306.66        74.78938
307.11        76.81203
307.57        78.76962
308.02        80.46124
308.47        81.87935
308.93        83.12437
309.38        84.25455
309.83        85.42301
310.29        86.72678
310.74        88.05132
311.19        89.35744
311.65        90.54488
312.10        91.56814
312.55        92.46838
313.00        93.28317
313.46        94.07227
313.91        94.83777
314.36        95.57051
314.82        96.25623
315.27        96.86578
315.72         97.4081
316.18        97.90418
316.63        98.37978
317.08        98.87643
317.53        99.39647
317.99        99.91178
318.44        100.4039
318.89        100.8296
319.35        101.1735
319.80        101.4634
320.25        101.6865
320.70        101.8284
321.16         101.894
321.61        101.9102
322.06        101.9428
322.51        102.1065
322.97        102.4042
323.42         102.831
323.87        103.2852
324.32        103.6109
324.78        103.7443
325.23        103.7705
325.68         103.728
326.13        103.7148
326.59         103.747
327.04        103.8497
327.49        104.0089
327.94        104.2366
328.39        104.5269
328.85        104.8521
329.30        105.2352
329.75        105.5748
330.20        105.8464
330.66        106.0237
331.11        106.1953
331.56        106.3849
332.01        106.6095
332.46        106.8523
332.92        107.0559
333.37        107.2654
333.82         107.437
334.27        107.5973
334.72        107.7685
335.17        107.9798
335.63        108.2163
336.08        108.5278
336.53        108.9008
336.98        109.3593
337.43        109.8936
337.88        110.4846
338.34        111.0541
338.79        111.5322
339.24        111.8726
339.69        112.1041
340.14        112.2746
340.59        112.4713
341.05        112.7242
341.50        113.0099
341.95        113.3323
342.40        113.6992
342.85        114.0989
343.30         114.535
343.75        114.9335
344.20        115.1772
344.66        115.2573
345.11        115.1867
345.56        115.0812
346.01         115.127
346.46        115.3636
346.91        115.7189
347.36        116.0605
347.81        116.2336
348.26        116.2093
348.72        115.8717
349.17         115.655
349.62        115.4804
350.07        115.4937
350.52        115.6196
350.97        115.7724
351.42        115.8101
351.87        115.6828
352.32        115.4366
352.77         115.112
353.22        114.7654
353.67        114.4172
354.13         114.064
354.58        113.6685
355.03        113.2313
355.48        112.7586
355.93        112.2651
356.38        111.7802
356.83        111.3384
357.28        110.9343
357.73        110.5439
358.18        110.1217
358.63        109.6029
359.08        108.9763
359.53        108.2687
359.98        107.5092
360.43        106.7382
360.88        105.9689
361.33        105.1886
361.78        104.4096
362.23         103.652
362.68        102.9217
363.13         102.225
363.58        101.5257
364.03        100.7599
364.48        99.91681
364.93        99.01041
365.38        98.10506
365.83        97.30972
366.28        96.64167
366.73        96.05861
367.18        95.48148
367.63        94.78553
368.08        93.94589
368.53         93.0172
368.98        92.04668
369.43        91.09486
369.88        90.18295
370.33        89.28722
370.78        88.43513
371.23        87.69016
371.68        87.06932
372.13        86.56324
372.58        86.11179
373.03        85.60098
373.48        84.99429
373.93        84.31618
374.38        83.60367
374.83        82.93582
375.28        82.34352
375.72        81.78578
376.17        81.27885
376.62        80.77751
377.07        80.26048
377.52        79.73808
377.97        79.19922
378.42        78.63901
378.87        78.07772
379.32        77.52574
379.77        77.01527
380.22        76.58234
380.67        76.21231
381.11        75.88254
381.56        75.54076
382.01        75.12138
382.46        74.62223
382.91         74.0854
383.36        73.53133
383.81        72.98637
384.26        72.46736
384.71        71.96567
385.15        71.52007
385.60        71.24985
386.05        71.13459
386.50        71.13815
386.95        71.14108
387.40        70.96136
387.85        70.56899
388.29         69.9825
388.74        69.40906
389.19        68.95437
389.64        68.64046
390.09        68.42033
390.54        68.21927
390.98        67.90677
391.43        67.50167
391.88        67.04889
392.33        66.63091
392.78        66.33971
393.23        66.17999
393.67        66.12045
394.12        66.14713
394.57        65.97018
395.02        65.61127
395.47        65.37728
395.91        65.26173
396.36        64.97765
396.81        64.55288
397.26        64.19208
397.71        63.90869
398.15        63.63427
398.60         63.4438
399.05        63.20247
399.50        62.98416
399.95         63.0805
400.39        63.38467
400.84        63.41377
401.29        63.11639
401.74        62.63662
402.18        62.11233
402.63        61.83865
403.08        61.78825
403.53         61.5547
403.97        61.14011
404.42        60.86549
404.87        60.74914
405.32        60.70874
405.76        60.72713
406.21        60.74056
406.66        60.73172
407.11         60.8414
407.55         60.9678
408.00        60.74942
408.45        60.24221
408.90        59.64865
409.34        59.18379
409.79        59.28773
410.24        59.78069
410.68        59.91776
411.13        59.63554
411.58        59.35492
412.03        59.17364
412.47        59.07758
412.92        59.08339
413.37        59.20031
413.81        59.34354
414.26        59.43702
414.71        59.44212
415.15        59.39236
415.60        59.30454
416.05        59.26367
416.49         59.2889
416.94        59.33539
417.39        59.36339
417.83        59.31036
418.28         59.1656
418.73        58.95391
419.17        58.70734
419.62        58.48885
420.07        58.32951
420.51        58.21437
420.96         58.1617
421.41        58.18182
421.85        58.24699
422.30        58.30213
422.74        58.32563
423.19        58.57387
423.64        58.93904
424.08        58.97358
424.53        58.66908
424.98        58.58255
425.42        58.77125
425.87        58.84022
426.31        58.79833
426.76        58.96064
427.21        59.24612
427.65        59.24881
428.10        58.96839
428.54        58.78033
428.99        58.73799
429.44         58.6682
429.88        58.54629
430.33        58.43311
430.77        58.31652
431.22        58.36928
431.66        58.54288
432.11        58.70553
432.56        58.84795
433.00        58.83408
433.45        58.49345
433.89        58.46412
434.34        58.89328
434.78        58.01831
435.23        57.50874
435.67        59.05015
436.12        59.09435
436.57        59.27317
437.01        58.59401
437.46        58.17731
437.90         58.6555
438.35        58.81695
438.79        58.74378
439.24        58.75076
439.68        58.81562
440.13        58.89712
440.57        58.95876
441.02        58.97771
441.46        58.95418
441.91         58.9079
442.35        58.84109
442.80        59.09465
443.24        59.52427
443.69        59.60497
444.13        59.34013
444.58         59.1529
445.02        59.10929
445.47        59.26722
445.91        59.51326
446.36        59.55767
446.80        59.36625
447.24        59.06824
447.69         58.7863
448.13        58.80512
448.58        58.93895
449.02        59.00324
449.47        58.91467
449.91        58.86049
450.36        58.84562
450.80        58.66541
451.25        58.40768
451.69        58.35242
452.13        58.47543
452.58        58.45314
453.02        58.26506
453.47        58.14302
453.91        58.07791
454.36        57.94265
454.80         57.7509
455.24         57.6173
455.69        57.55919
456.13        57.50665
456.58          57.477
457.02        57.53899
457.46        57.29666
457.91        57.52959
458.35        57.11076
458.79        57.08211
459.24        57.13138
459.68        57.24136
460.13        57.41219
460.57        57.32558
461.01        56.93739
461.46         57.2598
461.90        56.86699
462.34        56.42204
462.79        56.48969
463.23        56.44567
463.68        56.50995
464.12        56.23145
464.56        55.77377
465.01        56.01322
465.45        56.68994
465.89        56.77048
466.34        56.30611
466.78        56.05769
467.22        56.11769
467.67        55.95651
468.11        55.92186
468.55        55.72466
468.99         55.4883
469.44        55.29246
469.88        55.14734
470.32        54.96851
470.77        54.77905
471.21        54.67315
471.65        54.65671
472.10        54.70045
472.54        54.76091
472.98        54.78871
473.42        54.77022
473.87        54.73083
474.31        54.66079
474.75        54.63562
475.20         54.6448
475.64        54.61614
476.08        54.55378
476.52        54.51777
476.97        54.49948
477.41        54.53023
477.85        54.55584
478.29        54.46275
478.74        54.15376
479.18         54.0816
479.62        54.42942
480.06        54.42709
480.50        54.48738
480.95        54.55636
481.39        54.67391
481.83        54.70129
482.27        54.92009
482.72        54.55265
483.16        54.53722
483.60        54.75387
484.04        54.75997
484.48        54.60479
484.93        54.65851
485.37        54.58923
485.81        55.25598
486.25        54.78913
486.69        56.59672
487.14        57.05831
487.58        55.69565
488.02        54.68571
488.46        54.64585
488.90        54.56409
489.34        54.33597
489.79        53.66867
490.23        54.00863
490.67        53.93476
491.11        53.88625
491.55         53.8343
491.99        53.80014
492.43         53.7824
492.88        53.77991
493.32        53.82832
493.76        53.85046
494.20        53.86749
494.64        53.90261
495.08        53.46997
495.52         53.3195
495.96        53.49769
496.41        54.03384
496.85        54.06735
497.29        53.59475
497.73        53.45119
498.17         53.4045
498.61        53.48923
499.05        53.55405
499.49        53.49458
499.93        53.36367
500.37        53.33248
500.82        53.40305
501.26        53.64745
501.70        53.94681
502.14        53.61453
502.58        53.18906
503.02        52.94161
503.46        53.00052
503.90        53.05752
504.34        53.05374
504.78        53.07914
505.22        53.13254
505.66        53.12404
506.10        53.04565
506.54        53.08445
506.98        53.28186
507.42        52.73749
507.86        53.18715
508.30        52.84653
508.74        52.94321
509.18          52.849
509.62        52.80034
510.06        52.81139
510.50        52.85471
510.94        52.86818
511.38        52.83043
511.82        52.78845
512.26        52.73875
512.70        52.64918
513.14        52.53754
513.58        52.45173
514.02        52.40143
514.46        52.37263
514.90        52.33896
515.34        52.30897
515.78        52.28519
516.22        52.21095
516.66        51.95813
517.10        52.23231
517.54        51.96764
517.98        52.00072
518.42        52.01331
518.86        52.03269
519.30        52.05262
519.74        52.04558
520.18        52.03808
520.62        52.12572
521.06        52.27213
521.50        52.28346
521.93        52.17163
522.37        52.12419
522.81        52.15263
523.25        52.14756
523.69        52.10895
524.13        52.08555
524.57        52.07946
525.01        52.08158
525.45        52.08392
525.89        52.07271
526.32        52.04408
526.76        52.00574
527.20          51.973
527.64        51.97536
528.08        52.01505
528.52        52.07375
528.96         52.1234
529.40        52.13609
529.83        52.09171
530.27         51.9844
530.71        51.84314
531.15         51.7548
531.59        51.73543
532.03        51.74754
532.46        51.76989
532.90         51.7928
533.34        51.80169
533.78        51.80102
534.22        51.78695
534.66        51.75217
535.09        51.69197
535.53        51.62791
535.97        51.56117
536.41        51.50891
536.85          51.478
537.28        51.46533
537.72         51.4748
538.16        51.51216
538.60         51.5705
539.04        51.64183
539.47        51.69644
539.91         51.7331
540.35        51.73479
540.79        51.71199
541.22        51.66617
541.66        51.61384
542.10           51.56
542.54        51.50084
542.97        51.45327
543.41        51.46999
543.85        51.55035
544.29        51.68819
544.72        51.82424
545.16        51.91096
545.60        51.92466
546.04        51.82297
546.47        51.68045
546.91        51.73643
547.35        51.94195
547.79        52.01874
548.22        51.92955
548.66        51.79494
549.10        51.67694
549.53        51.68488
549.97        51.80369
550.41         51.8323
550.84        51.75937
551.28        51.71475
551.72        51.70843
552.15        51.70036
552.59        51.70744
553.03        51.65047
553.46         51.7173
553.90        51.63113
554.34         51.6258
554.77        51.54806
555.21        51.49794
555.65        51.52372
556.08        51.62083
556.52         51.7817
556.96        51.93727
557.39        51.99873
557.83        51.96119
558.27        51.83708
558.70        51.67968
559.14         51.5944
559.57        51.59452
560.01        51.67222
560.45        51.77278
560.88        51.81663
561.32        51.82275
561.75        51.75801
562.19         51.6883
562.63        51.71902
563.06        51.80999
563.50        51.78421
563.93        51.64381
564.37        51.53289
564.80        51.48341
565.24        51.59993
565.68        51.82696
566.11        51.94368
566.55        51.94484
566.98        51.96361
567.42        52.02106
567.85        51.99432
568.29        51.94012
568.72        51.95989
569.16        52.12062
569.60         52.1818
570.03        52.38707
570.47        52.62326
570.90        52.88636
571.34        52.82722
571.77        53.35263
572.21        52.85897
572.64        53.00646
573.08        52.94707
573.51        52.76278
573.95        53.23614
574.38         53.2729
574.82        53.98549
575.25        53.81068
575.69        53.58051
576.12        53.18483
576.56        53.40857
576.99        53.56958
577.42        53.46896
577.86        53.74839
578.29        53.87739
578.73        54.58205
579.16        54.21894
579.60        53.20485
580.03         53.3238
580.47        53.46635
580.90        53.77914
581.33        53.71124
581.77         53.9195
582.20        54.52138
582.64        54.86981
583.07        54.34132
583.51        53.90072
583.94        53.25351
584.37        52.97864
584.81         52.7967
585.24        53.03061
585.68        53.68192
586.11        53.87859
586.54        53.62654
586.98        53.55857
587.41         53.0546
587.85         53.6223
588.28        53.66741
588.71        53.41832
589.15        53.24309
589.58        52.88665
590.01        52.66574
590.45        52.31289
590.88        52.76693
591.31        52.52637
591.75        52.49871
592.18        52.31351
592.61        52.17236
593.05        53.06787
593.48         53.1348
593.91        53.42712
594.35        53.28879
594.78        53.17706
595.21         52.7152
595.65        52.71085
596.08        52.96751
596.51        53.11927
596.94        52.70102
597.38        52.58934
597.81        52.68373
598.24        52.87557
598.68        52.85097
599.11        52.76167
599.54        53.04502
599.97        53.04423
600.41        53.00253
600.84        53.12114
601.27        53.04393
601.70        53.19192
602.14        52.88553
602.57        52.74799
603.00        52.68066
603.43        52.84869
603.87        53.40582
604.30        53.36507
604.73        53.18272
605.16        52.88905
605.60        52.73951
606.03        52.79757
606.46        52.97995
606.89        53.20885
607.32        52.61614
607.76        53.11501
608.19        53.02887
608.62        53.01216
609.05        53.62891
609.48        52.93473
609.92        52.80637
610.35        52.87004
610.78        52.99223
611.21        52.85323
611.64        52.88168
612.07        52.84993
612.50        52.91528
612.94        52.90643
613.37        52.83446
613.80        52.82563
614.23        52.73878
614.66        52.64959
615.09        52.71238
615.52        52.73875
615.96        52.76117
616.39        52.69134
616.82        52.50456
617.25        52.58509
617.68        52.11811
618.11        52.24722
618.54        52.18952
618.97        52.26995
619.40        52.24839
619.84        52.28234
620.27        52.02825
620.70        51.92883
621.13        51.90828
621.56        51.94725
621.99        52.08125
622.42        52.17727
622.85        52.15509
623.28        52.36412
623.71        52.48121
624.14        52.20428
624.57         52.1968
625.00        52.64751
625.43        52.04101
625.86        52.10845
626.29        52.36713
626.72        51.96761
627.15        52.09286
627.58        51.97438
628.01        52.02635
628.44        51.75027
628.87        51.79229
629.30         51.9287
629.73        51.73813
630.16        51.84135
630.59        51.65319
631.02        51.80318
631.45        51.46484
631.88        51.45674
632.31        51.58889
632.74        51.51564
633.17        51.71006
633.60        51.67139
634.03        51.54704
634.46        51.38778
634.89         51.1848
635.32        51.11875
635.75        51.18307
636.18        51.34859
636.61        51.53872
637.04        51.63192
637.47        51.59785
637.89         51.4795
638.32        51.32413
638.75        51.23134
639.18        51.22918
639.61        51.28598
640.04          51.367
640.47        51.41838
640.90        51.42257
641.33        51.39962
641.76        51.36581
642.18        51.34954
642.61        51.34838
643.04        51.35836
643.47        51.37234
643.90         51.3868
644.33        51.39903
644.76        51.39581
645.18        51.38601
645.61        51.41029
646.04        51.45466
646.47         51.4429
646.90        51.38137
647.33         51.3465
647.75        51.33723
648.18        51.33427
648.61        51.35492
649.04         51.3659
649.47        51.34941
649.89        51.61628
650.32        51.57838
650.75        51.63512
651.18        51.61255
651.61        51.53385
652.03        51.40773
652.46        51.34177
652.89        51.25163
653.32        51.23898
653.74        51.26232
654.17        51.53825
654.60        51.25986
655.03        51.47087
655.46        51.06143
655.88        52.27989
656.31        53.84787
656.74        59.78539
657.16        58.54881
657.59        56.59346
658.02        53.72257
658.45        51.99128
658.87        52.07296
659.30        51.94186
659.73        51.47723
660.15        51.52492
660.58        51.95117
661.01        52.29929
661.44        52.40612
661.86        52.20317
662.29        51.77952
662.72        51.62114
663.14        51.74202
663.57        51.66985
664.00        51.42519
664.42        51.37024
664.85        51.51529
665.27        51.57002
665.70         51.6648
666.13        51.70398
666.55        51.72722
666.98        51.70115
667.41        51.64524
667.83        51.60752
668.26        51.60879
668.69        51.59663
669.11        51.55028
669.54        51.61858
669.96        51.83899
670.39        51.48266
670.82        51.80157
671.24         51.8086
671.67        51.85366
672.09        51.91272
672.52        51.99282
672.94        51.97415
673.37        51.88691
673.80        51.91419
674.22        52.04041
674.65         52.0518
675.07        51.95535
675.50        51.85785
675.92        51.79744
676.35        51.76986
676.77        51.78212
677.20        51.85573
677.62        51.98668
678.05        52.06699
678.47        52.06384
678.90        52.32882
679.32        52.25357
679.75        52.31008
680.17        52.34689
680.60          52.365
681.02         52.3562
681.45        52.28222
681.87        52.16825
682.30        52.05209
682.72        51.98333
683.15         51.9931
683.57        52.04178
684.00        52.19315
684.42        52.01726
684.85        52.05467
685.27        52.16558
685.70        52.25763
686.12        52.29048
686.54        52.28728
686.97        52.24207
687.39         52.1727
687.82        52.10906
688.24        52.07801
688.66        52.07485
689.09        52.29338
689.51        52.31807
689.94        52.46149
690.36        52.57491
690.78        52.60996
691.21        52.58112
691.63        52.52245
692.06        52.48489
692.48        52.54089
692.90        52.66187
693.33        52.71027
693.75        52.68501
694.17        52.62759
694.60        52.54588
695.02        52.62264
695.44        52.62808
695.87        52.56469
696.29        52.41866
696.71        52.47194
697.14        52.71849
697.56        52.89391
697.98         52.9116
698.41        53.18925
698.83        53.03561
699.25        52.95923
699.68        52.79957
700.10        52.67438
700.52        52.60505
700.94        52.57637
701.37        52.56951
701.79        52.56896
702.21        52.55222
702.64        52.53783
703.06        52.53275
703.48        52.54898
703.90         52.5914
704.33         52.6498
704.75        52.71262
705.17        52.74643
705.59        52.74534
706.01        52.71388
706.44        52.68573
706.86        52.73114
707.28        52.84858
707.70        53.01499
708.12        53.17968
708.55        53.25808
708.97        53.22743
709.39        53.12184
709.81         52.9851
710.23        52.89847
710.66        52.89195
711.08        52.95209
711.50        53.03689
711.92        53.09384
712.34         53.1085
712.76        53.09726
713.19        53.07654
713.61        53.11139
714.03        53.19169
714.45        53.30893
714.87        53.43644
715.29        53.50019
715.71        53.48276
716.13        53.54178
716.56        53.43789
716.98         53.4478
717.40         53.4957
717.82        53.57236
718.24        53.65106
718.66        53.69317
719.08        53.69085
719.50        53.65589
719.92        53.61053
720.34        53.58687
720.76        53.59452
721.19        53.61744
721.61        53.65523
722.03        53.68255
722.45        53.69297
722.87        53.69299
723.29        53.69574
723.71        53.72063
724.13        53.77331
724.55         53.8489
724.97        53.93008
725.39        53.99059
725.81        54.02323
726.23        54.03029
726.65        54.03727
727.07        54.09066
727.49         54.1997
727.91        54.33784
728.33        54.46192
728.75        54.54428
729.17        54.55236
729.59        54.40911
730.01        54.20539
730.43        54.17886
730.85        54.36063
731.27         54.6281
731.69        54.88279
732.10        54.97773
732.52        55.02813
732.94        54.67994
733.36        54.14305
733.78        53.89108
734.20        54.00755
734.62        54.26876
735.04        54.55901
735.46        54.77043
735.88        54.85127
736.30        54.84032
736.72        54.77784
737.13        54.74554
737.55         54.7368
737.97         54.7281
738.39        54.71957
738.81        54.73959
739.23        54.77432
739.65        54.79142
740.06        54.74872
740.48        54.69619
740.90        54.60491
741.32        54.46323
741.74        54.31515
742.16        54.24969
742.57         54.2971
742.99        54.41652
743.41        54.56419
743.83        54.65197
744.25        54.65556
744.67        54.59257
745.08        54.52324
745.50         54.5139
745.92        54.59489
746.34        54.74266
746.75        54.89179
747.17        54.93496
747.59        54.85614
748.01        54.66617
748.42        54.46164
748.84        54.43201
749.26         54.5811
749.68        54.77158
750.09        54.93037
750.51        54.96611
750.93         54.8994
751.35         54.9179
751.76        55.01631
752.18        55.01155
752.60        54.90305
753.01        54.83239
753.43        54.79045
753.85        54.71864
754.27        54.61492
754.68         54.6221
755.10        54.53834
755.52        54.56828
755.93        54.64909
756.35        54.78709
756.77        54.92622
757.18        55.01989
757.60        55.05849
758.02        54.95473
758.43        54.79232
758.85        54.95436
759.26        55.21518
759.68        55.41866
760.10        55.30243
760.51        54.98223
760.93        55.17731
761.34        55.09998
761.76        55.39264
762.18        55.54395
762.59        55.56351
763.01        55.37189
763.42        54.38557
763.84        54.32325
764.26        54.55923
764.67         55.0973
765.09         55.5842
765.50        55.75172
765.92        55.61664
766.33        55.44407
766.75         55.2868
767.16        55.15446
767.58        55.04207
768.00        55.00315
768.41        55.07887
768.83        55.20712
769.24        55.27022
769.66        55.64114
770.07        55.21698
770.49        55.13066
770.90         55.0932
771.32           55.04
771.73        54.98443
772.15        54.96271
772.56        54.99867
772.97        55.10661
773.39        55.23009
773.80        55.30426
774.22         55.2829
774.63        55.21507
775.05        55.12254
775.46        55.07944
775.88        55.08684
776.29        55.14244
776.70        55.20628
777.12        55.22573
777.53        55.20293
777.95        55.15366
778.36        55.09896
778.77        55.06591
779.19        55.06823
779.60        55.10423
780.02        55.17335
780.43        55.30751
780.84        55.50362
781.26        55.68476
781.67         55.8572
782.09        56.08421
782.50        56.30019
782.91        56.26626
783.33        56.11905
783.74         56.0057
784.15         55.9702
784.57         55.8984
784.98        55.82918
785.39        55.85021
785.81        55.96421
786.22        56.14095
786.63        56.33365
787.04        56.46872
787.46        56.53224
787.87        56.52076
788.28        56.46006
788.70        56.38537
789.11        56.29393
789.52        56.18784
789.93         56.0827
790.35        55.99438
790.76         55.9478
791.17        55.95722
791.58        56.00381
792.00         56.0567
792.41        56.13638
792.82        56.16929
793.23         56.2284
793.65        56.52579
794.06        56.98893
794.47        57.32141
794.88        57.50229
795.29        57.29286
795.71        57.56068
796.12        57.41847
796.53        57.15525
796.94        57.03839
797.35        57.06117
797.76        56.91563
798.18         56.6395
798.59        56.54295
799.00        56.63871
799.41        56.77287
799.82        56.87455
800.23        56.89336
800.64        56.80348
801.06        56.60345
801.47        56.38747
801.88        56.24422
802.29         56.2106
802.70        56.26904
803.11        56.38756
803.52        56.50385
803.93        56.58817
804.34        56.65175
804.75        56.72413
805.17        56.80195
805.58         56.8997
805.99        57.11436
806.40        57.37271
806.81        57.24954
807.22        56.86935
807.63        56.95324
808.04        57.44459
808.45        57.61376
808.86        57.40776
809.27        57.25043
809.68        57.20267
810.09        57.16151
810.50        57.14678
810.91         57.1955
811.32        57.26592
811.73        57.28709
812.14          57.241
812.55        57.13263
812.96        57.02191
813.37         57.0163
813.78        57.13402
814.19        57.33953
814.60        57.53282
815.01        57.56218
815.42        57.39956
815.83        57.08864
816.24        56.74837
816.65        56.60204
817.05          56.723
817.46        57.01836
817.87        57.38624
818.28         57.6352
818.69        57.71589
819.10        57.68651
819.51        57.61022
819.92        57.59891
820.33        57.68647
820.74        57.81704
821.14        57.95881
821.55        58.09288
821.96         58.1936
822.37        58.28019
822.78        58.31858
823.19        58.24537
823.60        58.05407
824.00        57.76945
824.41        57.45179
824.82        57.25898
825.23        57.23228
825.64        57.34724
826.04        57.52462
826.45        57.59338
826.86        57.52716
827.27        57.37273
827.68        57.22259
828.08        57.25733
828.49        57.45142
828.90        57.78766
829.31        58.18547
829.72        58.40185
830.12          58.383
830.53         58.6535
830.94        58.35156
831.35        58.19501
831.75         57.9686
832.16         57.6783
832.57        57.44111
832.97        57.45398
833.38          57.743
833.79         58.2288
834.20        58.77502
834.60        59.17528
835.01        59.36551
835.42        59.39828
835.82        59.31289
836.23        59.14814
836.64        58.95445
837.04        58.73236
837.45        58.50819
837.86        58.38044
838.26        58.37876
838.67        58.47915
839.08        58.64075
839.48        58.76802
839.89        58.82744
840.29         58.8429
840.70        58.84378
841.11        58.87582
841.51        58.96271
841.92        59.04574
842.33        59.12773
842.73        59.21605
843.14        59.26801
843.54        59.32399
843.95        59.34703
844.35        59.29456
844.76        59.16074
845.17        58.95761
845.57        58.78654
845.98        58.78216
846.38        58.99197
846.79        59.35341
847.19        59.74872
847.60        59.91135
848.00        59.81306
848.41        59.49522
848.81        59.14677
849.22        59.03701
849.62        59.26931
850.03        59.71539
850.43         60.2364
850.84        60.51742
851.24        60.52639
851.65        60.29491
852.05        59.98721
852.46        59.81527
852.86        59.85027
853.27        60.05217
853.67        60.24932
854.07        60.33207
854.48        60.24873
854.88        60.06832
855.29        59.85018
855.69        59.83906
856.10        60.00919
856.50        60.36192
856.90        60.71507
857.31         60.8142
857.71        60.64367
858.12        60.23676
858.52        59.73345
858.92        59.32112
859.33        59.06269
859.73        58.95514
860.13        58.95321
860.54        58.97232
860.94        59.03829
861.34        59.14464
861.75        59.26666
862.15         59.4275
862.55        59.58002
862.96        59.67778
863.36        59.72737
863.76        59.70544
864.17         59.6101
864.57        59.48798
864.97        59.30465
865.38        58.98711
865.78        58.57982
866.18        58.10862
866.58        57.76036
866.99        57.82595
867.39        58.37263
867.79        59.25721
868.19        60.18613
868.60        60.66189
869.00        60.67371
869.40        60.54862
869.80        60.31221
870.21        59.80787
870.61          59.158
871.01        58.51074
871.41        57.95407
871.81        57.49351
872.22        57.17296
872.62        57.02296
873.02        57.03666
873.42         57.3813
873.82        57.80419
874.22        57.67432
874.63        57.30481
875.03        57.34195
875.43        57.84448
875.83        59.59422
876.23        59.33754
876.63        58.76442
877.03        57.54299
877.44        55.03673
877.84        180.4391
878.24        55.90802
878.64        56.77483
879.04        58.54522
879.44        59.19686
879.84        55.48221
880.24        61.45385
880.64        61.90825
881.04        59.41212
881.44        57.46416
881.84        56.66601
882.24        57.15914
882.65        58.33372
883.05        58.71104
883.45        58.00462
883.85        57.16771
884.25        56.58465
884.65        56.39476
885.05        56.68306
885.45         57.3006
885.85        57.96217
886.25        58.29108
886.65        58.20096
887.05         57.8306
887.45          57.303
887.85        56.82697
888.25        56.50291
888.65        56.26087
889.04         56.1766
889.44        56.38464
889.84        56.85086
890.24        57.50813
890.64        58.13369
891.04        58.39263
891.44        58.23135
891.84         57.7634
892.24        57.14043
892.64        56.64839
893.04        56.39805
893.44        56.29918
893.83         56.3822
894.23        56.64751
894.63        57.07476
895.03        57.68967
895.43        58.28699
895.83        58.51333
896.23        58.31382
896.63        57.77666
897.02        57.22075
897.42        57.18436
897.82        57.72842
898.22        58.68675
898.62        59.69186
899.01        60.15074
899.41        59.89531
899.81        59.12239
900.21        58.16339
900.61        57.56517
901.00        57.47103
901.40         57.7764
901.80        58.25505
902.20         58.3919
902.59         58.0552
902.99         57.7308
903.39        57.72729
903.79        56.53299
904.18        57.38956
904.58        57.63012
904.98        57.98011
905.38        58.04618
905.77        57.76409
906.17        57.25737
906.57        56.69611
906.96        56.46441
907.36        56.64992
907.76        57.15274
908.15        57.79675
908.55        58.15071
908.95        58.14845
909.34        57.86469
909.74        57.54055
910.14        57.51535
910.53        57.86253
910.93        58.44818
911.33        59.01373
911.72        59.15866
912.12        58.80759
912.52        58.10719
912.91         57.3068
913.31        56.87037
913.70        56.89104
914.10        57.24395
914.49        57.73902
914.89         57.9788
915.29        57.87675
915.68        57.53559
916.08        57.16549
916.47        57.04238
916.87        57.25774
917.26        57.69861
917.66         58.1767
918.05        58.41954
918.45        58.33719
918.84        58.02848
919.24        57.64844
919.64        57.50573
920.03        57.67295
920.42        58.02693
920.82        58.38455
921.21        58.47147
921.61        58.25794
922.00        57.92594
922.40        57.68002
922.79        57.67131
923.19         57.5171
923.58        58.18681
923.98        60.06973
924.37        60.20072
924.77        56.94085
925.16        66.48061
925.55        59.47565
925.95        60.19349
926.34         60.3012
926.74        59.60693
927.13        58.09446
927.52        57.13707
927.92        57.31944
928.31        57.90307
928.70        58.67314
929.10        59.22885
929.49        59.48602
929.89        59.58553
930.28        59.52794
930.67        59.21714
931.07        58.70668
931.46        57.90385
931.85         57.0861
932.24        57.24293
932.64        58.50079
933.03        59.88251
933.42        60.52866
933.82         63.1894
934.21        61.38709
934.60        60.17833
934.99        59.02237
935.39        58.92371
935.78        59.85318
936.17        62.28775
936.56        69.68903
936.96        61.56084
937.35         65.9034
937.74        61.96947
938.13         59.0894
938.53         56.8973
938.92        56.29157
939.31        57.81984
939.70          59.874
940.09        60.81436
940.49        60.28286
940.88        58.85297
941.27        57.09689
941.66          56.098
942.05        56.27326
942.44        57.18931
942.84         58.3335
943.23        59.12563
943.62        59.37195
944.01        59.25533
944.40        59.07537
944.79        59.30252
945.18        60.02589
945.57        61.04161
945.97        61.91306
946.36        62.10809
946.75        61.47088
947.14        60.19223
947.53        58.72528
947.92        57.84919
948.31        57.79813
948.70        58.34994
949.09         59.1013
949.48        59.41237
949.87        59.12748
950.26        58.47158
950.65         57.7132
951.04        57.27895
951.43        57.30179
951.82        57.61527
952.21        58.08789
952.60        58.51546
952.99        58.78764
953.38        58.95795
953.77        59.02058
954.16        58.95152
954.55        58.77401
954.94         58.5111
955.33        58.19537
955.72        57.91416
956.11        57.71718
956.50        57.57719
956.89        57.59863
957.28         57.9216
957.66        58.56664
958.05        59.41333
958.44        60.17763
958.83         60.4281
959.22        60.07032
959.61        59.15429
960.00        58.05014
960.39        57.48996
960.78        57.70019
961.16        58.54285
961.55        59.39341
961.94        59.48967
962.33         58.7086
962.72        57.24749
963.11         55.7366
963.49        55.43541
963.88        56.68693
964.27        58.97907
964.66        61.38852
965.04        62.68972
965.43        62.58167
965.82        61.47458
966.21        59.90532
966.60        58.84081
966.98        58.61795
967.37        58.92615
967.76        59.48396
968.15        59.83027
968.53        59.83295
968.92        59.70423
969.31        59.49562
969.69        59.22873
970.08        58.93203
970.47        58.53546
970.86        58.26634
971.24        58.55458
971.63        59.40228
972.02        60.63735
972.40        61.81753
972.79        62.18907
973.17        61.68798
973.56        60.57153
973.95         59.2434
974.33        58.44822
974.72        58.43883
975.11        58.92962
975.49        59.87463
975.88        61.10533
976.26        62.51187
976.65        64.05096
977.04        65.26302
977.42        65.41638
977.81        64.36923
978.19        62.21039
978.58        59.84644
978.96        59.01965
979.35        60.14644
979.74        62.53555
980.12         65.0934
980.51        66.26885
980.89        65.94186
981.28        64.47787
981.66        62.31186
982.05        60.63975
982.43        60.02484
982.82        60.20935
983.20        60.92015
983.59        61.69954
983.97        62.39454
984.35        63.09941
984.74        63.75493
985.12        64.26763
985.51        64.55186
985.89         64.6727
986.28        64.52446
986.66        64.05782
987.04        63.37533
987.43        62.41304
987.81        61.23277
988.20        61.80306
988.58        64.39912
988.96        65.45344
989.35        63.89416
989.73        71.17099
990.12          67.159
990.50        67.29453
990.88        66.29798
991.27        65.02108
991.65        63.52043
992.03        61.98045
992.42        60.93435
992.80        60.49579
993.18        60.77783
993.56        61.82752
993.95        63.26019
994.33         64.3496
994.71        64.88232
995.10        64.94644
995.48        64.83345
995.86        65.06803
996.24        65.76547
996.63        66.66278
997.01        67.54293
997.39        67.89059
997.77         67.5891
998.15         66.8107
998.54        65.92482
998.92        65.37454
999.30        65.35748
999.68        65.84846
1000.06        66.53291
1000.45        66.72513
1000.83        66.33138
1001.21        65.54883
1001.59        65.00412
1001.97        65.59493
1002.35        67.31239
1002.73         69.6426
1003.12        71.87811
1003.50        73.23032
1003.88        73.53448
1004.26        73.01878
1004.64        71.95879
1005.02        70.95215
1005.40        70.28354
1005.78        69.82446
1006.16        69.42216
1006.54        68.76902
1006.92        67.86181
1007.30        67.01048
1007.69        66.37824
1008.07        66.22334
1008.45         66.5702
1008.83        67.26059
1009.21        68.42231
1009.59        70.20576
1009.97        72.27949
1010.35        74.26215
1010.73        75.67655
1011.11        76.31492
1011.49        76.35595
1011.86        75.56089
1012.24        73.83829
1012.62         74.8679
1013.00        75.56566
1013.38        75.53533
1013.76        73.14977
1014.14        77.84272
1014.52        84.67743
1014.90        76.27406
1015.28        77.66429
1015.66        79.16782
1016.04        75.03737
1016.41        75.09628
1016.79        73.94561
1017.17        73.67592
1017.55        73.67677
1017.93        74.19005
1018.31        75.30717
1018.69        76.45951
1019.06        77.50636
1019.44        78.45232
1019.82        79.09019
1020.20         79.1269
1020.58         78.5434
1020.95        77.22048
1021.33        75.56107
1021.71        74.70377
1022.09        75.24976
1022.46        76.69682
1022.84        78.22723
1023.22          79.299
1023.60        79.93588
1023.97        80.37506
1024.35        80.65405
1024.73        80.77267
