SpectraSmart Spectrum 2.9.0.0
--------- Device Information -----------
Spectrum Name :  反射率_0
Saving Time :  2024/04/21 00:40:33
Spectro-Module Model Name : SE2030-DUVN
Spectro-Module Serial Number : OS361AC55029948
Wavelength Start : 200
Wavelength End : 1025
Wavelength Unit : Wavelength(nm)
Spectrum Unit : Reflectance(%)
-----------Spectrum Setting ------------
Integration Time : 20ms
Average : 10
Boxcar : 0
Background removal :  enabled
linearity correction :  enabled
SC :  disabled
Intensity correction :  disabled
DWT denoise :  enabled
savitzky-golay :  disabled
FFT :  disabled
Running average :  disabled
Kalman :  disabled
High pass :  disabled
---------------BEGIN--------------------
Wavelength(nm)             Reflectance(%)
200.29               0
200.75       -12.87535
201.21        18.08982
201.67        35.17046
202.13        42.50182
202.58        44.44229
203.04        43.98549
203.50        40.86839
203.96        34.84691
204.42        26.79952
204.88        16.37912
205.34         6.66716
205.80        1.028508
206.26      0.04171292
206.72        6.592385
207.18        15.03335
207.64        9.469037
208.10       -14.14057
208.55       -49.59634
209.01       -69.89758
209.47       -44.70865
209.93       -4.410943
210.39        28.19993
210.85        49.59098
211.31        60.76125
211.77        65.54019
212.23        66.76901
212.69        63.26561
213.14        51.18766
213.60        18.39749
214.06       -97.01232
214.52       -413.9844
214.98       -202.5716
215.44       -43.10386
215.90        14.73635
216.36        35.08909
216.81        38.22623
217.27        28.08704
217.73       -28.13249
218.19        656.9819
218.65        293.9296
219.11       -569.8068
219.57       -2.392195
220.02        33.59895
220.48        39.67683
220.94        35.71895
221.40        20.69153
221.86        -15.0258
222.32       -37.00354
222.77       -3.775592
223.23        24.27491
223.69        37.89162
224.15        41.64537
224.61        40.04983
225.06        35.87907
225.52        29.91254
225.98        23.03503
226.44        16.19155
226.90        8.195017
227.36        3.110018
227.81        7.997727
228.27        18.89366
228.73        30.17065
229.19        37.49998
229.65        38.73752
230.10         34.8615
230.56        27.39152
231.02        17.47389
231.48        10.26528
231.93        9.818234
232.39        14.38563
232.85        20.11364
233.31        23.59851
233.77        24.89873
234.22        25.54905
234.68        25.60335
235.14        25.00122
235.60         24.1265
236.05        22.12877
236.51        19.45218
236.97        23.18415
237.43        33.96529
237.88        41.15028
238.34        40.70654
238.80        62.55529
239.26        53.41623
239.71        52.17247
240.17        45.04057
240.63        37.57281
241.08         33.4255
241.54        35.37069
242.00        43.17909
242.46         46.7258
242.91         43.2071
243.37        33.16067
243.83        19.58112
244.28         14.3457
244.74        23.45029
245.20        39.40512
245.66          53.722
246.11        58.68427
246.57        53.62436
247.03        41.15404
247.48         22.9612
247.94        1.170692
248.40       -28.99603
248.85       -97.01289
249.31       -306.4171
249.77        -503.957
250.22       -196.5859
250.68       -58.12943
251.14       -10.73077
251.59        4.880034
252.05        8.483959
252.51        6.858857
252.96       0.4159487
253.42       -6.142723
253.88       -7.621834
254.33       -5.358298
254.79        3.550122
255.25        18.71066
255.70        33.89756
256.16        46.03845
256.62         53.4933
257.07        55.50286
257.53        54.41346
257.99        52.03025
258.44        49.50451
258.90        48.40459
259.35        48.19215
259.81        48.49218
260.27        48.85809
260.72         48.9441
261.18        48.92242
261.63        48.65719
262.09        48.18207
262.55        47.14068
263.00        45.55369
263.46        43.77049
263.91        41.95304
264.37        40.70019
264.83        39.98258
265.28        39.57049
265.74        39.30503
266.19        38.80841
266.65        38.06777
267.11        37.16105
267.56        36.15723
268.02        35.24073
268.47        34.41346
268.93        33.63752
269.38        32.86076
269.84        32.06814
270.30        31.24766
270.75        30.43928
271.21         29.6605
271.66        28.86946
272.12        28.09715
272.57        27.32806
273.03        26.65732
273.48        26.19461
273.94        25.95152
274.39        25.85359
274.85        25.76766
275.31        25.43412
275.76        24.81853
276.22        24.05149
276.67        23.29618
277.13        22.84909
277.58        22.71665
278.04        22.79909
278.49        22.92127
278.95        22.90544
279.40        22.66928
279.86        22.30968
280.31        21.84856
280.77        21.38839
281.22        20.93757
281.68        20.52342
282.13        20.12212
282.59        19.76868
283.04        19.45109
283.50        19.18999
283.95        19.01417
284.41        18.97869
284.86         19.0734
285.32        19.28343
285.77        19.51226
286.22        19.63055
286.68        19.63857
287.13        19.54317
287.59        19.48603
288.04        19.58092
288.50        19.81673
288.95        20.26693
289.41        20.85842
289.86        20.98669
290.32        20.54525
290.77        21.57552
291.22        20.77316
291.68         20.9465
292.13        21.14658
292.59         21.4534
293.04         21.8735
293.50        22.49164
293.95        23.33107
294.40        24.33969
294.86        25.46902
295.31        26.62438
295.77        27.77275
296.22        28.92915
296.68        30.09676
297.13        31.27893
297.58        32.50392
298.04        33.77084
298.49        35.13768
298.95        36.71735
299.40        38.49407
299.85        40.42559
300.31        42.38707
300.76         44.1654
301.21        45.72823
301.67        47.16686
302.12        48.57372
302.58        50.18838
303.03        52.03841
303.48        54.09775
303.94        56.29166
304.39        58.45455
304.84        60.53689
305.30        62.58145
305.75        64.58665
306.20         66.6521
306.66        68.78341
307.11        70.89091
307.57        72.91185
308.02        74.69152
308.47        76.23506
308.93        77.63258
309.38        78.94582
309.83        80.31804
310.29        81.85339
310.74           83.42
311.19        84.96341
311.65        86.35274
312.10        87.53329
312.55        88.55109
313.00        89.44721
313.46        90.28981
313.91        91.09137
314.36        91.84694
314.82        92.55637
315.27        93.21442
315.72        93.83273
316.18        94.42211
316.63        95.00479
317.08        95.61156
317.53        96.23966
317.99         96.8727
318.44        97.46245
318.89        97.91893
319.35         98.2264
319.80        98.42107
320.25        98.56779
320.70        98.78146
321.16        99.08099
321.61        99.44138
322.06        99.81608
322.51        100.1355
322.97        100.3641
323.42        100.5698
323.87        100.7308
324.32        100.8283
324.78        100.8555
325.23         100.849
325.68        100.8781
326.13        101.0879
326.59        101.4785
327.04        102.0651
327.49        102.6891
327.94        103.1123
328.39        103.2727
328.85        103.2021
329.30        103.1063
329.75        103.2102
330.20        103.5843
330.66        104.1173
331.11        104.7487
331.56        105.2409
332.01        105.5293
332.46        105.6843
332.92        105.7353
333.37        105.8712
333.82        106.1008
334.27        106.3891
334.72        106.7366
335.17        107.1493
335.63        107.5879
336.08        108.1145
336.53        108.6698
336.98        109.1937
337.43        109.6633
337.88          110.08
338.34        110.4326
338.79        110.7715
339.24        111.0854
339.69        111.3682
340.14        111.6287
340.59        111.8858
341.05        112.1481
341.50         112.425
341.95        112.7153
342.40        113.0144
342.85        113.3219
343.30        113.6434
343.75        113.9637
344.20        114.2625
344.66        114.5422
345.11        114.7799
345.56         115.006
346.01        115.2701
346.46        115.5756
346.91        115.8873
347.36        116.1319
347.81        116.2507
348.26        116.2425
348.72        115.9626
349.17        115.8175
349.62        115.6823
350.07        115.6935
350.52        115.7993
350.97        115.9354
351.42        115.9884
351.87        115.9158
352.32        115.7496
352.77         115.515
353.22        115.2504
353.67        114.9655
354.13        114.6546
354.58        114.2822
355.03        113.8519
355.48        113.3717
355.93        112.8611
356.38        112.3349
356.83        111.8059
357.28        111.2701
357.73        110.7092
358.18        110.1292
358.63        109.5459
359.08        108.9623
359.53         108.386
359.98         107.766
360.43         107.016
360.88        106.1294
361.33        105.1362
361.78        104.1449
362.23        103.3309
362.68        102.7304
363.13        102.2904
363.58        101.8861
364.03        101.3155
364.48        100.5284
364.93        99.58698
365.38        98.59486
365.83        97.72419
366.28        97.01977
366.73        96.41557
367.18        95.84645
367.63        95.21353
368.08         94.4866
368.53        93.71246
368.98        92.89311
369.43        92.01433
369.88        91.08132
370.33        90.08994
370.78        89.10488
371.23        88.25896
371.68        87.59512
372.13        87.08761
372.58        86.66053
373.03        86.17314
373.48        85.57798
373.93        84.90836
374.38         84.2048
374.83        83.54748
375.28        82.96889
375.72         82.4276
376.17        81.92889
376.62        81.41558
377.07        80.86242
377.52        80.27265
377.97         79.6657
378.42        79.08774
378.87        78.56461
379.32        78.09602
379.77        77.64249
380.22        77.13251
380.67        76.54222
381.11        75.88602
381.56        75.22031
382.01        74.66329
382.46        74.25441
382.91        73.97284
383.36        73.72031
383.81         73.3411
384.26        72.80495
384.71        72.15597
385.15        71.50796
385.60        71.09937
386.05        70.94151
386.50         70.9559
386.95        70.98054
387.40        70.76932
387.85        70.28435
388.29         69.5866
388.74        68.91021
389.19        68.39227
389.64        68.06106
390.09        67.84663
390.54        67.68786
390.98        67.47853
391.43        67.23182
391.88        66.98139
392.33        66.74282
392.78        66.54241
393.23        66.38609
393.67          66.187
394.12        66.03265
394.57        65.97552
395.02        65.97185
395.47        65.83713
395.91        65.58018
396.36        65.35485
396.81        65.18214
397.26        64.98528
397.71        64.75874
398.15        64.49136
398.60          64.256
399.05        64.02158
399.50        63.82712
399.95        63.69014
400.39        63.63008
400.84        63.67813
401.29        63.75492
401.74        63.58794
402.18        63.18737
402.63        62.79687
403.08        62.47519
403.53        62.16203
403.97        61.89344
404.42        61.75019
404.87        61.70938
405.32        61.72682
405.76        61.77227
406.21        61.80468
406.66        61.79391
407.11        61.81645
407.55        61.80193
408.00        61.49048
408.45        60.99449
408.90        60.53994
409.34        60.31875
409.79        60.70723
410.24        61.45333
410.68        61.74195
411.13        61.48536
411.58        61.10483
412.03        60.74411
412.47        60.50077
412.92        60.43273
413.37        60.51975
413.81        60.67285
414.26        60.80991
414.71        60.88234
415.15        60.93161
415.60        60.95095
416.05        60.97612
416.49        61.01564
416.94        61.04105
417.39        61.03574
417.83        60.97605
418.28        60.86599
418.73        60.71788
419.17        60.56772
419.62         60.4823
420.07        60.47529
420.51        60.51984
420.96        60.60241
421.41        60.65611
421.85        60.64183
422.30        60.61395
422.74        60.56611
423.19        60.59552
423.64        60.69051
424.08        60.82975
424.53        60.93819
424.98        61.04084
425.42        61.14131
425.87        61.15878
426.31        61.15977
426.76        61.34607
427.21         61.6896
427.65        61.96894
428.10        62.07578
428.54        62.06121
428.99        61.95339
429.44        61.76973
429.88        61.54728
430.33        61.31432
430.77        61.12805
431.22        61.31853
431.66        61.78946
432.11        62.15014
432.56        62.33821
433.00        62.42712
433.45        62.22115
433.89        62.06308
434.34        62.17544
434.78        61.40648
435.23        60.95768
435.67        62.67561
436.12        62.61536
436.57        62.92691
437.01        62.48241
437.46        62.27964
437.90        63.01871
438.35        62.92072
438.79        63.16449
439.24        63.17659
439.68        63.26466
440.13        63.29512
440.57        63.30492
441.02        63.48141
441.46        63.74698
441.91        63.87091
442.35         63.8023
442.80        63.94239
443.24        64.24527
443.69        64.37133
444.13        64.24102
444.58        64.34343
445.02        64.19018
445.47        63.99488
445.91        64.52235
446.36        64.60321
446.80        64.50313
447.24        64.35516
447.69        64.25954
448.13        64.43774
448.58        64.66025
449.02        64.75842
449.47        64.65891
449.91        64.60378
450.36        64.61349
450.80        64.45008
451.25        64.22018
451.69        64.25079
452.13        64.51273
452.58         64.6431
453.02        64.58694
453.47        64.55001
453.91        64.51138
454.36        64.34802
454.80        64.09937
455.24        63.93311
455.69        63.89541
456.13        63.89347
456.58        63.77017
457.02        63.93122
457.46        63.89896
457.91        63.66211
458.35        63.31121
458.79        63.12414
459.24        63.17907
459.68        63.25881
460.13        63.33736
460.57        63.35797
461.01        63.33044
461.46        63.23051
461.90        63.07971
462.34        63.03625
462.79        62.81432
463.23        62.64966
463.68        63.55572
464.12        63.38874
464.56        62.66594
465.01        62.67143
465.45        63.23948
465.89        63.28582
466.34        62.84546
466.78        62.65303
467.22         62.7907
467.67        62.62793
468.11         62.6081
468.55        62.64594
468.99        62.48915
469.44        62.40172
469.88        62.27314
470.32        62.07478
470.77        61.85979
471.21        61.75949
471.65        61.79959
472.10        61.94487
472.54        62.09452
472.98         62.1531
473.42        62.11879
473.87        61.89864
474.31        61.56279
474.75         61.6902
475.20         62.1942
475.64        61.86872
476.08        61.68407
476.52        61.53589
476.97        61.68992
477.41        61.90392
477.85        62.06712
478.29        61.85052
478.74        61.54591
479.18        61.35343
479.62        61.78853
480.06        61.89014
480.50        61.81349
480.95        61.80238
481.39        61.78827
481.83        62.03059
482.27        62.29491
482.72         61.8067
483.16        61.97196
483.60        62.22982
484.04        62.19585
484.48        61.88097
484.93        61.79694
485.37        61.74213
485.81        61.83089
486.25         61.8074
486.69        62.31778
487.14         62.4726
487.58         62.1189
488.02        62.01663
488.46         61.7193
488.90        61.78418
489.34        61.57684
489.79        61.42233
490.23        61.68191
490.67        61.83122
491.11        61.97074
491.55        61.90025
491.99        61.68973
492.43        61.61783
492.88        61.70111
493.32        61.79086
493.76        61.81227
494.20        61.83352
494.64         61.8655
495.08        61.56669
495.52        61.51669
495.96        61.52019
496.41        61.66769
496.85        61.67613
497.29        61.50691
497.73        61.51167
498.17        61.38163
498.61        61.45648
499.05        61.57121
499.49        61.43763
499.93        61.16187
500.37        61.13344
500.82        61.32687
501.26        61.62569
501.70         61.8883
502.14        61.45914
502.58        60.98093
503.02        60.72948
503.46        60.85432
503.90        61.02144
504.34        61.12409
504.78        61.18299
505.22        61.16869
505.66        61.05771
506.10        60.91304
506.54        60.88731
506.98        61.00788
507.42        60.95852
507.86        61.34557
508.30        61.20235
508.74        61.34702
509.18        61.25742
509.62        61.15934
510.06        61.11189
510.50        61.11069
510.94        61.05933
511.38        60.96277
511.82        60.91605
512.26        60.91994
512.70        60.93275
513.14        60.92756
513.58        60.87777
514.02        60.77811
514.46        60.63729
514.90        60.49023
515.34        60.43283
515.78         60.4865
516.22        60.59473
516.66        60.55795
517.10        60.89352
517.54        60.69353
517.98        60.67151
518.42        60.60863
518.86        60.60023
519.30        60.66005
519.74        60.72556
520.18        60.78857
520.62        60.91315
521.06        61.04303
521.50        60.97107
521.93        60.73962
522.37        60.60919
522.81        60.60867
523.25        60.60484
523.69         60.5779
524.13        60.55333
524.57        60.52789
525.01        60.49934
525.45        60.49007
525.89        60.53278
526.32        60.62572
526.76        60.75522
527.20        60.88394
527.64        60.95831
528.08        60.96156
528.52         60.9101
528.96        60.82502
529.40        60.73161
529.83        60.64328
530.27        60.59065
530.71        60.55462
531.15        60.50228
531.59        60.43183
532.03        60.35558
532.46        60.30399
532.90         60.3359
533.34        60.44717
533.78        60.61407
534.22        60.76335
534.66        60.78433
535.09         60.6533
535.53        60.43201
535.97        60.18904
536.41        60.05022
536.85         60.0482
537.28        60.14268
537.72        60.28977
538.16        60.41597
538.60        60.49034
539.04        60.54025
539.47        60.55042
539.91         60.5411
540.35        60.50184
540.79        60.46665
541.22        60.36489
541.66        60.36909
542.10        60.36835
542.54        60.42453
542.97        60.47542
543.41        60.49432
543.85        60.47131
544.29        60.43679
544.72        60.39552
545.16        60.39626
545.60         60.4325
546.04        60.43846
546.47        60.45405
546.91        60.60822
547.35         60.8404
547.79        61.02854
548.22        61.07616
548.66        60.83375
549.10        60.42163
549.53        60.27319
549.97        60.39899
550.41         60.4009
550.84        60.27847
551.28        60.28183
551.72        60.39026
552.15        60.49154
552.59        60.59457
553.03        60.47498
553.46        60.57108
553.90        60.52186
554.34        60.45728
554.77        60.35413
555.21        60.27009
555.65        60.29463
556.08        60.42004
556.52        60.59134
556.96         60.7424
557.39        60.86597
557.83        60.92447
558.27        60.77623
558.70        60.51007
559.14         60.3887
559.57        60.43462
560.01        60.62518
560.45        60.82565
560.88        60.76745
561.32        60.54397
561.75        60.33128
562.19        60.24914
562.63          60.483
563.06        60.88269
563.50          60.814
563.93        60.33982
564.37        60.18319
564.80        60.34526
565.24        60.46931
565.68        60.53109
566.11        60.57644
566.55        60.59874
566.98        60.74421
567.42        61.00062
567.85        60.65553
568.29        60.49586
568.72        60.46379
569.16         60.7732
569.60        60.82292
570.03         60.8974
570.47        60.97295
570.90        61.04509
571.34        61.17455
571.77        61.13948
572.21        60.86448
572.64        61.17609
573.08        60.79568
573.51        60.92506
573.95        61.16855
574.38        61.00139
574.82         61.7863
575.25        61.61763
575.69         61.4421
576.12        60.78479
576.56         61.1955
576.99        61.53278
577.42        61.28047
577.86        61.41021
578.29        61.73486
578.73        61.85585
579.16        61.52793
579.60        61.12048
580.03        61.09061
580.47        61.27913
580.90         61.3825
581.33        61.46531
581.77        61.55067
582.20        61.78748
582.64        61.91712
583.07        61.29427
583.51        61.08202
583.94        60.94134
584.37        60.97281
584.81        60.80096
585.24        60.91114
585.68        61.57925
586.11        61.11316
586.54        61.56463
586.98        61.16238
587.41        60.97396
587.85        61.41956
588.28        61.32573
588.71        61.38126
589.15         61.6225
589.58        61.08457
590.01          60.895
590.45        60.82816
590.88        61.31112
591.31        61.07625
591.75        60.89725
592.18        60.78308
592.61        60.92489
593.05         61.3088
593.48        61.44354
593.91        61.45361
594.35        61.35852
594.78        61.49196
595.21        61.12677
595.65        61.03889
596.08        61.01081
596.51        61.19738
596.94         60.9925
597.38        61.04723
597.81        61.26637
598.24         61.0536
598.68        61.03206
599.11        61.32656
599.54        61.65061
599.97        61.39662
600.41        61.12768
600.84        61.32055
601.27        61.32981
601.70        61.31544
602.14        61.12021
602.57        61.10714
603.00        61.26081
603.43        61.51541
603.87        61.67747
604.30        61.49895
604.73        61.47858
605.16        61.13443
605.60        61.51494
606.03        61.55489
606.46         61.5212
606.89        61.28456
607.32        61.00796
607.76        61.55892
608.19        61.29795
608.62        61.26878
609.05        61.89145
609.48        61.45779
609.92        61.44696
610.35        61.58701
610.78        61.61792
611.21        61.18522
611.64        61.46984
612.07        61.42299
612.50        61.43189
612.94        61.41889
613.37        61.38199
613.80        61.42608
614.23        61.48925
614.66        61.28959
615.09        60.94809
615.52        60.97785
615.96        61.30435
616.39        61.46782
616.82        61.45656
617.25         61.0369
617.68         61.3124
618.11        61.12654
618.54        60.99696
618.97        61.11544
619.40        61.49382
619.84        61.08562
620.27        61.00969
620.70        60.89691
621.13        61.06334
621.56        61.15217
621.99        61.16905
622.42        61.24465
622.85        61.28655
623.28        61.43044
623.71        61.28647
624.14        61.24262
624.57        61.11866
625.00         61.6277
625.43        61.02581
625.86         61.0857
626.29        61.30112
626.72        61.09272
627.15        61.09976
627.58        61.01045
628.01        61.08368
628.44        60.80787
628.87        60.94878
629.30        60.99139
629.73        61.04309
630.16         61.0307
630.59        60.87101
631.02        61.15644
631.45         60.9893
631.88        61.09186
632.31        61.21497
632.74        61.06531
633.17        61.24237
633.60         61.1789
634.03         61.0655
634.46        60.95873
634.89        60.80168
635.32        60.73355
635.75        60.73232
636.18        60.78568
636.61        60.86541
637.04        60.92695
637.47        60.95609
637.89        60.97416
638.32        60.96568
638.75        60.93227
639.18        60.87879
639.61        60.80147
640.04         60.7341
640.47        60.73307
640.90        60.80716
641.33         60.9436
641.76        61.08707
642.18        61.15179
642.61        61.10332
643.04        60.97194
643.47         60.8215
643.90        60.76276
644.33        60.82003
644.76        60.94468
645.18        61.07591
645.61        61.13886
646.04        61.10121
646.47        60.94206
646.90         60.7251
647.33        60.62327
647.75        60.66366
648.18        60.74776
648.61        60.86111
649.04        61.03174
649.47        61.15744
649.89        61.34101
650.32        60.96263
650.75        60.87677
651.18        60.90291
651.61        60.88056
652.03        60.81114
652.46        60.67507
652.89         60.5387
653.32        60.63779
653.74         60.9366
654.17        60.84699
654.60        60.88069
655.03        60.70088
655.46        60.58747
655.88        61.19466
656.31         62.0923
656.74         64.8012
657.16         63.3308
657.59         61.7859
658.02         60.8994
658.45        61.39153
658.87        61.00037
659.30        61.10425
659.73        61.03098
660.15        60.89099
660.58        61.06402
661.01        61.36644
661.44        61.76103
661.86        61.63668
662.29        61.09153
662.72        60.85256
663.14        60.98206
663.57        61.04632
664.00        61.00637
664.42        61.01161
664.85        61.06026
665.27        60.99278
665.70        61.02153
666.13        61.02616
666.55        61.07415
666.98        61.14679
667.41        61.21369
667.83        61.23111
668.26        61.19898
668.69        61.07905
669.11        60.91153
669.54        60.95736
669.96        61.27427
670.39        61.02065
670.82        61.59127
671.24        61.54367
671.67        61.33447
672.09        61.28841
672.52        61.41708
672.94        61.32285
673.37        61.04859
673.80          60.971
674.22        61.09324
674.65        61.12099
675.07        61.06057
675.50        61.04781
675.92         61.0904
676.35        61.12176
676.77        61.13553
677.20        61.15792
677.62        61.21442
678.05        61.24777
678.47        61.23917
678.90         61.5008
679.32        61.52592
679.75         61.4885
680.17        61.56393
680.60        61.51403
681.02        61.45333
681.45          61.405
681.87        61.39156
682.30        61.38366
682.72        61.39785
683.15        61.44414
683.57        61.49254
684.00        61.62529
684.42        61.49493
684.85        61.50194
685.27        61.53649
685.70        61.55801
686.12        61.54184
686.54        61.51393
686.97        61.47019
687.39        61.43242
687.82        61.42506
688.24        61.45729
688.66        61.51121
689.09        61.82638
689.51        61.89268
689.94        62.04291
690.36        62.10588
690.78        62.06511
691.21        61.96318
691.63        61.85843
692.06        61.82064
692.48        61.94401
692.90        62.16301
693.33        62.25143
693.75        62.19275
694.17        62.05318
694.60         61.8768
695.02        61.92245
695.44        61.92543
695.87        61.92144
696.29         61.8722
696.71        61.87948
697.14        61.95527
697.56        62.22815
697.98        62.60904
698.41          62.516
698.83        62.55033
699.25        62.30479
699.68        62.05118
700.10        61.89644
700.52         61.8832
700.94        61.97832
701.37        62.09186
701.79        62.13164
702.21        62.05088
702.64        61.89805
703.06        61.73994
703.48        61.68522
703.90        61.76055
704.33        61.91887
704.75        62.10737
705.17         62.2248
705.59         62.2429
706.01        62.19148
706.44        62.11214
706.86        62.09094
707.28        62.13915
707.70        62.23153
708.12        62.34362
708.55        62.43042
708.97        62.47149
709.39        62.48987
709.81        62.49581
710.23        62.50823
710.66        62.53448
711.08        62.57653
711.50         62.6058
711.92        62.59768
712.34        62.54921
712.76        62.46789
713.19        62.37652
713.61        62.35819
714.03        62.40442
714.45        62.51211
714.87        62.64172
715.29        62.68777
715.71        62.62671
716.13        62.64679
716.56        62.48249
716.98        62.48393
717.40         62.5668
717.82        62.70913
718.24        62.85923
718.66        62.93915
719.08          62.931
719.50        62.85947
719.92        62.76424
720.34        62.70469
720.76         62.7007
721.19         62.7284
721.61        62.78712
722.03        62.84674
722.45        62.89792
722.87        62.94902
723.29        63.00835
723.71        63.08698
724.13         63.1847
724.55        63.29068
724.97         63.3885
725.39        63.45623
725.81        63.48697
726.23        63.48546
726.65        63.46517
727.07        63.45192
727.49        63.45654
727.91        63.46573
728.33        63.47102
728.75          63.492
729.17        63.51092
729.59        63.45241
730.01        63.36226
730.43        63.38009
730.85        63.51401
731.27        63.68734
731.69        63.83747
732.10        63.82793
732.52        63.83637
732.94         63.5123
733.36        63.03985
733.78        62.81255
734.20        62.90555
734.62        63.09254
735.04        63.28085
735.46        63.60503
735.88        63.73165
736.30         63.8111
736.72        63.89873
737.13         63.9917
737.55        64.07509
737.97        63.90437
738.39        63.58821
738.81        63.63331
739.23         63.9947
739.65        64.10361
740.06        63.91251
740.48        63.88401
740.90        63.98835
741.32        63.99104
741.74         63.9094
742.16        63.90566
742.57        64.00531
742.99        64.13755
743.41        64.27846
743.83        64.37257
744.25         64.4022
744.67        64.38137
745.08        64.35254
745.50        64.34066
745.92        64.37177
746.34        64.43914
746.75        64.50167
747.17         64.4891
747.59        64.39729
748.01        64.22118
748.42        64.04475
748.84        64.05101
749.26        64.23331
749.68        64.41595
750.09        64.53288
750.51        64.57932
750.93        64.55383
751.35        64.50833
751.76        64.47018
752.18        64.41953
752.60        64.36865
753.01        64.37519
753.43        64.39898
753.85        64.33279
754.27        64.16056
754.68        64.03206
755.10        64.04253
755.52        63.70941
755.93        64.00448
756.35         64.1366
756.77        64.35317
757.18        64.48367
757.60        64.48169
758.02        64.54999
758.43        64.73616
758.85        64.30293
759.26        64.40433
759.68        64.67439
760.10        64.56775
760.51        64.42608
760.93        64.87949
761.34        64.29148
761.76        64.89831
762.18        64.95179
762.59        64.97693
763.01        65.10217
763.42        64.52309
763.84        64.59831
764.26        64.70167
764.67        65.02495
765.09        65.33039
765.50        65.27132
765.92        64.95486
766.33        64.89856
766.75         65.0977
767.16         65.1553
767.58        65.02673
768.00        65.15205
768.41        65.50652
768.83        65.57128
769.24        65.31265
769.66        65.44756
770.07        65.13425
770.49        65.07825
770.90        65.02724
771.32        64.91706
771.73        64.78995
772.15        64.78889
772.56         64.9409
772.97        65.16389
773.39         65.3776
773.80        65.54931
774.22        65.61912
774.63        65.62092
775.05        65.56586
775.46        65.52811
775.88        65.50721
776.29        65.50529
776.70        65.50449
777.12        65.48726
777.53        65.47211
777.95        65.47569
778.36        65.48602
778.77        65.47038
779.19        65.42558
779.60        65.35802
780.02        65.32948
780.43        65.45005
780.84         65.7249
781.26        66.12499
781.67        66.55039
782.09        66.68267
782.50        66.50811
782.91        66.29834
783.33        66.10674
783.74        65.95639
784.15        65.86248
784.57        65.89084
784.98        66.01328
785.39         66.1132
785.81        66.16312
786.22        66.19405
786.63        66.21719
787.04        66.24735
787.46        66.29967
787.87         66.3401
788.28        66.36038
788.70        66.34285
789.11        66.27256
789.52         66.1776
789.93        66.10034
790.35        66.09528
790.76        66.18427
791.17        66.34778
791.58        66.54951
792.00        66.68821
792.41        66.76832
792.82        66.86565
793.23        66.97184
793.65        66.96377
794.06        66.94958
794.47        67.16576
794.88        67.48195
795.29        67.98991
795.71        67.67033
796.12        67.64196
796.53        67.62508
796.94        67.41989
797.35        67.09995
797.76        67.05859
798.18        67.27184
798.59        67.32449
799.00        67.18775
799.41        67.10014
799.82        67.07284
800.23        67.01879
800.64         66.9427
801.06        66.84081
801.47        66.78631
801.88        66.82567
802.29        66.96765
802.70        67.19317
803.11         67.4285
803.52         67.5498
803.93        67.52399
804.34        67.37894
804.75        67.20528
805.17        67.14247
805.58        67.25188
805.99        67.48517
806.40        67.75249
806.81        67.87646
807.22        67.82512
807.63        67.70237
808.04        67.58583
808.45        67.55418
808.86        67.63859
809.27        67.82187
809.68        68.04521
810.09        68.19476
810.50        68.23511
810.91        68.20369
811.32         68.1273
811.73        68.04852
812.14        67.98763
812.55        67.92909
812.96        67.88306
813.37        67.87067
813.78        67.89285
814.19        67.94714
814.60        68.00871
815.01        68.03403
815.42        68.01419
815.83        67.96104
816.24        67.89376
816.65        67.85138
817.05        67.85601
817.46        67.87115
817.87        67.91901
818.28        67.98976
818.69         68.0808
819.10        68.19747
819.51        68.33606
819.92        68.48416
820.33        68.62874
820.74         68.7562
821.14        68.86172
821.55        68.96626
821.96        69.05964
822.37        69.13759
822.78        69.17477
823.19         69.1312
823.60        69.00014
824.00        68.80901
824.41        68.57574
824.82        68.39854
825.23         68.3084
825.64        68.30511
826.04         68.3536
826.45         68.3508
826.86        68.28922
827.27        68.18971
827.68         68.1305
828.08        68.26901
828.49        68.55711
828.90        68.98438
829.31        69.43347
829.72        69.63622
830.12        69.54708
830.53        69.55949
830.94        69.12414
831.35        68.90401
831.75        68.78532
832.16        68.71927
832.57        68.73607
832.97        68.87257
833.38        69.10346
833.79        69.40294
834.20        69.69516
834.60        69.86321
835.01        69.87722
835.42        69.76664
835.82        69.56702
836.23        69.30344
836.64        69.02837
837.04        68.75671
837.45        68.52032
837.86         68.4227
838.26        68.49049
838.67        68.69008
839.08        68.95601
839.48        69.15862
839.89        69.25187
840.29        69.26621
840.70        69.25584
841.11        69.31689
841.51        69.48997
841.92        69.70506
842.33        69.92686
842.73        70.09928
843.14        70.15633
843.54        70.14786
843.95        70.09935
844.35        70.07616
844.76        70.08744
845.17        70.12044
845.57        70.16126
845.98        70.15183
846.38        70.11053
846.79        70.03483
847.19        69.97936
847.60        69.94669
848.00        69.97926
848.41        70.03874
848.81        70.15155
849.22        70.28819
849.62        70.46655
850.03        70.63345
850.43        70.80127
850.84        70.88808
851.24        70.92927
851.65         70.8823
852.05        70.79557
852.46        70.65425
852.86        70.48778
853.27        70.36086
853.67        70.23745
854.07        70.20624
854.48        70.24066
854.88        70.33382
855.29        70.45245
855.69        70.70104
856.10        70.97327
856.50        71.33114
856.90        71.57803
857.31        71.44382
857.71        70.94803
858.12        70.11904
858.52        69.22691
858.92        68.66425
859.33        68.53925
859.73        68.80331
860.13        69.26234
860.54        69.57327
860.94        69.68588
861.34         69.6526
861.75        69.53085
862.15        69.50099
862.55        69.56906
862.96        69.64042
863.36        69.69302
863.76        69.65821
864.17        69.51259
864.57        69.32811
864.97        69.08784
865.38        68.73495
865.78        68.32787
866.18        67.88377
866.58        67.54562
866.99        67.54211
867.39        67.94192
867.79        68.61881
868.19        69.36674
868.60         69.8222
869.00        69.97823
869.40        70.08266
869.80        70.09391
870.21        69.77819
870.61        69.22234
871.01        68.55752
871.41        67.93626
871.81        67.48806
872.22        67.26806
872.62        67.27158
873.02        67.45139
873.42        67.85101
873.82        68.23915
874.22        68.16087
874.63         67.8597
875.03        67.83378
875.43        68.13963
875.83        69.37713
876.23        69.08505
876.63        68.54623
877.03        67.51303
877.44        65.48869
877.84        161.8283
878.24        66.18539
878.64        67.04654
879.04        68.67196
879.44        69.42566
879.84        66.76939
880.24        71.17629
880.64        71.33288
881.04        69.21223
881.44        67.60034
881.84        67.01548
882.24        67.52281
882.65        68.52867
883.05        68.75166
883.45        67.93537
883.85        66.88898
884.25        66.03676
884.65        65.68185
885.05        65.94875
885.45        66.64608
885.85        67.50748
886.25        68.18501
886.65        68.56673
887.05         68.7595
887.45        68.77589
887.85        68.63805
888.25        68.38692
888.65        67.99484
889.04        67.61057
889.44        67.50136
889.84        67.70869
890.24        68.16232
890.64        68.65362
891.04        68.85606
891.44        68.71137
891.84        68.33037
892.24        67.87174
892.64        67.61557
893.04        67.64634
893.44        67.85627
893.83        68.18259
894.23        68.50722
894.63        68.79185
895.03        69.09144
895.43        69.33513
895.83        69.39471
896.23        69.27088
896.63        68.99292
897.02        68.72231
897.42        68.77871
897.82         69.1659
898.22        69.76936
898.62        70.37698
899.01        70.64584
899.41        70.46673
899.81        69.98532
900.21        69.31795
900.61        68.66042
901.00        68.10216
901.40        67.65549
901.80        67.41518
902.20        67.40459
902.59        67.59122
902.99        68.19181
903.39        69.11214
903.79        68.73817
904.18        69.28269
904.58        69.01308
904.98        68.65809
905.38        68.25011
905.77        67.84612
906.17        67.44271
906.57        67.17084
906.96        67.34501
907.36        67.99083
907.76        69.03245
908.15        70.18278
908.55        70.79778
908.95          70.759
909.34        70.16961
909.74        69.38942
910.14        68.98105
910.53         69.0899
910.93        69.54445
911.33        70.02754
911.72         70.0285
912.12        69.46212
912.52        68.54236
912.91        67.57511
913.31        67.10316
913.70        67.23415
914.10        67.78519
914.49        68.55064
914.89        69.10274
915.29        69.31605
915.68         69.2845
916.08        69.12664
916.47        68.98188
916.87        68.93973
917.26        68.95123
917.66         68.9719
918.05        68.96542
918.45        68.90775
918.84        68.83277
919.24        68.82401
919.64        69.06236
920.03        69.55807
920.42        70.21528
920.82        70.80196
921.21        70.97148
921.61        70.67954
922.00        70.10241
922.40        69.51958
922.79        69.26855
923.19        69.12819
923.58        69.73571
923.98        71.28157
924.37        71.50716
924.77        69.19624
925.16        75.97933
925.55         70.8259
925.95        71.10907
926.34        70.87943
926.74        70.00867
927.13        68.52637
927.52        67.55614
927.92        67.59381
928.31        68.04966
928.70        68.77315
929.10        69.46623
929.49        70.04747
929.89        70.60916
930.28        71.04111
930.67        71.04169
931.07        70.59677
931.46         69.6945
931.85         68.7143
932.24        68.70466
932.64        69.82098
933.03         71.2402
933.42          72.179
933.82        74.30325
934.21        73.02446
934.60        71.95351
934.99        70.79662
935.39        70.41948
935.78        70.87775
936.17         72.4854
936.56        77.79008
936.96        71.75957
937.35        74.93087
937.74        72.08205
938.13        70.04108
938.53        68.45087
938.92        67.94583
939.31         68.9478
939.70        70.36228
940.09        71.10071
940.49        70.91142
940.88         70.1959
941.27        69.29012
941.66        68.81978
942.05         69.0246
942.44        69.63145
942.84        70.34988
943.23        70.88577
943.62        71.12038
944.01        71.13212
944.40         71.0817
944.79        71.21569
945.18         71.5785
945.57        72.08498
945.97        72.42987
946.36        72.26001
946.75        71.48208
947.14         70.2335
947.53        68.94599
947.92        68.35712
948.31        68.65269
948.70        69.59975
949.09        70.72431
949.48        71.28761
949.87        71.10616
950.26        70.40725
950.65        69.50813
951.04        68.93104
951.43         68.8468
951.82        69.08928
952.21        69.49649
952.60        69.80271
952.99        69.90673
953.38        69.90794
953.77         69.8848
954.16        69.93172
954.55        70.07919
954.94        70.28806
955.33        70.49534
955.72        70.60723
956.11        70.59459
956.50        70.48241
956.89        70.37103
957.28        70.41158
957.66        70.66782
958.05        71.03436
958.44        71.38218
958.83        71.50452
959.22        71.34785
959.61        70.93362
960.00        70.42966
960.39        70.16001
960.78         70.2211
961.16        70.56642
961.55        70.86103
961.94        70.71324
962.33        70.05779
962.72        68.98887
963.11        67.87261
963.49        67.47009
963.88        67.99201
964.27        69.16425
964.66        70.44422
965.04         71.1013
965.43        70.93052
965.82        70.18617
966.21        69.19778
966.60        68.55668
966.98        68.47386
967.37        68.76403
967.76         69.2311
968.15        69.55261
968.53        69.64503
968.92        69.60807
969.31        69.54104
969.69        69.57726
970.08        69.71558
970.47        69.85815
970.86        69.99088
971.24        70.12305
971.63        70.21778
972.02        70.31614
972.40         70.3072
972.79        69.91511
973.17        69.19214
973.56        68.24539
973.95        67.40548
974.33        67.25748
974.72        67.92984
975.11        69.18555
975.49        70.78003
975.88        72.22336
976.26        73.36214
976.65        74.21124
977.04        74.65622
977.42        74.51437
977.81        73.76199
978.19        72.39625
978.58        70.97382
978.96        70.52565
979.35        71.28024
979.74        72.85799
980.12        74.58324
980.51        75.42479
980.89        75.34657
981.28        74.56194
981.66        73.37197
982.05         72.5662
982.43        72.46245
982.82        72.80096
983.20        73.39548
983.59        73.92324
983.97        74.30894
984.35        74.68168
984.74        74.84074
985.12        74.51222
985.51        73.68532
985.89        72.53785
986.28        71.49722
986.66        71.23999
987.04        71.90785
987.43        73.21234
987.81        74.57195
988.20        76.01031
988.58        77.35246
988.96        76.86355
989.35        74.16284
989.73        78.39452
990.12        74.96372
990.50         75.0706
990.88         74.7655
991.27         74.7553
991.65        74.99728
992.03        75.64209
992.42        76.46151
992.80        76.58067
993.18        75.81208
993.56        74.38729
993.95        72.78848
994.33        71.79626
994.71        71.66071
995.10        72.17307
995.48        73.03278
995.86        73.70834
996.24         74.0209
996.63        74.04983
997.01        74.08438
997.39        74.37282
997.77        74.94249
998.15        75.64369
998.54        76.29018
998.92        76.52262
999.30        76.30209
999.68        75.76083
1000.06        75.07703
1000.45        74.56905
1000.83        74.52378
1001.21        74.85678
1001.59        75.53031
1001.97        76.46457
1002.35        77.52035
1002.73        78.58224
1003.12        79.58054
1003.50        80.50449
1003.88        81.34649
1004.26        82.15699
1004.64        82.69925
1005.02        82.50864
1005.40        81.46716
1005.78        79.67793
1006.16        77.77901
1006.54        76.81684
1006.92         77.0612
1007.30        78.30807
1007.69        79.77017
1008.07        80.33684
1008.45        79.74422
1008.83        78.27473
1009.21        76.68533
1009.59        76.54116
1009.97        78.13076
1010.35         80.5706
1010.73        82.91026
1011.11        84.38455
1011.49        84.97956
1011.86        84.79994
1012.24        83.72569
1012.62        83.96883
1013.00        83.73115
1013.38        82.79239
1013.76        80.08942
1014.14        82.99923
1014.52        88.08184
1014.90         81.5854
1015.28        83.00928
1015.66        84.73327
1016.04        82.55055
1016.41        83.49654
1016.79         83.4025
1017.17        83.25463
1017.55        82.59396
1017.93        81.64577
1018.31         80.8652
1018.69        80.61383
1019.06         81.0621
1019.44        82.02477
1019.82        83.00359
1020.20         83.2909
1020.58        82.74887
1020.95        81.38059
1021.33        79.68253
1021.71        79.05321
1022.09         80.0992
1022.46        82.04381
1022.84        83.90669
1023.22         85.0416
1023.60        85.53012
1023.97        85.71765
1024.35        85.72202
1024.73        85.72573
