SpectraSmart Spectrum 2.9.0.0
--------- Device Information -----------
Spectrum Name :  反射率_0
Saving Time :  2024/04/21 00:52:02
Spectro-Module Model Name : SE2030-DUVN
Spectro-Module Serial Number : OS361AC55029948
Wavelength Start : 200
Wavelength End : 1025
Wavelength Unit : Wavelength(nm)
Spectrum Unit : Reflectance(%)
-----------Spectrum Setting ------------
Integration Time : 20ms
Average : 10
Boxcar : 0
Background removal :  enabled
linearity correction :  enabled
SC :  disabled
Intensity correction :  disabled
DWT denoise :  enabled
savitzky-golay :  disabled
FFT :  disabled
Running average :  disabled
Kalman :  disabled
High pass :  disabled
---------------BEGIN--------------------
Wavelength(nm)             Reflectance(%)
200.29               0
200.75       -119.8514
201.21       -60.09893
201.67       -25.89696
202.13       -13.36348
202.58       -14.10132
203.04       -22.35469
203.50       -35.58783
203.96       -46.74481
204.42       -51.63792
204.88       -53.66456
205.34       -55.22413
205.80       -60.61814
206.26       -71.15096
206.72       -81.56543
207.18       -93.06366
207.64       -109.2399
208.10       -125.8305
208.55       -142.6524
209.01       -133.9352
209.47       -80.70898
209.93       -24.53105
210.39         15.7667
210.85          39.312
211.31         47.7593
211.77        44.78135
212.23        30.30116
212.69       -3.057686
213.14       -65.93723
213.60        -177.448
214.06       -480.5057
214.52       -1130.415
214.98       -510.5079
215.44       -159.4644
215.90       -44.56055
216.36       -6.313563
216.81       0.1216698
217.27       -16.59567
217.73       -113.0601
218.19        1063.699
218.65        434.2029
219.11       -990.8358
219.57       -56.91702
220.02        2.745781
220.48         14.1754
220.94         10.8578
221.40       -6.558423
221.86       -48.67072
222.32       -71.88679
222.77       -29.10855
223.23        5.149833
223.69        21.69538
224.15        26.87251
224.61        26.20449
225.06        22.98956
225.52        17.85059
225.98        11.31264
226.44         4.19408
226.90       -4.825382
227.36       -10.79062
227.81       -5.068434
228.27          7.7627
228.73        21.10257
229.19        29.63626
229.65        30.64242
230.10        25.25997
230.56        15.15101
231.02         2.21047
231.48       -5.843831
231.93       -3.879724
232.39          4.7507
232.85        14.19617
233.31        19.72358
233.77        21.61114
234.22        21.97416
234.68        21.18234
235.14        19.74866
235.60        18.34686
236.05        15.81319
236.51        12.70784
236.97        16.87734
237.43        28.93634
237.88        37.40533
238.34        37.77093
238.80        60.55561
239.26         49.3474
239.71        44.94019
240.17        32.49824
240.63        19.57705
241.08        12.06547
241.54         14.4868
242.00        26.60653
242.46        34.11775
242.91        32.92595
243.37        24.23784
243.83        10.82891
244.28        4.543183
244.74        11.93196
245.20        25.77368
245.66        37.34184
246.11        38.51248
246.57        28.64686
247.03        10.57827
247.48       -12.15553
247.94       -33.56306
248.40        -54.2415
248.85       -89.49844
249.31       -171.9956
249.77       -194.7135
250.22       -56.27249
250.68       -10.58253
251.14        2.296919
251.59        6.310141
252.05         7.58843
252.51        8.226384
252.96        7.558917
253.42        5.927823
253.88        5.150986
254.33        6.447807
254.79        14.09274
255.25        28.53341
255.70        43.49651
256.16        55.27197
256.62        62.57291
257.07        64.98366
257.53        64.57214
257.99        62.80766
258.44         60.3255
258.90        58.29987
259.35        56.41871
259.81        54.85246
260.27        53.60712
260.72        52.81356
261.18        52.62386
261.63        52.59029
262.09        52.51204
262.55        51.79826
263.00        50.43234
263.46        48.83229
263.91        47.22674
264.37        46.32583
264.83        46.06478
265.28        46.13534
265.74        46.25893
266.19        45.87832
266.65        44.99331
267.11        43.75006
267.56         42.3673
268.02        41.26219
268.47        40.48239
268.93          39.926
269.38        39.40352
269.84          38.695
270.30         37.7313
270.75        36.60246
271.21        35.45205
271.66        34.42365
272.12         33.5891
272.57        32.87623
273.03         32.2336
273.48        31.54359
273.94         30.8107
274.39           30.06
274.85        29.37168
275.31        28.79124
275.76        28.32025
276.22        27.95344
276.67        27.65629
277.13        27.45974
277.58        27.30597
278.04        27.20375
278.49        27.05112
278.95        26.78653
279.40        26.36257
279.86        25.84037
280.31        25.25867
280.77        24.76075
281.22         24.3462
281.68        24.04152
282.13        23.75662
282.59        23.43252
283.04        23.03955
283.50        22.62904
283.95        22.29496
284.41        22.20068
284.86        22.35054
285.32        22.69462
285.77        23.06312
286.22        23.22905
286.68        23.17366
287.13        22.93113
287.59        22.70871
288.04        22.71483
288.50        22.96122
288.95        23.48263
289.41        24.13943
289.86        24.24327
290.32        23.68246
290.77        24.46415
291.22        23.49315
291.68        23.59533
292.13        23.88044
292.59        24.38837
293.04        25.06196
293.50        25.88289
293.95        26.84738
294.40        27.94119
294.86        29.15432
295.31        30.45406
295.77         31.8176
296.22        33.21492
296.68        34.63435
297.13        36.06199
297.58        37.51007
298.04        38.98529
298.49         40.4971
298.95          42.081
299.40        43.72368
299.85        45.42335
300.31        47.14978
300.76        48.83208
301.21        50.46248
301.67        52.07247
302.12        53.68565
302.58        55.44445
303.03        57.33617
303.48        59.36943
303.94        61.45129
304.39        63.38427
304.84        65.13887
305.30        66.77931
305.75        68.38806
306.20        70.19981
306.66        72.24055
307.11        74.37073
307.57        76.44779
308.02        78.18782
308.47        79.56071
308.93        80.69009
309.38        81.67004
309.83        82.70378
310.29        83.91385
310.74        85.16668
311.19        86.40404
311.65        87.49201
312.10        88.38296
312.55        89.13677
313.00        89.82457
313.46        90.55451
313.91        91.33755
314.36        92.14361
314.82        92.92211
315.27        93.59061
315.72        94.13995
316.18        94.60213
316.63        95.01892
317.08        95.46116
317.53        95.93917
317.99        96.41394
318.44        96.85833
318.89        97.21489
319.35        97.47094
319.80        97.67151
320.25        97.80994
320.70        97.88023
321.16        97.88824
321.61        97.84271
322.06        97.83514
322.51        98.02044
322.97        98.40333
323.42         98.9791
323.87        99.55414
324.32        99.81747
324.78        99.68761
325.23         99.2957
325.68        98.85554
326.13        98.75366
326.59        99.06434
327.04        99.71478
327.49        100.4906
327.94         101.061
328.39        101.3125
328.85        101.3125
329.30        101.2117
329.75        101.1376
330.20        101.1571
330.66        101.1886
331.11        101.2896
331.56        101.4352
332.01        101.6234
332.46        101.8756
332.92        102.1405
333.37        102.4476
333.82        102.7431
334.27        103.0293
334.72        103.3152
335.17        103.6248
335.63        103.9363
336.08        104.2974
336.53        104.6743
336.98        105.0598
337.43        105.4462
337.88         105.826
338.34        106.1847
338.79        106.5522
339.24        106.9055
339.69        107.2466
340.14        107.5474
340.59        107.7698
341.05        107.9181
341.50        108.0149
341.95         108.127
342.40        108.3672
342.85        108.7561
343.30        109.2573
343.75         109.777
344.20         110.167
344.66        110.3964
345.11        110.4876
345.56        110.5176
346.01        110.6094
346.46        110.7952
346.91        111.0231
347.36        111.2254
347.81        111.3376
348.26        111.3474
348.72        111.1659
349.17        111.0667
349.62        110.9569
350.07        110.9305
350.52        110.9511
350.97        110.9679
351.42        110.8983
351.87        110.7146
352.32        110.4394
352.77        110.1157
353.22         109.805
353.67        109.5213
354.13        109.2646
354.58        108.9594
355.03        108.5412
355.48         108.007
355.93        107.3887
356.38        106.7738
356.83        106.2909
357.28         105.948
357.73         105.684
358.18         105.395
358.63        104.9181
359.08        104.2215
359.53        103.3791
359.98        102.4526
360.43        101.5302
360.88        100.6513
361.33        99.78906
361.78          98.992
362.23        98.33917
362.68        97.82893
363.13        97.43575
363.58        97.04047
364.03         96.4474
364.48        95.61359
364.93        94.59411
365.38        93.50459
365.83        92.54247
366.28        91.76559
366.73        91.11499
367.18        90.52727
367.63        89.89876
368.08        89.19853
368.53        88.47282
368.98        87.72776
369.43        86.95747
369.88        86.16023
370.33        85.31699
370.78         84.4676
371.23        83.70408
371.68        83.05762
372.13         82.5191
372.58        82.02136
373.03        81.43963
373.48        80.74118
373.93        79.95798
374.38        79.17101
374.83        78.52332
375.28        78.05217
375.72          77.696
376.17        77.38649
376.62        76.96247
377.07        76.37952
377.52        75.67101
377.97        74.91679
378.42           74.27
378.87        73.78292
379.32        73.41478
379.77        73.08142
380.22        72.64632
380.67        72.07294
381.11        71.40924
381.56        70.72192
382.01        70.14171
382.46        69.71897
382.91        69.41918
383.36        69.18205
383.81        68.91387
384.26        68.58269
384.71        68.20939
385.15        67.81986
385.60        67.51366
386.05        67.27911
386.50        67.08369
386.95        66.86405
387.40        66.53355
387.85        66.09325
388.29        65.55416
388.74        65.06756
389.19         64.6686
389.64        64.36126
390.09        64.10568
390.54        63.88447
390.98         63.6601
391.43        63.45786
391.88         63.2849
392.33        63.10453
392.78        62.87479
393.23        62.59506
393.67        62.20551
394.12         61.8536
394.57          61.686
395.02        61.67204
395.47        61.59708
395.91        61.40746
396.36        61.16286
396.81        60.86885
397.26        60.48505
397.71        60.08923
398.15        59.79934
398.60        59.69114
399.05        59.65932
399.50        59.67164
399.95        59.67497
400.39        59.64664
400.84        59.60988
401.29        59.51138
401.74        59.11988
402.18        58.51372
402.63        58.05451
403.08        57.79239
403.53        57.51373
403.97        57.24169
404.42         57.1659
404.87         57.2235
405.32        57.25188
405.76        57.20945
406.21        57.08738
406.66        56.93204
407.11        56.91803
407.55        57.01051
408.00        56.97221
408.45        56.78062
408.90        56.40451
409.34        55.97217
409.79        55.90176
410.24        56.11944
410.68        56.13954
411.13         55.9371
411.58        55.80106
412.03        55.76994
412.47        55.77479
412.92        55.80101
413.37         55.8761
413.81        55.95252
414.26        56.00599
414.71        56.01097
415.15        55.97943
415.60         55.9118
416.05        55.86297
416.49        55.84786
416.94        55.84582
417.39        55.82625
417.83        55.73482
418.28        55.56742
418.73         55.3428
419.17        55.11568
419.62        54.98516
420.07        54.97373
420.51         55.0471
420.96        55.16244
421.41        55.22157
421.85        55.18104
422.30        55.07659
422.74        54.94156
423.19         54.9725
423.64          55.141
424.08        55.28898
424.53        55.31851
424.98        55.32328
425.42        55.30426
425.87        55.12679
426.31        54.88714
426.76        54.88388
427.21         55.0919
427.65        55.20811
428.10        55.17065
428.54        55.18608
428.99        55.27282
429.44        55.25384
429.88        55.13924
430.33        55.15034
430.77        55.21107
431.22        55.21741
431.66        55.14491
432.11        55.12717
432.56        55.21542
433.00        55.11731
433.45        54.73069
433.89        54.88289
434.34        55.60941
434.78        54.70496
435.23        54.63511
435.67        55.28212
436.12        54.62385
436.57        54.95953
437.01        55.41342
437.46        55.45695
437.90        55.61427
438.35        55.47905
438.79        55.49353
439.24        55.42602
439.68        55.36275
440.13        55.32416
440.57        55.30195
441.02          55.313
441.46        55.33432
441.91        55.37699
442.35        55.39797
442.80        55.55349
443.24        55.77821
443.69        55.96301
444.13        56.02477
444.58        55.89862
445.02        55.63268
445.47        55.53397
445.91        55.59495
446.36        55.58081
446.80        55.48457
447.24        55.41356
447.69        55.39026
448.13        55.53378
448.58        55.63485
449.02        55.56217
449.47        55.30835
449.91        55.16528
450.36        55.16667
450.80        55.07623
451.25        54.93185
451.69        54.93083
452.13        55.03154
452.58        54.95782
453.02        54.70718
453.47        54.51757
453.91        54.39304
454.36        54.20778
454.80        53.98369
455.24        53.85613
455.69         53.8558
456.13        53.85571
456.58         53.8413
457.02        53.99017
457.46        53.95482
457.91         53.8289
458.35        53.65842
458.79        53.53011
459.24        53.47791
459.68        53.46287
460.13        53.53586
460.57        53.40562
461.01        53.02709
461.46         53.4578
461.90        53.31628
462.34        52.73554
462.79        52.80409
463.23        52.67511
463.68        53.14409
464.12        53.04112
464.56        52.59863
465.01        52.62617
465.45        52.96636
465.89        52.95984
466.34        52.63139
466.78        52.37413
467.22        52.24593
467.67        52.14244
468.11        51.88622
468.55        51.89639
468.99        52.03456
469.44        52.01436
469.88          51.807
470.32        51.54033
470.77        51.29049
471.21        51.12479
471.65        51.07447
472.10        51.12349
472.54        51.20639
472.98        51.24956
473.42        51.23719
473.87        51.16093
474.31        51.05062
474.75         51.1335
475.20        51.35399
475.64        51.39674
476.08        51.28671
476.52        51.24818
476.97        51.24788
477.41          51.347
477.85        51.52657
478.29        51.06719
478.74        50.77906
479.18        50.95649
479.62        50.79939
480.06        50.88487
480.50        50.93435
480.95        51.00542
481.39        50.99047
481.83        51.35389
482.27        51.48695
482.72        51.05206
483.16        51.32114
483.60        51.31097
484.04        51.34541
484.48        51.10771
484.93         51.1691
485.37        50.91212
485.81        51.24784
486.25         51.2086
486.69        52.99458
487.14        53.37257
487.58         52.1342
488.02        51.28495
488.46        51.09085
488.90        50.74246
489.34        50.85772
489.79        50.33902
490.23        50.74053
490.67        50.71719
491.11        50.69215
491.55        50.66359
491.99        50.64903
492.43        50.63044
492.88        50.60439
493.32        50.61647
493.76        50.61217
494.20        50.60759
494.64          50.626
495.08        50.26038
495.52        50.23749
495.96        50.25168
496.41        50.43143
496.85        50.42179
497.29        50.20903
497.73        50.21228
498.17        50.16225
498.61        50.22265
499.05        50.25472
499.49        50.06549
499.93        49.76598
500.37        49.74948
500.82        49.97489
501.26        50.19131
501.70        50.30198
502.14        49.95946
502.58         49.6732
503.02        49.51068
503.46        49.58688
503.90        49.70849
504.34        49.79792
504.78        49.86142
505.22        49.88792
505.66        49.81877
506.10        49.67754
506.54        49.69673
506.98        49.92657
507.42        49.56778
507.86        49.93845
508.30        49.87011
508.74        49.79591
509.18        49.65943
509.62        49.51758
510.06        49.44053
510.50        49.41834
510.94        49.38667
511.38        49.33508
511.82        49.30531
512.26         49.2928
512.70        49.26258
513.14        49.20432
513.58        49.17186
514.02        49.17718
514.46        49.10627
514.90        48.91378
515.34        49.12655
515.78        48.89923
516.22        48.84156
516.66        48.57982
517.10        48.88255
517.54        48.60736
517.98        48.66025
518.42        48.69685
518.86        48.71254
519.30        48.69947
519.74        48.64165
520.18        48.58743
520.62        48.66123
521.06        48.83276
521.50        48.90279
521.93        48.85882
522.37          48.838
522.81        48.84182
523.25        48.78753
523.69        48.67723
524.13        48.55978
524.57        48.44692
525.01        48.32879
525.45           48.24
525.89        48.23383
526.32        48.31556
526.76        48.47403
527.20        48.65078
527.64        48.76312
528.08        48.78927
528.52        48.72021
528.96         48.6098
529.40        48.61256
529.83        48.70936
530.27        48.73349
530.71        48.66841
531.15        48.63224
531.59         48.6225
532.03        48.56245
532.46        48.47006
532.90        48.42515
533.34         48.4321
533.78         48.4711
534.22        48.50459
534.66         48.4752
535.09         48.3693
535.53        48.22546
535.97        48.08661
536.41        48.03173
536.85        48.07692
537.28        48.19529
537.72        48.33759
538.16        48.42484
538.60        48.43265
539.04        48.38457
539.47        48.30159
539.91        48.25597
540.35        48.25034
540.79        48.26958
541.22        48.29109
541.66        48.29156
542.10        48.26203
542.54        48.21457
542.97        48.16603
543.41        48.16451
543.85        48.21221
544.29        48.30172
544.72        48.39169
545.16         48.4536
545.60        48.46489
546.04        48.40524
546.47        48.32526
546.91        48.34581
547.35         48.4417
547.79         48.5308
548.22        48.55022
548.66         48.3867
549.10        48.12847
549.53        48.10932
549.97        48.30936
550.41        48.36831
550.84        48.26792
551.28        48.21935
551.72        48.23841
552.15        48.26777
552.59        48.30421
553.03        48.31139
553.46        48.29033
553.90        48.27092
554.34        48.23146
554.77        48.23418
555.21        48.34551
555.65        48.10359
556.08        48.38575
556.52        48.52324
556.96        48.69038
557.39        48.64338
557.83        48.43155
558.27        48.29016
558.70        48.26023
559.14        48.25669
559.57        48.28223
560.01        48.43545
560.45        48.63286
560.88        48.71822
561.32        48.69118
561.75        48.49513
562.19        48.24881
562.63        48.20195
563.06        48.32925
563.50        48.36641
563.93        48.28558
564.37        48.22665
564.80        48.20729
565.24        48.31565
565.68         48.5072
566.11        48.59839
566.55        48.58978
566.98        48.59066
567.42        48.62437
567.85        48.61093
568.29        48.60794
568.72        48.65725
569.16        48.78355
569.60        48.94896
570.03        49.01741
570.47        49.14698
570.90        49.28295
571.34        49.28756
571.77        49.60171
572.21        49.46334
572.64        49.63308
573.08        49.37136
573.51        49.17699
573.95        49.67211
574.38        50.01519
574.82        50.41267
575.25        50.37833
575.69        50.23863
576.12         49.6426
576.56        49.90358
576.99        50.10882
577.42        49.96776
577.86        50.33733
578.29        50.61947
578.73        51.36351
579.16        50.52021
579.60        49.81918
580.03         49.7163
580.47        50.02038
580.90        49.94968
581.33        50.39713
581.77        50.52734
582.20        50.99052
582.64        51.18599
583.07        50.96091
583.51        50.58528
583.94        49.93395
584.37        49.44788
584.81        49.39373
585.24         49.6923
585.68        50.50678
586.11          50.187
586.54        50.26135
586.98        49.82051
587.41        49.43275
587.85        49.63489
588.28        49.90128
588.71        50.25726
589.15        49.65992
589.58        49.59451
590.01        49.09676
590.45        49.30827
590.88        49.40968
591.31        49.14902
591.75        48.96811
592.18        48.73738
592.61        48.72242
593.05        49.43538
593.48        49.64033
593.91        50.22294
594.35        50.01359
594.78        49.80173
595.21        49.44089
595.65        49.26699
596.08         49.2891
596.51        49.39463
596.94        49.13862
597.38        49.06335
597.81        49.05402
598.24        49.32475
598.68        49.19656
599.11        49.21303
599.54        49.93342
599.97        49.65281
600.41        49.58964
600.84        49.81666
601.27        49.55486
601.70        49.59304
602.14        49.46105
602.57        49.32985
603.00        49.14326
603.43        49.62231
603.87        49.76485
604.30        49.79198
604.73        49.82998
605.16        49.37586
605.60        49.60468
606.03        49.54548
606.46        49.55024
606.89        49.49763
607.32        48.85677
607.76        49.91164
608.19        49.43297
608.62        49.28099
609.05        50.09596
609.48        49.44934
609.92        49.49155
610.35        49.27134
610.78        49.75422
611.21        49.26876
611.64        49.46681
612.07        49.32022
612.50        49.29402
612.94        49.27435
613.37         49.2806
613.80        49.35629
614.23        49.43119
614.66        49.32759
615.09        49.10143
615.52         48.9934
615.96        48.99081
616.39        48.99907
616.82        49.04971
617.25        48.65499
617.68        48.89889
618.11        48.84482
618.54        48.93106
618.97        48.88196
619.40        48.73558
619.84        48.73143
620.27        48.61075
620.70        48.58179
621.13        48.56182
621.56        48.50881
621.99        48.53158
622.42        48.60562
622.85        48.70741
623.28        48.86049
623.71        48.76847
624.14        48.84818
624.57        49.05712
625.00        49.13828
625.43         48.8986
625.86        48.88197
626.29         49.0647
626.72        48.62683
627.15        48.70004
627.58        48.51661
628.01        48.46694
628.44        48.26496
628.87        48.14744
629.30        48.43863
629.73        48.38622
630.16         48.2709
630.59        48.19516
631.02         48.3418
631.45        48.12839
631.88        48.13749
632.31        48.18985
632.74        48.03779
633.17        48.15382
633.60        48.09884
634.03        48.01868
634.46        47.96929
634.89        47.89305
635.32        47.84188
635.75        47.80985
636.18        47.87414
636.61        47.99925
637.04        48.05236
637.47        48.00509
637.89        47.96277
638.32        47.95276
638.75        47.88235
639.18        47.73278
639.61        48.05306
640.04        47.86661
640.47         47.9214
640.90         47.9243
641.33        47.90788
641.76        47.87405
642.18        47.85007
642.61        47.84032
643.04        47.83446
643.47        47.83174
643.90        47.83571
644.33        47.84544
644.76        47.84555
645.18        47.83985
645.61         47.8641
646.04        47.90273
646.47        47.87646
646.90        47.80296
647.33        47.78342
647.75        47.81948
648.18        47.87725
648.61         47.9592
649.04        48.01815
649.47        48.03345
649.89        48.29673
650.32        48.26014
650.75        48.31977
651.18        48.30497
651.61         48.1845
652.03         48.0027
652.46        47.90856
652.89        47.96478
653.32        47.98735
653.74        47.94958
654.17        48.07273
654.60        48.13181
655.03        47.54543
655.46        47.91222
655.88        48.67382
656.31        50.29361
656.74        55.70262
657.16        54.46379
657.59        53.04392
658.02        50.09611
658.45        48.50327
658.87        48.40672
659.30        48.44516
659.73        48.14077
660.15        48.04462
660.58        48.03429
661.01        48.25386
661.44        48.54816
661.86        48.37527
662.29        47.83683
662.72        47.73485
663.14        48.07113
663.57        48.17483
664.00        48.02288
664.42        48.01889
664.85        48.16302
665.27        48.14479
665.70        48.12643
666.13        48.10354
666.55        48.13551
666.98        48.17747
667.41        48.21495
667.83        48.23456
668.26        48.23471
668.69        48.17859
669.11        48.08953
669.54        48.14449
669.96        48.38249
670.39        48.19435
670.82        48.66962
671.24        48.55003
671.67        48.24915
672.09        48.24355
672.52        48.52477
672.94        48.58046
673.37        48.41218
673.80        48.36956
674.22           48.46
674.65        48.46693
675.07        48.40023
675.50        48.33588
675.92        48.29915
676.35        48.29237
676.77        48.31673
677.20        48.38866
677.62        48.50398
678.05         48.5556
678.47        48.51358
678.90        48.75113
679.32        48.62415
679.75        48.67674
680.17        48.71785
680.60        48.76307
681.02        48.78388
681.45        48.74908
681.87        48.66551
682.30        48.52053
682.72        48.39267
683.15        48.39955
683.57        48.51241
684.00        48.78202
684.42        48.70163
684.85         48.7716
685.27        48.83177
685.70        48.81473
686.12        48.72748
686.54         48.6746
686.97        48.67008
687.39        48.68264
687.82        48.69431
688.24        48.77374
688.66        48.70716
689.09        48.85094
689.51        48.78816
689.94        48.86306
690.36        48.94817
690.78        48.97332
691.21        48.95139
691.63        48.91464
692.06        48.90565
692.48        48.99871
692.90        49.15619
693.33        49.20852
693.75        49.15931
694.17        49.10382
694.60        49.04766
695.02        49.09655
695.44        49.03291
695.87        48.93775
696.29        48.80519
696.71        48.75763
697.14        48.81647
697.56        49.02594
697.98        49.31293
698.41        49.38845
698.83        49.45359
699.25        49.39578
699.68        49.29993
700.10        49.17624
700.52        49.04534
700.94        48.90499
701.37        48.77182
701.79        48.71545
702.21        48.73127
702.64        48.81291
703.06        48.92299
703.48         49.0018
703.90        49.03647
704.33         49.0411
704.75         49.0349
705.17        49.03476
705.59          49.049
706.01        49.06279
706.44          49.096
706.86        49.19138
707.28        49.33617
707.70        49.52979
708.12         49.7164
708.55        49.76871
708.97        49.68251
709.39        49.57083
709.81        49.47181
710.23        49.38775
710.66        49.34431
711.08        49.37293
711.50         49.4459
711.92        49.50849
712.34        49.54755
712.76        49.58118
713.19        49.59993
713.61        49.62387
714.03         49.6367
714.45        49.64154
714.87        49.65227
715.29        49.66031
715.71        49.66174
716.13         49.7873
716.56        49.77335
716.98        49.80675
717.40        49.79928
717.82        49.76433
718.24        49.72211
718.66        49.70984
719.08        49.73912
719.50        49.79707
719.92        49.86396
720.34        49.90736
720.76        49.91793
721.19        49.89785
721.61        49.87683
722.03        49.87869
722.45        49.91227
722.87        49.97266
723.29          50.041
723.71        50.08683
724.13        50.10402
724.55        50.09932
724.97         50.1043
725.39        50.17009
725.81        50.30315
726.23         50.4824
726.65         50.6567
727.07        50.75352
727.49        50.75714
727.91        50.67384
728.33        50.55381
728.75        50.51865
729.17        50.57121
729.59        50.61157
730.01        50.63356
730.43         50.6569
730.85         50.7066
731.27        50.84951
731.69        51.04326
732.10        51.12127
732.52        51.19753
732.94        50.95044
733.36        50.54825
733.78        50.38124
734.20         50.5121
734.62         50.7424
735.04        50.96824
735.46        51.12558
735.88        51.17806
736.30        51.07842
736.72        50.89362
737.13        50.92094
737.55        51.08324
737.97        50.97307
738.39        50.63547
738.81         50.4761
739.23         50.5237
739.65        50.59444
740.06        50.60669
740.48        50.59198
740.90        50.51252
741.32        50.37462
741.74        50.25318
742.16        50.27114
742.57        50.45906
742.99        50.75887
743.41        51.06474
743.83        51.19513
744.25        51.11123
744.67        50.86622
745.08        50.58003
745.50        50.42231
745.92        50.45712
746.34        50.63158
746.75        50.85628
747.17        50.98224
747.59        50.97095
748.01          50.847
748.42        50.68921
748.84        50.64633
749.26        50.72214
749.68        50.81855
750.09        50.88844
750.51        50.83566
750.93        50.71432
751.35        50.79302
751.76        51.03874
752.18        51.13746
752.60        51.06907
753.01        51.03326
753.43        51.00073
753.85        50.88317
754.27        50.69041
754.68         50.4534
755.10        50.25257
755.52        50.19276
755.93        50.28967
756.35         50.5052
756.77        50.76853
757.18        50.94869
757.60        51.01243
758.02        51.01385
758.43        50.99821
758.85         50.8634
759.26        51.11041
759.68         50.9721
760.10        50.56421
760.51        50.50286
760.93        51.24825
761.34        51.35603
761.76        51.03558
762.18           50.98
762.59        51.17869
763.01        51.34531
763.42        50.80488
763.84        50.94798
764.26        51.07798
764.67        51.38479
765.09        51.63297
765.50        51.76915
765.92        51.76837
766.33        51.59359
766.75        51.30176
767.16        51.07242
767.58        50.92167
768.00        51.02171
768.41        51.33979
768.83        51.26053
769.24        50.79837
769.66        51.32842
770.07        51.50994
770.49         51.4632
770.90         50.9348
771.32        50.87576
771.73        51.26865
772.15        51.40349
772.56         51.2773
772.97        51.27301
773.39        51.37128
773.80        51.40624
774.22        51.34425
774.63         51.2537
775.05        51.15321
775.46        51.11287
775.88        51.13215
776.29        51.20549
776.70        51.28379
777.12         51.3034
777.53        51.26209
777.95        51.17329
778.36        51.07777
778.77        51.03925
779.19        51.07559
779.60        51.17265
780.02        51.29693
780.43        51.42609
780.84        51.54801
781.26        51.61102
781.67        51.65672
782.09        51.81217
782.50        52.01992
782.91        52.05093
783.33        51.91747
783.74        51.90163
784.15        51.99627
784.57        52.06144
784.98         52.0972
785.39        52.13641
785.81        52.17484
786.22        52.20464
786.63        52.21947
787.04        52.21144
787.46        52.18669
787.87        52.12939
788.28        52.06713
788.70        52.00474
789.11        51.92698
789.52        51.92526
789.93        51.97436
790.35        51.82506
790.76        51.57422
791.17        51.69108
791.58        52.10076
792.00         52.2447
792.41        52.10231
792.82        51.99541
793.23        52.02651
793.65        52.08688
794.06         52.2386
794.47        52.74266
794.88         53.4534
795.29        53.53672
795.71         53.7607
796.12        53.60373
796.53        53.36132
796.94        53.18719
797.35        53.08893
797.76        52.81055
798.18        52.40376
798.59        52.18189
799.00        52.17142
799.41        52.22874
799.82        52.30717
800.23        52.38535
800.64        52.43362
801.06        52.43211
801.47         52.4169
801.88        52.39023
802.29        52.36045
802.70        52.32282
803.11        52.29088
803.52        52.28937
803.93        52.33114
804.34        52.41729
804.75        52.54152
805.17        52.69788
805.58        52.89854
805.99        53.06736
806.40        53.20287
806.81        53.42908
807.22         53.6718
807.63        53.64936
808.04        53.40598
808.45        53.27083
808.86        53.27988
809.27        53.25392
809.68        53.18493
810.09        53.13962
810.50        53.12024
810.91        53.12315
811.32        53.13106
811.73        53.11023
812.14        53.05234
812.55        52.95679
812.96        52.87149
813.37        52.87804
813.78        52.98758
814.19        53.17662
814.60         53.3504
815.01        53.36103
815.42        53.18421
815.83        52.86395
816.24        52.52109
816.65        52.38284
817.05        52.52319
817.46        52.84736
817.87        53.25228
818.28        53.54968
818.69        53.68502
819.10        53.70773
819.51        53.66667
819.92        53.64892
820.33        53.68522
820.74        53.73827
821.14        53.78006
821.55        53.79594
821.96        53.76885
822.37        53.71462
822.78        53.64733
823.19        53.58395
823.60        53.53179
824.00        53.49617
824.41        53.44314
824.82        53.36248
825.23        53.25505
825.64        53.13808
826.04        53.04966
826.45        53.01138
826.86        53.04521
827.27        53.14781
827.68        53.30348
828.08        53.49747
828.49        53.64827
828.90         53.7998
829.31        53.97855
829.72        54.09897
830.12        54.14492
830.53        54.63482
830.94        54.52987
831.35         54.4725
831.75         54.1729
832.16        53.68721
832.57        53.18915
832.97        52.97287
833.38        53.10812
833.79        53.49567
834.20        53.97676
834.60        54.30763
835.01         54.4163
835.42         54.3759
835.82        54.25508
836.23        54.14118
836.64        54.08676
837.04        54.06138
837.45        54.04691
837.86        54.07414
838.26        54.14764
838.67        54.25716
839.08        54.37327
839.48        54.42427
839.89        54.39225
840.29        54.29722
840.70        54.18732
841.11        54.13394
841.51        54.17072
841.92        54.24603
842.33        54.34768
842.73        54.45325
843.14        54.50966
843.54        54.55176
843.95        54.56377
844.35         54.5353
844.76          54.466
845.17        54.36369
845.57        54.27266
845.98        54.23899
846.38         54.2991
846.79        54.41865
847.19         54.5876
847.60        54.71642
848.00        54.80925
848.41        54.85817
848.81        54.91352
849.22        55.01053
849.62        55.18481
850.03        55.37964
850.43        55.58124
850.84        55.67553
851.24        55.68608
851.65        55.58992
852.05        55.47717
852.46        55.43474
852.86        55.48693
853.27         55.6419
853.67        55.77132
854.07        55.81182
854.48        55.72665
854.88        55.55645
855.29        55.35553
855.69        55.35526
856.10        55.52852
856.50        55.88268
856.90         56.2279
857.31        56.28867
857.71         56.0481
858.12        55.55593
858.52        54.98216
858.92        54.57278
859.33        54.40787
859.73        54.46391
860.13        54.66923
860.54         54.8945
860.94        55.13635
861.34        55.38386
861.75        55.60815
862.15        55.82627
862.55        55.99348
862.96        56.07313
863.36          56.054
863.76        55.88979
864.17        55.58667
864.57        55.19664
864.97        54.77031
865.38        54.37333
865.78        54.07047
866.18        53.85507
866.58        53.77715
866.99        53.87582
867.39        54.16168
867.79        54.59658
868.19        55.04367
868.60        55.19152
869.00        55.08253
869.40        55.02983
869.80         54.9976
870.21         54.6691
870.61        54.10846
871.01        53.52341
871.41        53.05743
871.81        52.79569
872.22        52.79864
872.62        53.04149
873.02        53.42622
873.42        53.98465
873.82        54.39715
874.22         54.0378
874.63        53.30892
875.03        53.02348
875.43        53.30716
875.83        55.02396
876.23        54.57005
876.63        53.83384
877.03        52.43962
877.44        49.67846
877.84        189.8826
878.24        50.77053
878.64        51.71407
879.04         53.6264
879.44        54.25272
879.84         49.9442
880.24        56.51945
880.64        56.87979
881.04        53.92107
881.44        51.67893
881.84        50.86884
882.24        51.63355
882.65        53.21279
883.05        53.82019
883.45        53.12096
883.85        52.20787
884.25        51.55485
884.65        51.39744
885.05        51.84829
885.45        52.70729
885.85        53.62095
886.25        54.12262
886.65        54.10513
887.05        53.74039
887.45        53.18197
887.85        52.68805
888.25        52.37389
888.65        52.14442
889.04        52.06929
889.44        52.27816
889.84        52.73096
890.24        53.37308
890.64        53.95879
891.04        54.11301
891.44        53.78323
891.84        53.09901
892.24        52.27598
892.64        51.70591
893.04        51.53277
893.44        51.64792
893.83        52.00348
894.23        52.47948
894.63        53.02068
895.03         53.6565
895.43        54.26628
895.83        54.63846
896.23        54.72455
896.63        54.55391
897.02        54.27076
897.42        54.15897
897.82        54.25318
898.22        54.47846
898.62        54.69654
899.01        54.68358
899.41        54.37362
899.81        53.87408
900.21        53.31013
900.61        52.87451
901.00         52.6222
901.40        52.56892
901.80        52.68628
902.20         52.7401
902.59        52.65737
902.99        52.85142
903.39        53.46578
903.79        52.55326
904.18        53.56897
904.58        53.68927
904.98        53.80717
905.38        53.64106
905.77        53.17963
906.17        52.51751
906.57        51.81511
906.96        51.45307
907.36         51.5233
907.76        51.94141
908.15        52.56329
908.55        53.00083
908.95        53.18151
909.34        53.15006
909.74        53.06897
910.14         53.1594
910.53        53.46477
910.93        53.88027
911.33        54.21484
911.72        54.17889
912.12        53.73486
912.52        53.01202
912.91         52.2215
913.31        51.76366
913.70        51.71399
914.10        51.96203
914.49        52.37244
914.89        52.63918
915.29        52.68661
915.68        52.58954
916.08         52.4454
916.47        52.35486
916.87        52.38509
917.26        52.48413
917.66        52.61938
918.05        52.76826
918.45        52.89717
918.84        53.01963
919.24        53.14561
919.64        53.34538
920.03        53.61289
920.42        53.88667
920.82        54.06674
921.21        54.01231
921.61        53.74472
922.00        53.41693
922.40        53.18916
922.79        53.13073
923.19        52.79502
923.58        53.29294
923.98        55.15896
924.37        55.18464
924.77        51.53265
925.16        62.36648
925.55        54.60466
925.95         55.3157
926.34        55.12429
926.74        53.88889
927.13        51.69071
927.52        50.31363
927.92        50.51919
928.31        51.38087
928.70        52.59216
929.10        53.62045
929.49        54.32758
929.89        54.89556
930.28        55.24472
930.67         55.1391
931.07        54.60308
931.46         53.5499
931.85         52.3892
932.24        52.41045
932.64        53.81158
933.03        55.44812
933.42         56.2926
933.82        59.26493
934.21        57.16663
934.60        55.64973
934.99        54.15734
935.39        53.88625
935.78        54.83665
936.17        57.50827
936.56        65.82627
936.96        56.71683
937.35        61.71339
937.74        57.47575
938.13        54.40622
938.53        51.88954
938.92        50.88383
939.31        52.11068
939.70        53.97186
940.09        54.85909
940.49        54.40253
940.88        53.17046
941.27        51.73682
941.66         51.1526
942.05        51.76537
942.44        53.09731
942.84        54.52958
943.23         55.3575
943.62        55.37924
944.01        54.82178
944.40        54.09611
944.79        53.88164
945.18        54.35025
945.57        55.25909
945.97        56.14081
946.36        56.39423
946.75        55.83346
947.14        54.68386
947.53        53.35995
947.92        52.56619
948.31        52.52019
948.70        52.99774
949.09        53.67178
949.48        54.03656
949.87        53.95709
950.26        53.61816
950.65        53.18455
951.04        52.90882
951.43        52.88407
951.82        53.00233
952.21        53.23709
952.60        53.56573
952.99        53.93048
953.38         54.3201
953.77        54.65911
954.16        54.82562
954.55        54.81725
954.94        54.69716
955.33        54.49258
955.72        54.27937
956.11        54.09873
956.50        53.88946
956.89         53.8114
957.28        54.10506
957.66        54.80384
958.05        55.77894
958.44        56.61579
958.83        56.66702
959.22        55.82262
959.61        54.21211
960.00        52.43456
960.39        51.66864
960.78        52.24398
961.16        53.81298
961.55        55.49287
961.94        56.21869
962.33        55.78245
962.72         54.4743
963.11        52.85109
963.49        52.05795
963.88        52.50004
964.27         53.7514
964.66        55.18342
965.04        55.96023
965.43        55.84038
965.82        55.15846
966.21        54.25069
966.60        53.68727
966.98        53.67146
967.37        53.99928
967.76        54.49794
968.15         54.9134
968.53        55.15217
968.92        55.28239
969.31        55.31765
969.69        55.24911
970.08        55.06882
970.47         54.7603
970.86        54.38699
971.24        54.09035
971.63        53.91447
972.02        53.86211
972.40        53.89925
972.79        53.84927
973.17        53.73788
973.56         53.6245
973.95        53.61057
974.33        53.86183
974.72        54.40186
975.11        55.12051
975.49        55.97026
975.88        56.81534
976.26         57.6509
976.65        58.40818
977.04        58.98563
977.42        59.21579
977.81        59.03945
978.19        58.42792
978.58        57.80179
978.96        57.80493
979.35        58.52697
979.74          59.714
980.12        60.83904
980.51        60.99395
980.89        60.18203
981.28        58.54586
981.66        56.50306
982.05        55.25145
982.43        55.24218
982.82        56.22976
983.20        57.65569
983.59         58.6324
983.97         58.9409
984.35        58.76775
984.74        58.32033
985.12        58.03097
985.51        58.01691
985.89        58.22414
986.28        58.41544
986.66        58.35534
987.04        58.07466
987.43        57.55518
987.81        56.79315
988.20        57.80292
988.58        60.81895
988.96         61.9738
989.35        60.15015
989.73        68.11014
990.12        63.65751
990.50        63.79535
990.88        62.78933
991.27        61.76796
991.65        60.79668
992.03        60.03416
992.42        59.68852
992.80        59.26201
993.18        58.73583
993.56        58.34352
993.95        58.15664
994.33        58.18571
994.71        58.45478
995.10        58.88417
995.48        59.48104
995.86         60.2909
996.24        61.23581
996.63        62.13144
997.01        62.92041
997.39        63.33496
997.77        63.30015
998.15        62.90917
998.54        62.24107
998.92        61.28813
999.30        60.17347
999.68        58.99703
1000.06        58.00277
1000.45        57.61273
1000.83        58.06877
1001.21         59.2062
1001.59         60.8921
1001.97        62.89809
1002.35        64.93832
1002.73        66.84799
1003.12        68.30975
1003.50        69.04362
1003.88        69.01256
1004.26        68.29972
1004.64        67.05202
1005.02         65.6662
1005.40        64.40248
1005.78        63.27683
1006.16        62.40336
1006.54        61.84126
1006.92        61.62866
1007.30        61.88791
1007.69        62.42903
1008.07        63.04124
1008.45        63.64111
1008.83        64.21454
1009.21        65.00025
1009.59        66.41795
1009.97        68.29834
1010.35        70.17159
1010.73        71.62799
1011.11        72.60181
1011.49        73.28796
1011.86        73.41522
1012.24          72.719
1012.62        74.39897
1013.00        75.02783
1013.38        74.42797
1013.76        71.07114
1014.14        75.56966
1014.52         82.8894
1014.90        73.30132
1015.28        74.79856
1015.66        76.55188
1016.04        72.06959
1016.41         72.4263
1016.79        71.37916
1017.17        70.92303
1017.55        70.32827
1017.93        69.91019
1018.31        70.09901
1018.69        70.84332
1019.06        72.14851
1019.44        73.84779
1019.82        75.30807
1020.20        75.69434
1020.58        74.84685
1020.95        72.62683
1021.33        69.75079
1021.71        68.38747
1022.09        69.60631
1022.46        72.46104
1022.84        75.18167
1023.22        76.45979
1023.60        76.36246
1023.97        75.31432
1024.35        74.01768
1024.73         73.8368
