SpectraSmart Spectrum 2.9.0.0
--------- Device Information -----------
Spectrum Name :  反射率_0
Saving Time :  2024/04/21 00:05:08
Spectro-Module Model Name : SE2030-DUVN
Spectro-Module Serial Number : OS361AC55029948
Wavelength Start : 200
Wavelength End : 1025
Wavelength Unit : Wavelength(nm)
Spectrum Unit : Reflectance(%)
-----------Spectrum Setting ------------
Integration Time : 20ms
Average : 10
Boxcar : 0
Background removal :  enabled
linearity correction :  enabled
SC :  disabled
Intensity correction :  disabled
DWT denoise :  enabled
savitzky-golay :  disabled
FFT :  disabled
Running average :  disabled
Kalman :  disabled
High pass :  disabled
---------------BEGIN--------------------
Wavelength(nm)             Reflectance(%)
200.29               0
200.75       -5.612522
201.21        21.48419
201.67        33.63907
202.13        35.78405
202.58         31.7751
203.04        23.14584
203.50         12.9735
203.96        10.15135
204.42        17.78125
204.88        31.41892
205.34        45.25677
205.80        51.77494
206.26          48.866
206.72         38.3119
207.18        18.82631
207.64       -8.708685
208.10       -38.09664
208.55       -67.43079
209.01       -75.28042
209.47       -43.05028
209.93       -2.611444
210.39        28.83042
210.85        48.14575
211.31        55.34998
211.77        53.39035
212.23        42.58439
212.69        17.91554
213.14       -25.70918
213.60       -97.42615
214.06        -285.943
214.52       -664.1334
214.98       -260.5685
215.44       -50.38095
215.90        16.01336
216.36        36.55028
216.81        36.54419
217.27        18.09834
217.73       -74.20343
218.19        1038.836
218.65        450.3012
219.11       -970.8005
219.57       -36.30433
220.02         23.1667
220.48        33.61341
220.94        27.65739
221.40        4.010727
221.86       -54.15956
222.32       -96.53848
222.77       -49.12051
223.23       -5.132784
223.69        17.64387
224.15        25.58547
224.61        25.94377
225.06        23.27779
225.52        18.96646
225.98        14.56608
226.44        11.07552
226.90        6.748441
227.36        5.063622
227.81        11.50442
228.27        21.97137
228.73        32.06822
229.19        37.98902
229.65        37.52814
230.10        31.43544
230.56        20.90365
231.02        7.688572
231.48      -0.5967813
231.93         1.16343
232.39        9.737869
232.85          19.238
233.31        24.88696
233.77        26.92421
234.22        27.38568
234.68        26.65279
235.14        25.27864
235.60        23.92506
236.05        21.51692
236.51        18.49609
236.97        22.07221
237.43        32.91738
237.88        40.34159
238.34        40.19898
238.80        62.34116
239.26        53.04536
239.71        51.45224
240.17        43.82815
240.63        36.46474
241.08        33.70932
241.54        38.37617
242.00         49.4364
242.46        56.18699
242.91        55.82405
243.37        48.63288
243.83        36.79454
244.28        30.22215
244.74        34.66608
245.20        44.85683
245.66        53.47684
246.11        53.12395
246.57         43.1251
247.03        26.09596
247.48        4.619012
247.94       -17.17113
248.40       -41.73341
248.85       -90.66054
249.31       -222.6514
249.77       -295.8652
250.22       -84.22577
250.68       -3.690121
251.14        20.26416
251.59        25.43337
252.05        22.81306
252.51        14.60073
252.96         2.85299
253.42      -0.5683035
253.88        11.28578
254.33        31.22226
254.79        50.86375
255.25        62.97403
255.70        68.00674
256.16        69.70585
256.62        69.97088
257.07        69.95128
257.53        70.23017
257.99          70.258
258.44        69.48454
258.90        68.18269
259.35        66.07546
259.81        64.00528
260.27          62.142
260.72        60.76081
261.18        60.14793
261.63        59.72107
262.09        59.45014
262.55        58.87169
263.00        57.87656
263.46         56.8048
263.91        55.63116
264.37        54.78341
264.83        54.18368
265.28        53.65867
265.74        53.15304
266.19        52.35512
266.65        51.30649
267.11         50.0477
267.56        48.66992
268.02        47.41053
268.47        46.27736
268.93        45.25299
269.38         44.2354
269.84        43.13582
270.30        41.92666
270.75        40.65876
271.21        39.44599
271.66        38.38152
272.12        37.52138
272.57        36.80808
273.03        36.19175
273.48        35.54685
273.94        34.87277
274.39        34.17071
274.85        33.52248
275.31        32.97681
275.76        32.52727
276.22        32.16974
276.67        31.83653
277.13        31.52761
277.58         31.1798
278.04        30.82099
278.49        30.39942
278.95        29.93236
279.40        29.38247
279.86        28.80584
280.31        28.17166
280.77        27.52863
281.22        26.86943
281.68        26.26163
282.13        25.71978
282.59        25.33903
283.04        25.10171
283.50        25.00245
283.95        24.99974
284.41        25.06173
284.86        25.15385
285.32        25.29143
285.77        25.42814
286.22        25.52435
286.68        25.59218
287.13        25.59514
287.59        25.62576
288.04        25.71751
288.50        25.85321
288.95        26.12859
289.41        26.50698
289.86        26.45597
290.32        25.89968
290.77        26.73746
291.22        25.90598
291.68        26.05642
292.13        26.30251
292.59        26.71823
293.04        27.28761
293.50        28.05237
293.95        29.02516
294.40        30.17185
294.86        31.45437
295.31        32.79908
295.77        34.17242
296.22        35.55649
296.68         36.9668
297.13        38.42748
297.58        39.95867
298.04        41.55502
298.49        43.19232
298.95        44.85477
299.40        46.52098
299.85        48.21062
300.31        49.93867
300.76        51.69855
301.21        53.49756
301.67        55.34825
302.12        57.23464
302.58        59.24568
303.03          61.355
303.48        63.59094
303.94        65.89086
304.39        68.09841
304.84        70.18982
305.30        72.20927
305.75        74.20489
306.20        76.37041
306.66        78.72498
307.11        81.14015
307.57         83.5008
308.02        85.55164
308.47        87.28018
308.93        88.80588
309.38        90.20667
309.83        91.68474
310.29        93.32532
310.74        95.00546
311.19        96.67987
311.65         98.2472
312.10        99.65604
312.55        100.9583
313.00        102.1481
313.46        103.2163
313.91        104.1555
314.36        104.9677
314.82        105.7346
315.27        106.5786
315.72        107.5305
316.18        108.5629
316.63        109.5603
317.08         110.331
317.53        110.8309
317.99        111.1132
318.44        111.3111
318.89        111.6254
319.35        112.1059
319.80        112.7018
320.25        113.3028
320.70         113.736
321.16        113.9476
321.61        114.0134
322.06        114.0249
322.51         114.134
322.97        114.3682
323.42        114.7234
323.87        115.1065
324.32         115.386
324.78        115.5089
325.23        115.5625
325.68        115.6161
326.13        115.8133
326.59         116.159
327.04        116.6602
327.49        117.1998
327.94        117.6247
328.39        117.8875
328.85        117.9978
329.30        118.0913
329.75        118.2505
330.20        118.5123
330.66        118.8008
331.11        119.1521
331.56        119.4745
332.01        119.7494
332.46        120.0069
332.92        120.2097
333.37        120.4463
333.82        120.6863
334.27        120.9366
334.72        121.2306
335.17        121.6274
335.63        122.1008
336.08        122.6858
336.53        123.3245
336.98         123.972
337.43        124.5956
337.88         125.196
338.34        125.6906
338.79        126.0217
339.24         126.159
339.69         126.136
340.14        126.0773
340.59        126.1822
341.05        126.5052
341.50         127.017
341.95        127.6135
342.40         128.117
342.85        128.4747
343.30        128.7294
343.75        128.9629
344.20        129.3127
344.66        129.8063
345.11        130.3575
345.56        130.8656
346.01         131.181
346.46        131.2862
346.91        131.2257
347.36        131.0634
347.81        130.9935
348.26        131.0707
348.72        130.8791
349.17        131.0839
349.62        131.2073
350.07        131.4306
350.52        131.7228
350.97        131.9475
351.42        131.8698
351.87        131.4403
352.32        130.7298
352.77        129.9243
353.22        129.3113
353.67        128.9556
354.13        128.7972
354.58        128.6445
355.03        128.2433
355.48        127.5413
355.93        126.6345
356.38        125.6962
356.83        124.9806
357.28        124.5281
357.73        124.2354
358.18        123.9405
358.63         123.394
359.08        122.5433
359.53        121.4948
359.98        120.3641
360.43        119.3187
360.88        118.4076
361.33        117.5646
361.78        116.7837
362.23          116.06
362.68        115.3761
363.13        114.7513
363.58        114.0918
364.03          113.24
364.48        112.1741
364.93        110.9285
365.38        109.6674
365.83        108.6681
366.28        107.9827
366.73        107.5187
367.18        107.0883
367.63        106.3881
368.08        105.3542
368.53        104.1078
368.98        102.7853
369.43        101.5815
369.88        100.5564
370.33        99.64135
370.78        98.82736
371.23        98.11839
371.68         97.5042
372.13        96.99445
372.58        96.52518
373.03        95.97367
373.48        95.30103
373.93         94.5219
374.38        93.68481
374.83        92.89624
375.28         92.1965
375.72        91.54245
376.17        90.93755
376.62        90.29984
377.07        89.60066
377.52        88.85497
377.97        88.09077
378.42        87.37267
378.87         86.7351
379.32        86.16897
379.77        85.64269
380.22        85.09319
380.67        84.49311
381.11        83.86037
381.56        83.21288
382.01        82.60915
382.46         82.0815
382.91        81.62447
383.36        81.21042
383.81        80.79269
384.26        80.35543
384.71        79.90545
385.15        79.46175
385.60        79.12022
386.05        78.85907
386.50        78.64305
386.95         78.3998
387.40        78.02878
387.85        77.52608
388.29        76.89937
388.74        76.31331
389.19        75.78719
389.64        75.33199
390.09        74.92356
390.54        74.56034
390.98        74.22948
391.43        73.96433
391.88        73.75211
392.33        73.57186
392.78        73.36881
393.23         73.1268
393.67        72.87633
394.12        72.69015
394.57        72.36651
395.02        71.96578
395.47        71.80344
395.91        71.83076
396.36        71.65581
396.81        71.27372
397.26        70.91899
397.71        70.63309
398.15        70.35617
398.60         70.1712
399.05        69.98766
399.50        69.82021
399.95         69.7566
400.39         69.7495
400.84        69.61847
401.29        69.34221
401.74        68.89273
402.18        68.38107
402.63        68.11237
403.08        68.07803
403.53        67.94426
403.97        67.69336
404.42         67.5645
404.87        67.52627
405.32        67.44907
405.76        67.31561
406.21        67.12923
406.66        66.90221
407.11        66.78696
407.55        66.76721
408.00        66.50425
408.45        66.06973
408.90        65.90563
409.34        65.98444
409.79        65.91576
410.24        65.71024
410.68        65.65744
411.13        65.75631
411.58        65.84906
412.03        65.89465
412.47        65.90304
412.92        65.83602
413.37        65.71208
413.81        65.55812
414.26        65.46371
414.71        65.42994
415.15        65.45679
415.60        65.49799
416.05        65.52716
416.49        65.53281
416.94        65.51472
417.39        65.48822
417.83        65.46581
418.28        65.45494
418.73        65.44916
419.17        65.42613
419.62        65.36418
420.07        65.26096
420.51        65.11864
420.96         65.0042
421.41        64.96285
421.85        64.97353
422.30        65.07862
422.74        65.19409
423.19        65.25366
423.64        65.25237
424.08         65.3413
424.53        65.45612
424.98        65.54547
425.42        65.62431
425.87        65.58009
426.31        65.50237
426.76        65.79594
427.21        66.34728
427.65        66.46578
428.10        66.11241
428.54        65.90856
428.99        65.91067
429.44        65.73876
429.88        65.44939
430.33        65.39334
430.77        65.50328
431.22        65.75542
431.66        66.04275
432.11        66.16003
432.56        66.14305
433.00        66.06497
433.45        65.80954
433.89        65.82252
434.34        66.19718
434.78        65.17564
435.23        65.27585
435.67        65.73306
436.12        66.08051
436.57         66.3714
437.01        66.30058
437.46        66.23375
437.90         66.8866
438.35        66.58797
438.79        66.82566
439.24         66.7002
439.68         66.6205
440.13        66.49837
440.57         66.3765
441.02        66.44862
441.46        66.65062
441.91          66.717
442.35        66.62393
442.80        66.92896
443.24        67.52065
443.69        67.75616
444.13        67.51704
444.58         67.6284
445.02        67.14661
445.47         67.0872
445.91        67.14721
446.36        67.12234
446.80        66.99724
447.24        66.94991
447.69        67.01991
448.13        67.09148
448.58          67.314
449.02        67.21557
449.47        66.92377
449.91        66.80741
450.36        66.91431
450.80        66.94893
451.25        66.92455
451.69        67.04694
452.13        67.25358
452.58        67.20541
453.02        66.93171
453.47         66.7862
453.91        66.78308
454.36        66.71864
454.80        66.61449
455.24        66.48364
455.69         66.3705
456.13        66.15421
456.58        65.91967
457.02        66.03099
457.46        66.08437
457.91        66.13188
458.35        66.13943
458.79        66.09629
459.24         66.0285
459.68         65.9146
460.13        65.85562
460.57        65.64368
461.01        65.25014
461.46        65.63251
461.90        65.49777
462.34        64.94687
462.79        65.19937
463.23        65.18143
463.68        65.26952
464.12        64.92739
464.56        64.36014
465.01        64.45814
465.45        64.99819
465.89        65.25309
466.34        65.17548
466.78        64.92294
467.22        64.55844
467.67        64.71126
468.11        64.26118
468.55        64.28918
468.99        64.36357
469.44        64.28094
469.88        64.01216
470.32        63.67878
470.77        63.39779
471.21        63.26774
471.65        63.32296
472.10        63.54126
472.54        63.77512
472.98        63.84406
473.42         63.7181
473.87        63.38242
474.31        62.97619
474.75        63.00828
475.20        63.40837
475.64        63.58071
476.08        63.48411
476.52        63.47668
476.97        63.51448
477.41        63.49207
477.85        63.44987
478.29        63.10926
478.74         62.9847
479.18        63.27487
479.62        63.35661
480.06        63.48495
480.50        63.43298
480.95         63.3726
481.39        63.28278
481.83        63.27116
482.27        63.45925
482.72        63.28042
483.16        63.30381
483.60        63.64348
484.04        63.66546
484.48        63.27435
484.93        63.00445
485.37        63.31865
485.81        63.42759
486.25        63.41233
486.69        65.10378
487.14        64.86469
487.58        63.80339
488.02        63.24458
488.46        63.11817
488.90        63.28921
489.34        63.15337
489.79        62.80482
490.23        62.90084
490.67        62.84056
491.11        62.87402
491.55        62.92098
491.99        62.96766
492.43        62.97236
492.88        62.92347
493.32        62.88486
493.76        62.81639
494.20        62.74644
494.64        62.70441
495.08        62.33674
495.52        62.23742
495.96        62.32254
496.41        62.63298
496.85        62.71388
497.29        62.51147
497.73        62.42972
498.17        62.19629
498.61        62.31747
499.05        62.57737
499.49        62.37993
499.93        61.86828
500.37        61.73367
500.82        61.98281
501.26        62.38305
501.70        62.75797
502.14        62.40488
502.58        61.95087
503.02        61.70734
503.46        61.82293
503.90         61.9101
504.34        61.87941
504.78         61.8565
505.22         61.8514
505.66        61.69165
506.10        61.42883
506.54        61.57222
506.98        62.12684
507.42         61.6155
507.86        61.91864
508.30          61.846
508.74        61.82938
509.18         61.7481
509.62        61.60544
510.06        61.56373
510.50        61.60197
510.94        61.62082
511.38         61.6025
511.82        61.58644
512.26        61.56439
512.70        61.50766
513.14        61.42248
513.58        61.33575
514.02        61.25543
514.46        61.17703
514.90        61.09766
515.34        61.05028
515.78         61.0432
516.22        61.04237
516.66        60.89199
517.10         61.1761
517.54        61.00779
517.98        61.07199
518.42        61.10503
518.86        61.12766
519.30        61.13485
519.74        61.08762
520.18         61.0203
520.62        61.06145
521.06        61.17224
521.50        61.12864
521.93        60.94057
522.37        60.81735
522.81        60.77592
523.25        60.69915
523.69        60.60413
524.13        60.57174
524.57         60.6069
525.01        60.68552
525.45          60.784
525.89        60.86388
526.32         60.9082
526.76         60.9282
527.20         60.9309
527.64        60.93259
528.08        60.93641
528.52        60.93787
528.96        60.92815
529.40        60.88711
529.83        60.81341
530.27        60.74913
530.71        60.69387
531.15         60.6423
531.59        60.59963
532.03        60.57153
532.46        60.56164
532.90        60.58887
533.34        60.64495
533.78        60.71957
534.22        60.78568
534.66        60.80338
535.09        60.75597
535.53        60.67599
535.97        60.57316
536.41        60.48051
536.85        60.41197
537.28        60.36364
537.72        60.33612
538.16        60.32969
538.60        60.34144
539.04        60.37217
539.47        60.40458
539.91        60.46161
540.35        60.52387
540.79        60.58763
541.22        60.63696
541.66        60.66389
542.10        60.65958
542.54        60.62212
542.97        60.56151
543.41        60.52679
543.85        60.52305
544.29        60.55401
544.72        60.57792
545.16        60.58278
545.60        60.55584
546.04        60.43385
546.47        60.29409
546.91        60.42001
547.35        60.74029
547.79        60.86947
548.22          60.763
548.66        60.66466
549.10        60.60651
549.53        60.52113
549.97        60.43699
550.41          60.374
550.84        60.35426
551.28        60.37558
551.72        60.40934
552.15         60.4809
552.59        60.61266
553.03        60.35264
553.46         60.5694
553.90        60.42958
554.34         60.4593
554.77        60.39705
555.21        60.36265
555.65        60.40373
556.08        60.49901
556.52        60.59394
556.96        60.64531
557.39        60.69841
557.83        60.73092
558.27        60.59466
558.70        60.36616
559.14        60.28327
559.57        60.36181
560.01        60.58448
560.45        60.82862
560.88        60.82917
561.32        60.64677
561.75        60.47479
562.19        60.40421
562.63        60.42043
563.06        60.48442
563.50        60.46174
563.93         60.3445
564.37        60.28812
564.80        60.29144
565.24        60.37282
565.68        60.50037
566.11        60.55185
566.55        60.52875
566.98        60.55104
567.42        60.67389
567.85        60.51957
568.29        60.67969
568.72        60.78361
569.16        61.00932
569.60         61.0512
570.03        61.19467
570.47        61.23932
570.90        61.24019
571.34        61.26392
571.77        61.61351
572.21         61.2907
572.64        61.36076
573.08        61.20594
573.51        61.39645
573.95        61.75301
574.38         61.3176
574.82        62.12901
575.25        62.08752
575.69        61.74267
576.12        61.12223
576.56        61.59816
576.99        61.80038
577.42        61.67154
577.86        61.77956
578.29        62.45781
578.73        62.99891
579.16         62.3708
579.60        61.45129
580.03        61.80624
580.47        61.68356
580.90         61.6911
581.33        61.97054
581.77        61.91453
582.20        62.46877
582.64        62.43249
583.07        62.22556
583.51         61.9021
583.94        61.40615
584.37        61.06413
584.81         60.9901
585.24         61.1711
585.68        61.87506
586.11        61.70521
586.54        61.66203
586.98        61.58519
587.41        61.22042
587.85        61.68676
588.28        61.84277
588.71        61.50314
589.15        61.68515
589.58        61.23242
590.01        61.04148
590.45        61.06802
590.88        61.24586
591.31         60.9729
591.75        60.90177
592.18        60.79639
592.61        60.87196
593.05        61.34169
593.48        61.54323
593.91        61.66686
594.35        61.50099
594.78        61.35041
595.21        61.11709
595.65          61.209
596.08        61.46312
596.51        61.56617
596.94        60.99457
597.38        60.88609
597.81         61.1779
598.24        61.24014
598.68        61.27814
599.11        61.39139
599.54        61.58693
599.97        61.20819
600.41        61.44269
600.84        61.43099
601.27        61.33393
601.70        61.37495
602.14        61.08738
602.57          61.052
603.00        61.16545
603.43        61.20216
603.87        61.67747
604.30        61.64161
604.73        61.31036
605.16        61.22208
605.60        61.16974
606.03         61.3111
606.46        61.50568
606.89         61.3501
607.32        61.15401
607.76        61.50426
608.19        61.44284
608.62        61.37114
609.05        61.93072
609.48        61.33346
609.92        61.17783
610.35        61.04514
610.78        61.42127
611.21        61.02673
611.64        61.22388
612.07        61.15816
612.50        61.22652
612.94        61.23547
613.37        61.19442
613.80        61.28876
614.23        61.32809
614.66        61.09225
615.09        60.64775
615.52        60.56718
615.96        60.83528
616.39        60.90689
616.82        60.75522
617.25        60.87083
617.68        60.98557
618.11        60.91233
618.54        60.79237
618.97        60.60054
619.40        60.41845
619.84        60.63117
620.27        60.63735
620.70        60.70744
621.13        60.66615
621.56        60.59141
621.99        60.52566
622.42        60.64345
622.85        60.88683
623.28        60.63978
623.71        60.85877
624.14        60.49878
624.57        60.64127
625.00        61.04764
625.43        60.46725
625.86        60.52766
626.29        60.80999
626.72        60.46283
627.15        60.63702
627.58        60.57596
628.01        60.66261
628.44        60.55273
628.87         60.2351
629.30        60.77389
629.73        60.46623
630.16        60.60445
630.59        60.30495
631.02        60.52959
631.45        60.29581
631.88        60.30883
632.31        60.34275
632.74           60.11
633.17          60.216
633.60        60.11232
634.03        59.99121
634.46        59.90348
634.89        59.79274
635.32         59.7959
635.75        59.88457
636.18        60.03748
636.61        60.20792
637.04        60.33101
637.47        60.38178
637.89        60.37145
638.32        60.30441
638.75        60.22805
639.18         60.1598
639.61        60.08638
640.04        60.02425
640.47        60.00386
640.90        60.02905
641.33        60.09396
641.76        60.17719
642.18        60.24577
642.61        60.27346
643.04        60.27371
643.47        60.25322
643.90        60.23222
644.33        60.21536
644.76         60.1788
645.18        60.13135
645.61        60.11128
646.04        60.11436
646.47        60.08662
646.90        60.02298
647.33        59.99668
647.75        60.01106
648.18        59.96067
648.61         59.9024
649.04        60.08416
649.47        60.38115
649.89        60.60798
650.32        60.15282
650.75        60.10862
651.18        60.28502
651.61         60.3078
652.03        60.16573
652.46        60.03801
652.89        59.99279
653.32         60.0115
653.74        60.07799
654.17        60.24505
654.60        60.11097
655.03        60.09203
655.46        59.79758
655.88        60.72822
656.31         61.9339
656.74        66.33647
657.16         64.9699
657.59        62.97732
658.02        60.72509
658.45        60.16475
658.87        60.37693
659.30         60.8163
659.73        60.01256
660.15         59.9275
660.58        60.24895
661.01        60.55152
661.44        60.69114
661.86        60.60222
662.29        60.31994
662.72        60.07234
663.14         59.9538
663.57        59.94708
664.00        60.03571
664.42        60.11939
664.85         60.1899
665.27        60.21499
665.70         60.3643
666.13        60.40438
666.55        60.38729
666.98         60.3186
667.41         60.2249
667.83        60.16265
668.26         60.1585
668.69        60.14587
669.11        60.10366
669.54        60.21166
669.96        60.51137
670.39        60.14503
670.82        60.55468
671.24        60.56999
671.67        60.59931
672.09        60.58672
672.52        60.56406
672.94        60.52059
673.37        60.46064
673.80        60.39171
674.22        60.33491
674.65        60.28887
675.07        60.27754
675.50        60.28784
675.92        60.32347
676.35        60.36795
676.77        60.41286
677.20        60.48469
677.62        60.57069
678.05        60.59783
678.47        60.54402
678.90        60.69864
679.32        60.58159
679.75        60.63793
680.17        60.72421
680.60        60.84325
681.02        60.95232
681.45        60.99364
681.87        60.96393
682.30         60.8392
682.72        60.69626
683.15        60.68733
683.57        60.78195
684.00        60.92006
684.42        60.72937
684.85        60.69553
685.27         60.7023
685.70        60.65522
686.12        60.55641
686.54        60.50173
686.97        60.49446
687.39        60.53278
687.82          60.604
688.24        60.65851
688.66        60.66372
689.09        60.87389
689.51        60.82629
689.94        60.91154
690.36        60.97871
690.78        60.99356
691.21        60.96401
691.63        60.89542
692.06         60.8412
692.48        60.90413
692.90        61.05984
693.33        61.15034
693.75        61.17266
694.17        61.17431
694.60        61.13519
695.02        61.21892
695.44        61.14729
695.87        60.95592
696.29        60.69918
696.71        60.69353
697.14        60.94485
697.56        61.36738
697.98        61.81941
698.41        61.79025
698.83        61.85651
699.25        61.55866
699.68        61.18987
700.10        60.94032
700.52        60.87262
700.94        60.92472
701.37        61.02283
701.79        61.10186
702.21        61.11218
702.64        61.09786
703.06        61.07391
703.48         61.0633
703.90        61.07776
704.33        61.09426
704.75        61.12116
705.17        61.15957
705.59         61.2083
706.01        61.26796
706.44        61.32831
706.86        61.38772
707.28        61.43093
707.70        61.45871
708.12        61.48531
708.55        61.52224
708.97        61.56374
709.39        61.61604
709.81        61.65836
710.23        61.65902
710.66        61.61566
711.08        61.55145
711.50        61.48169
711.92          61.446
712.34        61.45428
712.76        61.49195
713.19        61.53792
713.61        61.60163
714.03        61.65185
714.45        61.70511
714.87        61.75441
715.29        61.74598
715.71        61.67111
716.13        61.70083
716.56         61.5534
716.98        61.54099
717.40        61.57316
717.82        61.64274
718.24        61.72364
718.66        61.77558
719.08        61.79042
719.50        61.78157
719.92        61.76162
720.34        61.74901
720.76         61.7511
721.19        61.75062
721.61         61.7729
722.03        61.83111
722.45         61.9253
722.87        62.05312
723.29         62.1817
723.71        62.25625
724.13        62.26486
724.55        62.21755
724.97        62.16024
725.39        62.17171
725.81         62.2672
726.23        62.42017
726.65        62.57345
727.07        62.64112
727.49        62.60672
727.91        62.48975
728.33        62.34283
728.75        62.28798
729.17        62.33558
729.59        62.37693
730.01        62.40948
730.43        62.49594
730.85         62.6247
731.27        62.74776
731.69        62.84093
732.10         62.8309
732.52        62.90262
732.94        62.67775
733.36         62.3227
733.78        62.18549
734.20        62.31672
734.62        62.54478
735.04        62.77692
735.46        62.92974
735.88        62.96567
736.30        62.90757
736.72        62.79254
737.13        62.72496
737.55        62.68679
737.97        62.61214
738.39        62.52508
738.81        62.53701
739.23         62.6376
739.65        62.73549
740.06        62.75625
740.48        62.75894
740.90        62.70508
741.32        62.56792
741.74        62.41029
742.16        62.36651
742.57        62.47517
742.99         62.6774
743.41        62.90067
743.83        63.01047
744.25        62.97467
744.67         62.8293
745.08        62.66912
745.50        62.61062
745.92         62.7019
746.34        62.90331
746.75        63.12511
747.17         63.2217
747.59        63.16102
748.01        62.95599
748.42        62.71557
748.84        62.65002
749.26        62.76556
749.68         62.9224
750.09        63.03205
750.51         62.9612
750.93         62.7534
751.35        62.67874
751.76        62.75621
752.18        62.77522
752.60        62.73873
753.01        62.80898
753.43        62.92221
753.85        62.93953
754.27        62.84798
754.68        62.69448
755.10        62.55714
755.52         62.5341
755.93        62.64434
756.35        62.85521
756.77        63.11996
757.18        63.29982
757.60        63.35576
758.02        63.42265
758.43        63.54408
758.85        63.18964
759.26        63.48909
759.68        63.29556
760.10        63.20096
760.51        62.90901
760.93        63.34209
761.34        62.88143
761.76          63.349
762.18        63.32398
762.59         63.2443
763.01        63.37508
763.42        62.91336
763.84        63.07641
764.26        63.23083
764.67         63.5368
765.09        63.79031
765.50        63.97631
765.92        64.04569
766.33        63.78487
766.75        63.30223
767.16        63.08023
767.58        63.12748
768.00          63.402
768.41        63.78996
768.83        63.64314
769.24        63.03907
769.66         63.3611
770.07         63.6036
770.49         63.6347
770.90        63.24245
771.32        63.21674
771.73         63.5435
772.15        63.67674
772.56        63.61462
772.97        63.61652
773.39        63.66528
773.80        63.68885
774.22        63.65796
774.63         63.6147
775.05        63.56691
775.46        63.58076
775.88        63.64429
776.29        63.75441
776.70        63.85475
777.12        63.87168
777.53        63.80358
777.95        63.66471
778.36        63.49715
778.77        63.36353
779.19        63.29625
779.60        63.29646
780.02        63.34716
780.43        63.48016
780.84        63.69605
781.26        63.83327
781.67        63.94637
782.09        64.38285
782.50        64.95798
782.91        64.97478
783.33        64.49689
783.74        64.32922
784.15        64.50372
784.57        64.59346
784.98        64.56332
785.39        64.52313
785.81         64.4679
786.22        64.38041
786.63        64.29609
787.04         64.2672
787.46        64.31595
787.87        64.40501
788.28        64.51981
788.70        64.62283
789.11        64.68243
789.52        64.72334
789.93          64.751
790.35        64.76266
790.76        64.77428
791.17         64.7877
791.58         64.8129
792.00        64.83212
792.41        64.87172
792.82        64.98376
793.23        65.18163
793.65        65.26421
794.06        65.29115
794.47        65.69978
794.88        66.37817
795.29        66.30463
795.71        66.45622
796.12        66.21391
796.53        65.94534
796.94        65.80498
797.35        65.79166
797.76        65.60934
798.18        65.28434
798.59        65.13548
799.00        65.17719
799.41        65.24881
799.82        65.30513
800.23        65.34675
800.64        65.35478
801.06        65.30256
801.47        65.25731
801.88        65.26167
802.29        65.33042
802.70        65.44567
803.11        65.58131
803.52        65.69463
803.93        65.77222
804.34        65.81957
804.75        65.85483
805.17        65.92696
805.58        66.07374
805.99         66.1787
806.40        66.21387
806.81        66.35768
807.22        66.49494
807.63        66.14369
808.04        65.48317
808.45        65.28258
808.86        65.63074
809.27        66.13477
809.68        66.61324
810.09         66.9013
810.50        66.90979
810.91        66.69395
811.32        66.35092
811.73        66.04652
812.14        65.84792
812.55        65.70822
812.96        65.64395
813.37        65.68002
813.78         65.8065
814.19        66.02907
814.60        66.26589
815.01         66.3793
815.42        66.34007
815.83         66.1702
816.24        65.95445
816.65        65.86281
817.05        65.95408
817.46        66.15594
817.87        66.40095
818.28        66.54305
818.69         66.5513
819.10         66.4718
819.51        66.38653
819.92        66.43646
820.33        66.64907
820.74        66.95301
821.14        67.25727
821.55         67.4512
821.96         67.4884
822.37        67.41093
822.78        67.23315
823.19        66.98363
823.60        66.69419
824.00         66.3765
824.41        66.06944
824.82         65.9026
825.23        65.90372
825.64        66.05952
826.04        66.29435
826.45        66.43677
826.86        66.45693
827.27         66.3911
827.68        66.31423
828.08        66.38629
828.49        66.57278
828.90        66.86252
829.31        67.18961
829.72        67.36259
830.12        67.34523
830.53        67.53553
830.94        67.26696
831.35        67.10892
831.75        66.89742
832.16        66.62403
832.57        66.37685
832.97        66.29517
833.38        66.40162
833.79        66.65521
834.20        66.96365
834.60        67.18354
835.01        67.27068
835.42        67.25349
835.82         67.1861
836.23        67.12017
836.64        67.09704
837.04        67.11441
837.45        67.11821
837.86        67.08057
838.26          67.014
838.67        66.93185
839.08        66.90152
839.48        67.01021
839.89        67.26212
840.29         67.6171
840.70        68.01605
841.11        68.36124
841.51        68.62503
841.92        68.79044
842.33        68.86096
842.73        68.84895
843.14        68.72686
843.54        68.52806
843.95        68.29951
844.35          68.144
844.76        68.08192
845.17        68.10392
845.57         68.1864
845.98        68.24253
846.38        68.27612
846.79        68.28664
847.19         68.3111
847.60        68.33115
848.00        68.38065
848.41        68.41514
848.81        68.48282
849.22         68.5989
849.62        68.79291
850.03        69.01001
850.43        69.22109
850.84        69.27654
851.24        69.20068
851.65        68.96899
852.05        68.70593
852.46        68.53664
852.86        68.51294
853.27        68.64089
853.67        68.77275
854.07        68.84005
854.48        68.79112
854.88        68.67077
855.29        68.51917
855.69        68.57632
856.10        68.79071
856.50        69.17625
856.90        69.51643
857.31        69.50246
857.71        69.12815
858.12        68.44877
858.52         67.6799
858.92        67.11934
859.33        66.86441
859.73         66.8835
860.13        67.09575
860.54        67.35543
860.94        67.64973
861.34        67.96638
861.75        68.23158
862.15        68.40005
862.55        68.41421
862.96        68.25409
863.36        67.97639
863.76        67.64322
864.17        67.28593
864.57         66.9372
864.97        66.59513
865.38        66.22791
865.78        65.88785
866.18        65.60257
866.58        65.45493
866.99         65.5479
867.39        65.91764
867.79        66.47365
868.19        67.08469
868.60        67.49165
869.00        67.71691
869.40        67.99487
869.80        68.23663
870.21        68.09898
870.61        67.62236
871.01        66.96417
871.41        66.31947
871.81        65.88301
872.22          65.723
872.62        65.80581
873.02        66.02918
873.42        66.35276
873.82        66.52985
874.22        66.13382
874.63        65.48283
875.03        65.21058
875.43        65.41982
875.83        66.73463
876.23        66.47346
876.63        66.02135
877.03        65.09262
877.44        63.16013
877.84         165.629
878.24        64.14964
878.64        64.92279
879.04         66.3854
879.44        66.86973
879.84        63.69144
880.24        68.32751
880.64        68.37879
881.04        65.97166
881.44        64.17373
881.84        63.56148
882.24        64.22997
882.65        65.47206
883.05        65.78502
883.45        64.87272
883.85        63.60803
884.25        62.55188
884.65        62.20292
885.05        62.71109
885.45        63.81158
885.85        65.01845
886.25        65.66314
886.65        65.58813
887.05        65.00877
887.45        64.19546
887.85        63.60132
888.25        63.39713
888.65        63.45142
889.04        63.68075
889.44        63.95417
889.84        64.20107
890.24        64.46825
890.64        64.74818
891.04        65.02023
891.44        65.27444
891.84        65.48748
892.24        65.62872
892.64        65.66428
893.04        65.59856
893.44        65.46703
893.83        65.33578
894.23        65.26899
894.63        65.30536
895.03        65.43467
895.43         65.6514
895.83        65.93719
896.23        66.25422
896.63        66.56258
897.02        66.81356
897.42         67.0057
897.82        67.10118
898.22        67.11187
898.62        66.98455
899.01        66.64948
899.41        66.10723
899.81        65.42456
900.21        64.76377
900.61        64.38032
901.00        64.32706
901.40        64.59977
901.80        65.06548
902.20        65.37428
902.59        65.42236
902.99        65.52908
903.39        65.86952
903.79        65.13413
904.18        65.89496
904.58        66.05305
904.98        66.19654
905.38          66.018
905.77        65.49494
906.17        64.75638
906.57        64.02995
906.96        63.77672
907.36        64.09791
907.76        64.87811
908.15        65.87434
908.55        66.52566
908.95        66.71301
909.34         66.5146
909.74        66.19546
910.14        66.15279
910.53        66.47482
910.93        67.01393
911.33        67.47417
911.72        67.39908
912.12        66.72555
912.52        65.64481
912.91        64.49499
913.31        63.86967
913.70        63.89006
914.10        64.38823
914.49         65.1061
914.89        65.51803
915.29        65.49133
915.68          65.159
916.08        64.74915
916.47        64.57197
916.87         64.7403
917.26        65.13387
917.66        65.58308
918.05        65.85104
918.45        65.85573
918.84        65.69202
919.24        65.50307
919.64        65.57272
920.03         65.9554
920.42         66.5209
920.82        67.06039
921.21        67.26615
921.61        67.09229
922.00        66.71319
922.40         66.3381
922.79         66.1712
923.19        65.92824
923.58        66.35555
923.98        67.77079
924.37        67.78489
924.77        65.04502
925.16        72.72912
925.55        66.92493
925.95        67.27811
926.34        67.01838
926.74        66.02691
927.13        64.40262
927.52        63.52684
927.92        63.95085
928.31        64.93331
928.70        66.17088
929.10         67.1675
929.49        67.80191
929.89        68.22575
930.28        68.39497
930.67         68.1321
931.07        67.47884
931.46        66.38657
931.85        65.23608
932.24        65.11417
932.64        66.19036
933.03        67.59814
933.42        68.49035
933.82        70.80431
934.21        69.33982
934.60        68.17502
934.99        66.97787
935.39        66.73277
935.78        67.47365
936.17        69.51539
936.56        75.57502
936.96        69.06734
937.35        72.53278
937.74        69.29102
938.13        66.86555
938.53        64.98224
938.92         64.4044
939.31         65.5985
939.70        67.27813
940.09        68.13544
940.49        67.88129
940.88        66.97532
941.27        65.89163
941.66        65.50373
942.05        66.09467
942.44         67.2735
942.84        68.52694
943.23        69.26208
943.62        69.30677
944.01        68.83452
944.40        68.19007
944.79        67.94199
945.18        68.24043
945.57        68.91167
945.97          69.514
946.36        69.47628
946.75         68.6388
947.14        67.20468
947.53        65.69247
947.92        64.98079
948.31        65.29726
948.70        66.35826
949.09         67.6016
949.48        68.16157
949.87        67.83311
950.26         66.8934
950.65        65.75977
951.04        65.11422
951.43        65.16431
951.82        65.68469
952.21        66.41644
952.60        66.92718
952.99        67.05554
953.38         66.9502
953.77        66.74262
954.16        66.59871
954.55         66.5843
954.94        66.65601
955.33        66.75111
955.72        66.78685
956.11         66.7345
956.50        66.59721
956.89        66.52724
957.28        66.74741
957.66        67.30734
958.05        68.07532
958.44        68.73048
958.83        68.78212
959.22        68.13703
959.61        66.87925
960.00        65.47147
960.39        64.82137
960.78        65.18333
961.16        66.31023
961.55        67.46789
961.94        67.74292
962.33         66.9622
962.72         65.3575
963.11        63.50556
963.49        62.60891
963.88        63.06753
964.27        64.46417
964.66        66.06449
965.04        66.87254
965.43        66.61438
965.82        65.63574
966.21        64.38515
966.60        63.64189
966.98        63.67298
967.37        64.23357
967.76        64.99293
968.15        65.42479
968.53        65.39807
968.92        65.07838
969.31        64.73039
969.69        64.74972
970.08        65.20623
970.47        65.93208
970.86        66.72251
971.24         67.2588
971.63        67.40897
972.02        67.29535
972.40        67.01585
972.79        66.60767
973.17        66.18334
973.56        65.75496
973.95        65.42678
974.33        65.38959
974.72          65.668
975.11         66.1564
975.49        66.87405
975.88        67.75976
976.26        68.78417
976.65        69.84435
977.04        70.61727
977.42        70.59835
977.81        69.68275
978.19        67.95999
978.58        66.14918
978.96        65.58154
979.35        66.56973
979.74        68.58214
980.12        70.77198
980.51        71.92793
980.89        71.97804
981.28        71.16836
981.66        69.83816
982.05         68.8756
982.43        68.64924
982.82        68.92999
983.20        69.42023
983.59        69.62483
983.97        69.45311
984.35        69.06469
984.74        68.59711
985.12        68.33456
985.51        68.33826
985.89        68.57746
986.28        68.88486
986.66         69.1075
987.04        69.25366
987.43        69.26402
987.81        69.06094
988.20        69.92832
988.58        72.01136
988.96        72.63267
989.35        71.00705
989.73        76.55733
990.12        73.05708
990.50        72.95718
990.88        72.10937
991.27        71.49612
991.65        71.19463
992.03        71.29647
992.42        71.66601
992.80        71.49525
993.18        70.62975
993.56        69.33719
993.95        68.03167
994.33        67.32544
994.71        67.40746
995.10        68.08378
995.48        69.04715
995.86        69.78341
996.24        70.12017
996.63        70.11267
997.01        70.07941
997.39        70.32761
997.77        70.89656
998.15        71.63351
998.54        72.32319
998.92        72.53779
999.30         72.2392
999.68        71.60976
1000.06           70.86
1000.45        70.37932
1000.83        70.44798
1001.21        70.87797
1001.59        71.68738
1001.97        72.89235
1002.35        74.30302
1002.73        75.77618
1003.12        76.94551
1003.50        77.37437
1003.88        77.02703
1004.26          76.072
1004.64        74.72961
1005.02        73.54579
1005.40         72.8118
1005.78        72.38344
1006.16        72.39733
1006.54         72.9848
1006.92        74.05516
1007.30        75.59771
1007.69        76.95054
1008.07        77.23294
1008.45        76.27857
1008.83        74.25117
1009.21        71.98925
1009.59        71.32745
1009.97        72.69034
1010.35        75.19995
1010.73        77.74656
1011.11        79.37749
1011.49        80.06894
1011.86        79.87706
1012.24        78.75881
1012.62        79.68507
1013.00        80.18156
1013.38        79.90975
1013.76        77.50533
1014.14        80.98973
1014.52        86.50846
1014.90        78.49231
1015.28        79.32629
1015.66        80.88342
1016.04        78.03728
1016.41        79.54287
1016.79        80.01048
1017.17         80.3579
1017.55        79.92949
1017.93        79.06052
1018.31        78.34558
1018.69        78.31561
1019.06        79.16541
1019.44        80.60737
1019.82        81.94499
1020.20        82.23383
1020.58        81.27367
1020.95        79.03356
1021.33        76.20335
1021.71        74.93365
1022.09        76.23114
1022.46        79.01082
1022.84        81.67126
1023.22        83.05644
1023.60        83.22458
1023.97        82.62638
1024.35        81.63285
1024.73         80.9658
