SpectraSmart Spectrum 2.9.0.0
--------- Device Information -----------
Spectrum Name :  反射率_0
Saving Time :  2024/04/21 00:39:08
Spectro-Module Model Name : SE2030-DUVN
Spectro-Module Serial Number : OS361AC55029948
Wavelength Start : 200
Wavelength End : 1025
Wavelength Unit : Wavelength(nm)
Spectrum Unit : Reflectance(%)
-----------Spectrum Setting ------------
Integration Time : 20ms
Average : 10
Boxcar : 0
Background removal :  enabled
linearity correction :  enabled
SC :  disabled
Intensity correction :  disabled
DWT denoise :  enabled
savitzky-golay :  disabled
FFT :  disabled
Running average :  disabled
Kalman :  disabled
High pass :  disabled
---------------BEGIN--------------------
Wavelength(nm)             Reflectance(%)
200.29               0
200.75         35.1862
201.21        83.65604
201.67          107.28
202.13        111.4018
202.58        102.8602
203.04        85.43283
203.50        60.91265
203.96        39.34019
204.42        28.12738
204.88        23.48108
205.34        23.54592
205.80        24.87364
206.26        26.05405
206.72        32.14019
207.18         36.5779
207.64        22.39506
208.10       -13.37019
208.55       -64.96367
209.01       -95.33964
209.47       -62.44085
209.93       -8.027067
210.39        36.95321
210.85        65.89022
211.31        78.42641
211.77        79.09974
212.23        69.78107
212.69        46.41145
213.14        6.592683
213.60       -54.56059
214.06       -206.7955
214.52       -501.5367
214.98       -179.5114
215.44       -15.77723
215.90        36.01921
216.36         52.1761
216.81        52.28761
217.27        38.09622
217.73       -33.71278
218.19        839.8198
218.65        385.0427
219.11       -795.6874
219.57       -15.98735
220.02        34.01593
220.48        42.82986
220.94        37.80505
221.40         17.7746
221.86       -30.29088
222.32       -60.57721
222.77       -16.46357
223.23         21.5311
223.69        40.05315
224.15        45.04924
224.61        42.68836
225.06        36.61928
225.52         28.6355
225.98        21.37053
226.44        16.27817
226.90         11.5589
227.36         9.94555
227.81        15.58923
228.27        24.65109
228.73        33.44983
229.19        38.71144
229.65        38.51074
230.10        33.51138
230.56        24.88451
231.02         13.7958
231.48        5.891172
231.93        5.537656
232.39        10.74862
232.85        17.25621
233.31        21.30612
233.77        22.96757
234.22         23.9407
234.68        24.13634
235.14        23.22225
235.60        21.57117
236.05        18.32413
236.51        14.42681
236.97        18.39851
237.43        31.04902
237.88        40.77242
238.34        43.49628
238.80        65.99018
239.26        58.43154
239.71        56.67294
240.17        48.25525
240.63         39.1753
241.08        33.99848
241.54        35.47384
242.00        44.30779
242.46        51.72983
242.91        55.91636
243.37        58.74615
243.83        61.59187
244.28        66.52185
244.74         72.8926
245.20        77.99043
245.66         79.3345
246.11        74.81049
246.57        64.66157
247.03        49.88828
247.48        32.57523
247.94        16.15812
248.40      -0.2918387
248.85       -27.23394
249.31       -84.50825
249.77       -72.99709
250.22        33.02943
250.68        60.37119
251.14         66.8015
251.59        70.22916
252.05        74.19843
252.51        79.14732
252.96        83.07235
253.42        80.20939
253.88        69.08099
254.33        55.43123
254.79        48.47651
255.25        51.51203
255.70        59.11169
256.16        66.92522
256.62         72.4022
257.07        74.31217
257.53        74.09166
257.99         72.6001
258.44        70.33499
258.90        68.47282
259.35        66.54534
259.81        64.84048
260.27        63.03216
260.72        60.94553
261.18        59.09047
261.63        57.32347
262.09        55.90764
262.55        54.62704
263.00        53.33801
263.46        52.19209
263.91        51.09354
264.37        50.36629
264.83        49.89352
265.28        49.53049
265.74        49.16276
266.19         48.4165
266.65        47.33496
267.11         45.9892
267.56        44.54433
268.02        43.35319
268.47        42.44353
268.93        41.74257
269.38        41.09582
269.84        40.32927
270.30        39.37814
270.75        38.31166
271.21        37.22119
271.66         36.1706
272.12        35.22759
272.57        34.35759
273.03        33.57209
273.48        32.84379
273.94        32.18893
274.39        31.58086
274.85        31.06609
275.31        30.63856
275.76         30.2726
276.22        29.98189
276.67        29.69144
277.13        29.38153
277.58         29.0042
278.04        28.59833
278.49        28.15311
278.95        27.74112
279.40        27.32835
279.86        26.93289
280.31        26.50158
280.77        26.04227
281.22        25.53377
281.68        25.05947
282.13         24.6001
282.59        24.20209
283.04        23.85217
283.50        23.55221
283.95        23.35734
284.41        23.37845
284.86        23.59818
285.32        23.98976
285.77        24.37097
286.22        24.49543
286.68        24.35573
287.13        23.99849
287.59        23.68018
288.04        23.68552
288.50        24.03764
288.95        24.73656
289.41        25.59912
289.86        25.87816
290.32        25.44615
290.77         26.2844
291.22        25.37766
291.68        25.49405
292.13        25.77574
292.59        26.26058
293.04        26.91929
293.50        27.77999
293.95        28.84442
294.40        30.08487
294.86        31.45922
295.31        32.87879
295.77        34.30733
296.22          35.734
296.68        37.16293
297.13        38.60474
297.58        40.08268
298.04        41.59196
298.49        43.15467
298.95        44.82799
299.40        46.59584
299.85        48.45143
300.31        50.32688
300.76        52.08865
301.21        53.72288
301.67        55.28401
302.12         56.8419
302.58        58.61588
303.03         60.6039
303.48        62.78625
303.94         65.0321
304.39        67.08167
304.84        68.89021
305.30        70.54674
305.75          72.143
306.20        73.93417
306.66        75.95594
307.11        78.05476
307.57         80.1127
308.02        81.87465
308.47         83.3205
308.93        84.58288
309.38        85.70593
309.83        86.82236
310.29        88.03386
310.74        89.23022
311.19        90.45071
311.65        91.72306
312.10        93.01306
312.55        94.31694
313.00        95.54063
313.46         96.5327
313.91        97.24887
314.36        97.74578
314.82         98.1362
315.27        98.59166
315.72        99.17607
316.18         99.8532
316.63        100.5645
317.08        101.2135
317.53        101.7633
317.99        102.2318
318.44        102.6612
318.89        103.1008
319.35        103.5551
319.80        104.0102
320.25        104.3982
320.70         104.623
321.16        104.6679
321.61        104.5931
322.06        104.5023
322.51         104.568
322.97        104.8172
323.42        105.2341
323.87        105.7133
324.32        106.0915
324.78        106.2986
325.23        106.4234
325.68         106.499
326.13        106.6134
326.59        106.7737
327.04        106.9997
327.49        107.2645
327.94        107.5652
328.39        107.8928
328.85        108.2224
329.30        108.5924
329.75        108.9237
330.20        109.2035
330.66        109.4067
331.11        109.6256
331.56        109.8796
332.01        110.1884
332.46        110.5441
332.92        110.8895
333.37        111.2725
333.82        111.6406
334.27        112.0021
334.72        112.3782
335.17        112.8042
335.63        113.2517
336.08        113.7623
336.53        114.2713
336.98         114.724
337.43        115.1052
337.88        115.4337
338.34        115.7076
338.79        115.9892
339.24        116.2704
339.69        116.5396
340.14        116.8212
340.59        117.1551
341.05        117.5489
341.50        118.0123
341.95         118.485
342.40        118.8694
342.85        119.1464
343.30        119.3362
343.75        119.5254
344.20        119.8612
344.66        120.3704
345.11        120.9757
345.56        121.5596
346.01        121.9374
346.46        122.0774
346.91        122.0334
347.36        121.8856
347.81         121.829
348.26        121.9181
348.72        121.8429
349.17        122.0507
349.62        122.1832
350.07        122.3645
350.52        122.5906
350.97        122.7645
351.42        122.7161
351.87        122.4124
352.32        121.8973
352.77        121.3299
353.22        120.9578
353.67        120.8281
354.13        120.8879
354.58        120.9306
355.03        120.6791
355.48         120.076
355.93        119.2153
356.38        118.3023
356.83        117.6448
357.28        117.2966
357.73        117.1492
358.18        116.9992
358.63        116.5245
359.08        115.6636
359.53        114.5523
359.98        113.3758
360.43        112.4065
360.88        111.7136
361.33        111.1954
361.78        110.7723
362.23        110.3227
362.68        109.7939
363.13        109.2293
363.58        108.5925
364.03        107.8195
364.48        106.9106
364.93         105.874
365.38        104.8102
365.83        103.8953
366.28        103.1687
366.73        102.5841
367.18        102.0413
367.63        101.3718
368.08        100.5375
368.53        99.60369
368.98         98.6334
369.43        97.71182
369.88        96.86249
370.33        96.04877
370.78        95.26996
371.23        94.54552
371.68        93.88304
372.13        93.28917
372.58        92.73861
373.03         92.1716
373.48        91.56503
373.93        90.92683
374.38        90.27283
374.83        89.64362
375.28        89.06086
375.72        88.50081
376.17        87.98611
376.62        87.47375
377.07        86.94194
377.52        86.38205
377.97        85.81097
378.42        85.27276
378.87        84.78739
379.32        84.35508
379.77        83.92246
380.22        83.39679
380.67        82.75513
381.11        82.02185
381.56         81.2758
382.01        80.67719
382.46         80.2745
382.91        80.02905
383.36        79.82424
383.81        79.47623
384.26        78.94301
384.71        78.27797
385.15         77.5863
385.60         77.0955
386.05        76.82274
386.50        76.70055
386.95        76.59903
387.40        76.32388
387.85        75.84801
388.29        75.20975
388.74        74.62629
389.19        74.19656
389.64        73.93774
390.09        73.78756
390.54        73.67712
390.98        73.48793
391.43        73.23174
391.88        72.93661
392.33        72.63698
392.78        72.38516
393.23        72.19242
393.67        71.97744
394.12        71.80334
394.57        71.65022
395.02        71.47608
395.47        71.15715
395.91        70.75456
396.36         70.4537
396.81        70.30095
397.26        70.23531
397.71        70.16064
398.15        69.96013
398.60        69.70197
399.05         69.2537
399.50        68.78935
399.95        68.80864
400.39        69.21581
400.84        69.31639
401.29        69.03418
401.74        68.70818
402.18         68.3987
402.63        68.05505
403.08        67.72062
403.53        67.40311
403.97         67.1359
404.42         67.0229
404.87        67.00847
405.32         66.9709
405.76        66.87261
406.21        66.69958
406.66        66.49152
407.11        66.42683
407.55        66.46576
408.00        66.32262
408.45        65.99409
408.90        65.55704
409.34        65.13122
409.79        65.00913
410.24        65.15102
410.68        65.21606
411.13        65.18151
411.58        65.26412
412.03         65.4323
412.47        65.51846
412.92        65.47202
413.37        65.35509
413.81        65.20077
414.26        65.11125
414.71        65.08924
415.15        65.11993
415.60        65.14781
416.05        65.13708
416.49        65.07662
416.94        64.97717
417.39        64.85666
417.83        64.73174
418.28        64.61067
418.73        64.47817
419.17        64.34211
419.62        64.22902
420.07        64.14622
420.51         64.0914
420.96        64.05727
421.41        63.99379
421.85          63.875
422.30        63.72212
422.74        63.57328
423.19        63.66386
423.64        63.95474
424.08        64.24436
424.53        64.40322
424.98        64.53885
425.42        64.64399
425.87        64.51851
426.31        64.28426
426.76        64.37646
427.21        64.74065
427.65        64.87775
428.10        64.73219
428.54        64.64649
428.99        64.65466
429.44        64.62152
429.88        64.51047
430.33        64.30918
430.77        64.06977
431.22        64.10826
431.66         64.3703
432.11        64.70507
432.56        65.03754
433.00        64.97594
433.45        64.42335
433.89        64.37252
434.34        64.94677
434.78        64.06483
435.23         64.1612
435.67        64.61623
436.12          65.342
436.57        65.36337
437.01        64.62153
437.46        64.38898
437.90        65.47224
438.35        64.77328
438.79        65.57906
439.24        65.51485
439.68        65.50912
440.13        65.46951
440.57        65.42125
441.02        65.39043
441.46        65.36272
441.91         65.3385
442.35        65.28556
442.80        65.62814
443.24        66.21993
443.69        66.32558
444.13        65.89758
444.58        66.00838
445.02        65.77993
445.47        65.81577
445.91        66.14767
446.36        66.22646
446.80        66.13461
447.24         65.9995
447.69        65.88756
448.13        65.97363
448.58        66.02461
449.02        65.88232
449.47        65.55597
449.91        65.41739
450.36        65.50907
450.80        65.55457
451.25        65.55122
451.69        65.65934
452.13        65.81322
452.58          65.693
453.02        65.36246
453.47        65.21501
453.91        65.27265
454.36        65.35144
454.80        65.37179
455.24        65.33092
455.69        65.23563
456.13        64.97269
456.58        64.66148
457.02        64.73708
457.46        64.80333
457.91         64.8449
458.35        64.80688
458.79        64.69353
459.24        64.54066
459.68        64.29472
460.13        64.06786
460.57        63.83443
461.01        63.60449
461.46        63.84015
461.90        63.75647
462.34        63.64645
462.79        63.70757
463.23        63.79421
463.68          63.932
464.12        63.58703
464.56        62.94353
465.01         62.9511
465.45        63.42089
465.89        63.51775
466.34        63.26574
466.78        63.14849
467.22        63.13622
467.67        63.27847
468.11        62.58512
468.55        62.52014
468.99         62.7338
469.44         62.7496
469.88        62.54503
470.32        62.40469
470.77        62.36002
471.21        62.29934
471.65         62.2245
472.10        62.16571
472.54        62.11192
472.98        62.06735
473.42        62.03299
473.87        62.01385
474.31        61.97149
474.75        61.95363
475.20        61.92707
475.64        61.84238
476.08        61.75202
476.52        61.66504
476.97        61.55507
477.41        61.86458
477.85        61.96111
478.29         61.6344
478.74        61.76233
479.18        61.46607
479.62        61.64904
480.06        61.64376
480.50         61.6302
480.95        61.76274
481.39         61.9683
481.83        61.84765
482.27        62.17157
482.72        61.86562
483.16        61.74219
483.60         61.9686
484.04        61.89628
484.48        61.59541
484.93        61.62029
485.37        61.27766
485.81        61.88015
486.25        61.49796
486.69        61.73573
487.14        61.56462
487.58        61.50259
488.02        61.47015
488.46        61.42732
488.90        61.18776
489.34        61.21437
489.79        60.88002
490.23        61.26654
490.67        61.37035
491.11        61.42415
491.55        61.30599
491.99        61.08407
492.43        60.99296
492.88        61.04865
493.32        61.13475
493.76         61.1633
494.20        61.20292
494.64        61.26925
495.08        60.92122
495.52        60.78462
495.96        60.94254
496.41        61.38923
496.85        61.30051
497.29        60.72682
497.73        60.56161
498.17        60.53829
498.61        60.78127
499.05        61.03061
499.49         60.8756
499.93        60.43325
500.37        60.25843
500.82        60.38935
501.26        60.71662
501.70        61.08856
502.14         60.7875
502.58        60.39457
503.02        60.17387
503.46        60.25959
503.90        60.28759
504.34        60.22068
504.78        60.23379
505.22        60.33471
505.66        60.41408
506.10        60.44965
506.54        60.58743
506.98        60.84934
507.42        60.49267
507.86        60.85834
508.30        60.70022
508.74        60.67448
509.18        60.53966
509.62        60.40778
510.06        60.33931
510.50        60.32035
510.94        60.28012
511.38        60.21391
511.82        60.18541
512.26        60.19075
512.70        60.18715
513.14        60.17463
513.58        60.17344
514.02        60.18172
514.46        60.19064
514.90        60.17802
515.34        60.14995
515.78        60.11105
516.22        60.03282
516.66        59.78556
517.10        60.00645
517.54        59.79821
517.98        59.86076
518.42        59.91237
518.86        59.95322
519.30        59.97293
519.74        59.94167
520.18        59.90145
520.62        59.99055
521.06        60.16962
521.50        60.20487
521.93        60.09473
522.37        60.02981
522.81        60.02164
523.25        59.96361
523.69        59.86417
524.13        59.79158
524.57        59.75422
525.01        59.73025
525.45        59.73684
525.89        59.79947
526.32        59.91092
526.76        60.06698
527.20        60.20942
527.64        60.24828
528.08        60.16787
528.52        59.99778
528.96         59.8078
529.40        59.70076
529.83        59.69906
530.27        59.80025
530.71        59.93182
531.15        59.97482
531.59        59.90402
532.03        59.76333
532.46        59.60575
532.90        59.52639
533.34        59.54366
533.78        59.62663
534.22        59.72562
534.66        59.76762
535.09        59.72612
535.53        59.64309
535.97        59.54697
536.41        59.49789
536.85        59.50847
537.28        59.55708
537.72        59.60835
538.16        59.60735
538.60        59.54464
539.04        59.45003
539.47        59.34095
539.91        59.29071
540.35        59.29683
540.79        59.33829
541.22        59.40662
541.66        59.50273
542.10        59.60876
542.54        59.71985
542.97        59.79622
543.41          59.806
543.85        59.74258
544.29        59.63562
544.72        59.50745
545.16        59.43755
545.60        59.42996
546.04        59.42118
546.47        59.43849
546.91        59.58356
547.35         59.7934
547.79        59.95744
548.22        59.99984
548.66        59.80012
549.10        59.47616
549.53        59.43957
549.97        59.67177
550.41        59.72881
550.84        59.58995
551.28        59.53429
551.72        59.56933
552.15        59.56862
552.59        59.53954
553.03        59.50233
553.46        59.47835
553.90        59.38894
554.34        59.23185
554.77        59.14827
555.21        58.97515
555.65        58.95985
556.08        59.07726
556.52        59.29172
556.96        59.52327
557.39        59.63522
557.83        59.61652
558.27        59.50288
558.70        59.35588
559.14        59.25073
559.57        59.19916
560.01        59.28974
560.45        59.43065
560.88        59.32259
561.32        59.08212
561.75        59.02036
562.19        59.16995
562.63        59.37675
563.06        59.52187
563.50        59.36445
563.93        58.98154
564.37        58.78717
564.80        58.82466
565.24        59.02144
565.68        59.28138
566.11        59.40942
566.55        59.38666
566.98        59.34024
567.42        59.31793
567.85         59.2092
568.29        59.10886
568.72        59.17131
569.16        59.38706
569.60         59.4619
570.03        59.43565
570.47        59.41325
570.90        59.41689
571.34        59.42903
571.77        59.48335
572.21        59.61971
572.64        59.50064
573.08        59.27771
573.51        59.52862
573.95        59.90952
574.38        59.76018
574.82        59.62772
575.25        59.86126
575.69        59.81983
576.12        59.37883
576.56        59.78471
576.99        59.80833
577.42        59.60909
577.86        59.75467
578.29          60.188
578.73        60.28831
579.16        59.83507
579.60        59.71036
580.03        60.12767
580.47        60.01381
580.90        60.14257
581.33        60.13464
581.77        59.98003
582.20        60.20349
582.64         60.2628
583.07         60.0442
583.51        59.90648
583.94        59.60619
584.37        59.72471
584.81        59.33105
585.24        59.44733
585.68         60.2039
586.11        59.37825
586.54         59.7342
586.98        59.61135
587.41        59.39425
587.85        59.82984
588.28        59.61152
588.71        59.61199
589.15        59.74832
589.58        59.52265
590.01        59.56087
590.45        59.57974
590.88        59.57859
591.31        59.38168
591.75        59.23957
592.18         59.1739
592.61        59.26471
593.05         59.5464
593.48        59.49936
593.91        59.71859
594.35        59.77702
594.78        59.40759
595.21        59.45607
595.65        59.38597
596.08        59.45204
596.51        59.55505
596.94        59.43451
597.38        59.41051
597.81         59.4273
598.24        59.61479
598.68        59.27581
599.11        59.60923
599.54        59.33253
599.97        59.24277
600.41        59.28355
600.84        59.70078
601.27        59.55855
601.70        59.35093
602.14        59.18272
602.57        59.16362
603.00        59.40372
603.43        59.42341
603.87        59.58662
604.30        59.56102
604.73        59.67098
605.16        59.24141
605.60        59.50417
606.03        59.51044
606.46        59.59185
606.89        59.43827
607.32        59.04958
607.76        59.55178
608.19        59.54521
608.62        59.27282
609.05        60.07905
609.48        59.61544
609.92        59.68958
610.35        59.62558
610.78        59.63626
611.21        59.23269
611.64        59.46021
612.07        59.44718
612.50        59.47818
612.94        59.53537
613.37        59.46916
613.80        59.47324
614.23        59.49616
614.66        59.29081
615.09        59.17384
615.52        59.15472
615.96        59.30642
616.39        59.28437
616.82        59.04404
617.25        59.29242
617.68        59.04446
618.11        59.02014
618.54        59.09896
618.97        59.13319
619.40        59.10542
619.84        59.19519
620.27        58.90669
620.70        58.88821
621.13        58.99082
621.56         59.0421
621.99        59.00739
622.42        59.19333
622.85         59.1507
623.28        59.11258
623.71        59.37446
624.14        59.41472
624.57        58.98129
625.00        59.58241
625.43        59.03228
625.86        59.11662
626.29        59.17797
626.72        59.23314
627.15         59.0399
627.58        59.02108
628.01         59.1952
628.44        58.87148
628.87        58.73936
629.30        59.23537
629.73        59.08719
630.16        59.09605
630.59        58.95917
631.02        59.19465
631.45        58.98594
631.88         59.0193
632.31        59.07543
632.74        58.86308
633.17        58.98089
633.60        58.91861
634.03        58.86203
634.46        58.84939
634.89        58.79862
635.32        58.80009
635.75         58.8189
636.18        58.85741
636.61        58.89271
637.04        58.89141
637.47        58.84958
637.89        58.78497
638.32        58.71036
638.75        58.67196
639.18        58.68096
639.61        58.72303
640.04        58.78488
640.47        58.84531
640.90        58.89269
641.33        58.93022
641.76        58.95158
642.18         58.9527
642.61        58.92192
643.04        58.87122
643.47        58.81004
643.90        58.76025
644.33        58.72953
644.76        58.69957
645.18        58.68296
645.61        58.71832
646.04        58.79317
646.47        58.84747
646.90        58.86269
647.33        58.86192
647.75         58.8292
648.18        58.75738
648.61        58.70987
649.04        58.69763
649.47        58.71103
649.89        59.14355
650.32        59.25083
650.75        59.25367
651.18        58.97662
651.61        58.74615
652.03        58.64435
652.46        58.51368
652.89        58.40804
653.32        58.59725
653.74        58.96076
654.17        58.95319
654.60         58.4843
655.03        58.50983
655.46        58.48461
655.88         59.0319
656.31        59.88476
656.74        61.99661
657.16        60.91724
657.59        59.52055
658.02        58.99195
658.45        59.09489
658.87          58.995
659.30        59.07866
659.73        58.71403
660.15        58.19959
660.58        58.90992
661.01        59.08507
661.44         59.0839
661.86        58.96217
662.29        58.77858
662.72        58.61559
663.14         58.5361
663.57        58.59352
664.00        58.73477
664.42         58.7945
664.85        58.76223
665.27        58.62483
665.70        58.61304
666.13         58.6019
666.55        58.66454
666.98        58.78244
667.41        58.89955
667.83         58.9319
668.26        58.86953
668.69        58.68613
669.11        58.44988
669.54        58.45859
669.96        58.77765
670.39        58.59053
670.82        59.20736
671.24        59.17807
671.67        58.94001
672.09        58.86658
672.52        58.97893
672.94        58.87086
673.37         58.5903
673.80        58.51706
674.22        58.65854
674.65        58.72842
675.07        58.72874
675.50        58.78629
675.92        58.89494
676.35        58.96875
676.77        58.99497
677.20        59.00523
677.62        59.02134
678.05        59.00017
678.47        58.93271
678.90        59.10852
679.32        59.00328
679.75        59.03931
680.17        59.06026
680.60         59.0844
681.02        59.09823
681.45        59.09031
681.87        59.06871
682.30        58.99692
682.72        58.92517
683.15        58.95824
683.57        59.05424
684.00        59.18111
684.42        58.96737
684.85        58.93281
685.27        58.96266
685.70         58.9544
686.12        58.89736
686.54        58.86676
686.97         58.8623
687.39        58.89145
687.82        58.94873
688.24        58.99584
688.66        59.00597
689.09        59.22081
689.51        59.19407
689.94        59.31488
690.36        59.43154
690.78        59.49864
691.21        59.51136
691.63        59.45678
692.06        59.38408
692.48        59.40403
692.90        59.49606
693.33        59.51324
693.75        59.45979
694.17        59.37933
694.60        59.28152
695.02        59.36632
695.44          59.367
695.87        59.31706
696.29        59.20516
696.71        59.22295
697.14        59.37813
697.56        59.65662
697.98        59.95181
698.41         59.9488
698.83        59.89151
699.25        59.62812
699.68        59.32802
700.10        59.13211
700.52        59.09034
700.94        59.16032
701.37        59.27529
701.79        59.38799
702.21        59.45529
702.64        59.42967
703.06         59.4679
703.48        59.50005
703.90        59.57449
704.33        59.65662
704.75        59.72795
705.17        59.74342
705.59        59.69425
706.01        59.60257
706.44        59.49094
706.86        59.41238
707.28        59.37411
707.70        59.36569
708.12          59.394
708.55        59.45625
708.97        59.53803
709.39        59.64901
709.81        59.75487
710.23          59.799
710.66        59.77003
711.08        59.69049
711.50        59.59103
711.92        59.53891
712.34        59.55243
712.76        59.61425
713.19        59.68807
713.61        59.75574
714.03        59.78233
714.45        59.79266
714.87        59.80883
715.29        59.82228
715.71        59.83059
716.13        59.98531
716.56        59.97122
716.98        60.02176
717.40        60.03142
717.82        60.01442
718.24        59.98857
718.66        59.98735
719.08        60.02179
719.50         60.0795
719.92        60.14306
720.34        60.18323
720.76        60.19233
721.19        60.17198
721.61        60.15264
722.03        60.15478
722.45        60.18647
722.87        60.24176
723.29        60.30635
723.71        60.35778
724.13        60.38885
724.55        60.40131
724.97        60.41329
725.39        60.45539
725.81        60.53001
726.23        60.62397
726.65        60.70151
727.07        60.71227
727.49        60.65085
727.91        60.52584
728.33        60.38105
728.75        60.32579
729.17        60.36575
729.59        60.39567
730.01        60.41798
730.43        60.50691
730.85        60.65274
731.27        60.79405
731.69        60.90897
732.10        60.93015
732.52        61.03133
732.94         60.8272
733.36        60.47837
733.78        60.33761
734.20        60.45469
734.62        60.65234
735.04        60.84387
735.46        60.96491
735.88        60.98827
736.30        60.92004
736.72        60.79225
737.13          60.771
737.55        60.82329
737.97        60.69622
738.39        60.46712
738.81        60.61108
739.23        61.05547
739.65        61.18295
740.06        60.95533
740.48        60.90725
740.90        61.01699
741.32        60.99901
741.74        60.88998
742.16         60.9099
742.57        61.08787
742.99          61.339
743.41        61.58653
743.83        61.69079
744.25        61.62219
744.67        61.42649
745.08        61.20874
745.50        61.10076
745.92        61.15792
746.34        61.33866
746.75        61.55892
747.17        61.67833
747.59        61.66404
748.01        61.53018
748.42        61.36067
748.84         61.3308
749.26         61.4394
749.68         61.5351
750.09        61.56823
750.51        61.51027
750.93        61.39343
751.35        61.37611
751.76         61.4471
752.18         61.4284
752.60        61.31797
753.01        61.24535
753.43        61.19361
753.85        61.12821
754.27         61.0547
754.68        60.98346
755.10        60.94829
755.52        60.97705
755.93        61.07117
756.35        61.22512
756.77        61.40394
757.18        61.51301
757.60        61.51885
758.02        61.51517
758.43        61.57923
758.85        61.36105
759.26        61.56736
759.68        61.82338
760.10         61.5653
760.51        61.30134
760.93        61.56259
761.34        61.53642
761.76        61.46814
762.18        61.55706
762.59        61.72059
763.01        61.82732
763.42        61.10876
763.84        61.17357
764.26        61.41403
764.67        61.81594
765.09        62.13129
765.50        62.28388
765.92        62.26416
766.33        62.06782
766.75         61.7948
767.16         61.7086
767.58        61.80641
768.00        62.14908
768.41        62.59382
768.83        62.52872
769.24        61.98849
769.66        62.01233
770.07        61.72614
770.49        61.83479
770.90        61.99402
771.32        61.95087
771.73        61.74656
772.15          61.749
772.56        61.98696
772.97        62.20812
773.39        62.33068
773.80        62.42401
774.22        62.44085
774.63        62.38015
775.05        62.26991
775.46        62.21235
775.88        62.20993
776.29        62.26247
776.70        62.31853
777.12        62.30035
777.53        62.21187
777.95        62.08486
778.36        61.95552
778.77        61.86996
779.19        61.84892
779.60        61.88218
780.02        61.97422
780.43        62.16402
780.84         62.4393
781.26        62.72424
781.67        62.99543
782.09        63.22506
782.50        63.34152
782.91        63.23375
783.33         62.9322
783.74        62.71611
784.15        62.60996
784.57         62.5093
784.98        62.44404
785.39        62.48355
785.81        62.62412
786.22        62.83908
786.63        63.08013
787.04        63.26712
787.46        63.38546
787.87        63.43235
788.28        63.42813
788.70        63.40021
789.11        63.34723
789.52        63.27539
789.93        63.21962
790.35        63.22682
790.76         63.3164
791.17        63.47879
791.58        63.66612
792.00        63.76863
792.41         63.7868
792.82        63.76551
793.23        63.76645
793.65        63.74894
794.06        63.76809
794.47        64.07695
794.88        64.59184
795.29        64.47948
795.71        64.69147
796.12        64.53865
796.53        64.36179
796.94        64.32498
797.35        64.40986
797.76        64.30133
798.18        64.01761
798.59        63.88125
799.00        63.90796
799.41        63.92905
799.82        63.91827
800.23         63.9125
800.64         63.9012
801.06        63.85227
801.47        63.80887
801.88        63.77116
802.29        63.74511
802.70        63.72992
803.11         63.7292
803.52        63.74628
803.93        63.78891
804.34        63.86171
804.75        63.96334
805.17         64.1053
805.58        64.30898
805.99        64.46703
806.40        64.58453
806.81        64.85291
807.22         65.1713
807.63        65.13258
808.04        64.79594
808.45        64.63107
808.86        64.68449
809.27        64.69005
809.68        64.63923
810.09        64.63738
810.50        64.68095
810.91        64.75285
811.32        64.80339
811.73        64.74553
812.14         64.5649
812.55        64.28506
812.96        64.00099
813.37        63.87538
813.78         63.9466
814.19         64.1676
814.60        64.42297
815.01        64.53075
815.42        64.44913
815.83        64.23151
816.24        63.97335
816.65        63.85431
817.05        63.94014
817.46        64.14457
817.87        64.41679
818.28        64.64359
818.69         64.7932
819.10        64.90485
819.51        65.00089
819.92        65.11347
820.33        65.24937
820.74        65.37676
821.14        65.49241
821.55        65.62414
821.96        65.75962
822.37        65.89736
822.78        65.99561
823.19        65.98003
823.60        65.83518
824.00        65.59597
824.41        65.29871
824.82        65.07198
825.23        64.95558
825.64        64.93552
826.04        64.97362
826.45        64.96204
826.86        64.88879
827.27        64.78368
827.68        64.70383
828.08        64.76663
828.49        64.92619
828.90         65.1897
829.31        65.49695
829.72        65.65871
830.12        65.64158
830.53        65.85715
830.94        65.61286
831.35         65.5302
831.75        65.42999
832.16        65.28791
832.57        65.16106
832.97        65.13935
833.38        65.23134
833.79         65.4157
834.20        65.61056
834.60          65.686
835.01        65.61504
835.42        65.43353
835.82        65.23294
836.23        65.12955
836.64        65.17609
837.04        65.34465
837.45        65.54176
837.86        65.67211
838.26        65.71628
838.67        65.69603
839.08        65.66377
839.48        65.68848
839.89        65.78378
840.29        65.92254
840.70         66.0905
841.11        66.26608
841.51        66.44521
841.92         66.5938
842.33        66.70475
842.73        66.76263
843.14          66.723
843.54        66.62904
843.95        66.48524
844.35        66.32525
844.76        66.16277
845.17        66.00226
845.57        65.90017
845.98        65.90866
846.38        66.05791
846.79        66.30348
847.19        66.59066
847.60        66.74954
848.00        66.77409
848.41        66.67217
848.81           66.55
849.22        66.52731
849.62        66.67262
850.03        66.89433
850.43        67.15667
850.84        67.30469
851.24        67.34473
851.65        67.25372
852.05        67.10283
852.46        66.92358
852.86        66.74983
853.27        66.62399
853.67        66.46429
854.07        66.28395
854.48        66.05653
854.88         65.8161
855.29        65.59903
855.69        65.62646
856.10        65.85146
856.50        66.29827
856.90        66.76805
857.31        66.97654
857.71         66.9034
858.12        66.56467
858.52        66.12519
858.92        65.81426
859.33        65.69606
859.73         65.7532
860.13        65.88852
860.54         65.9362
860.94        65.90892
861.34         65.8267
861.75        65.72236
862.15        65.71755
862.55        65.79972
862.96        65.90701
863.36        66.00816
863.76        66.01355
864.17        65.89283
864.57        65.69773
864.97        65.44012
865.38        65.12113
865.78        64.80846
866.18        64.52229
866.58        64.32983
866.99         64.3206
867.39        64.54835
867.79        64.94823
868.19        65.46653
868.60        65.93934
869.00        66.39959
869.40        67.06184
869.80        67.72132
870.21        67.79816
870.61        67.25639
871.01        66.32652
871.41        65.32702
871.81        64.63369
872.22        64.36804
872.62        64.44635
873.02         64.7431
873.42        65.17543
873.82        65.46641
874.22        65.20497
874.63        64.69343
875.03        64.52914
875.43        64.79984
875.83        66.12377
876.23        65.83129
876.63        65.43931
877.03        64.67876
877.44        63.01361
877.84        165.4527
878.24        64.19975
878.64        64.61674
879.04        65.55674
879.44        65.53286
879.84        61.97551
880.24        66.93597
880.64        67.31756
881.04        65.27625
881.44        63.77618
881.84        63.28135
882.24        63.93054
882.65        65.05521
883.05        65.20862
883.45        64.12994
883.85        62.69635
884.25        61.50263
884.65        61.09964
885.05        61.64849
885.45        62.86026
885.85        64.25951
886.25        65.18703
886.65        65.46681
887.05         65.3091
887.45        64.86057
887.85        64.37228
888.25        63.97346
888.65        63.57462
889.04        63.29083
889.44        63.33208
889.84        63.70251
890.24        64.34808
890.64        65.03516
891.04        65.39744
891.44        65.36286
891.84        65.03294
892.24        64.57039
892.64         64.2724
893.04        64.23989
893.44        64.38378
893.83        64.64069
894.23        64.88447
894.63        65.08505
895.03        65.29554
895.43        65.50765
895.83        65.69189
896.23        65.83905
896.63        65.92245
897.02        65.96935
897.42        66.09801
897.82        66.29108
898.22           66.52
898.62        66.68585
899.01        66.63664
899.41        66.32762
899.81        65.83449
900.21        65.28208
900.61        64.86985
901.00        64.65469
901.40        64.66225
901.80         64.8311
902.20        64.92208
902.59         64.8728
902.99        64.99487
903.39        65.45883
903.79        64.91965
904.18        65.93893
904.58        66.38359
904.98        66.80505
905.38         66.8429
905.77        66.45255
906.17        65.76667
906.57        64.99438
906.96        64.57677
907.36        64.62476
907.76        65.03683
908.15        65.64505
908.55        66.01159
908.95        66.05946
909.34        65.85795
909.74        65.60337
910.14        65.56644
910.53         65.8064
910.93        66.21121
911.33        66.56197
911.72        66.52453
912.12        66.05239
912.52        65.28152
912.91        64.45595
913.31        64.03023
913.70        64.08977
914.10        64.50602
914.49        65.08927
914.89        65.43202
915.29        65.43673
915.68        65.19784
916.08        64.89797
916.47        64.77419
916.87        64.92379
917.26        65.26521
917.66        65.65011
918.05        65.87198
918.45        65.85854
918.84        65.67876
919.24         65.4987
919.64        65.64115
920.03          66.158
920.42        66.91558
920.82        67.61162
921.21        67.79102
921.61        67.38291
922.00        66.59493
922.40        65.79836
922.79        65.45718
923.19        65.33665
923.58        66.13583
923.98        67.95063
924.37        68.08145
924.77        65.12177
925.16        72.38705
925.55         66.0078
925.95        66.25085
926.34        66.31756
926.74        65.96016
927.13        65.06229
927.52        64.58125
927.92        64.90666
928.31        65.44788
928.70        66.12663
929.10        66.75705
929.49        67.28979
929.89        67.78638
930.28         68.0795
930.67        67.78642
931.07        66.89921
931.46        65.45583
931.85        63.96677
932.24        63.73755
932.64        64.98272
933.03        66.71096
933.42        67.95946
933.82        70.55039
934.21        69.18541
934.60        68.03075
934.99        66.76332
935.39        66.40809
935.78        67.03141
936.17        68.94999
936.56        75.01246
936.96        68.31611
937.35        71.93736
937.74        68.81741
938.13         66.5937
938.53        64.82738
938.92        64.21971
939.31         65.2562
939.70        66.77583
940.09        67.64116
940.49        67.58309
940.88        67.02586
941.27        66.28219
941.66        65.92118
942.05        66.15554
942.44        66.70879
942.84        67.32546
943.23        67.77289
943.62         67.9507
944.01        67.94263
944.40        67.87363
944.79        67.92651
945.18        68.14563
945.57        68.47009
945.97        68.69756
946.36        68.63419
946.75        68.20326
947.14        67.47996
947.53        66.73596
947.92        66.43295
948.31        66.67883
948.70        67.32782
949.09        68.04158
949.48        68.29297
949.87        67.97092
950.26        67.25117
950.65        66.41366
951.04        65.91956
951.43        65.90506
951.82         66.2114
952.21        66.67822
952.60        67.03495
952.99        67.16245
953.38        67.14571
953.77          67.005
954.16        66.74989
954.55        66.41142
954.94        65.99486
955.33        65.55431
955.72        65.21783
956.11        65.04469
956.50        65.00935
956.89        65.15278
957.28         65.5089
957.66        66.08076
958.05        66.78131
958.44        67.42684
958.83        67.73997
959.22        67.66135
959.61        67.20947
960.00        66.63273
960.39         66.4183
960.78        66.69753
961.16        67.37045
961.55        67.98587
961.94        68.01097
962.33        67.35577
962.72        66.14986
963.11        64.84319
963.49        64.35477
963.88        64.96348
964.27        66.36528
964.66        67.89522
965.04        68.65331
965.43        68.40629
965.82        67.43815
966.21        66.25476
966.60        65.74968
966.98        66.18285
967.37        67.27077
967.76        68.50424
968.15        69.05623
968.53        68.73869
968.92        67.81506
969.31        66.75317
969.69        66.28508
970.08        66.59502
970.47        67.43887
970.86        68.52451
971.24        69.36848
971.63        69.75268
972.02        69.82077
972.40        69.67447
972.79        69.36539
973.17        68.99883
973.56        68.55665
973.95         68.0883
974.33        67.71104
974.72        67.46716
975.11        67.33241
975.49        67.45531
975.88        67.96413
976.26        68.89841
976.65        70.11276
977.04        71.23893
977.42        71.70773
977.81        71.36787
978.19        70.29848
978.58         69.1156
978.96        68.93462
979.35        69.96912
979.74        71.73972
980.12        73.49805
980.51        74.14906
980.89        73.64999
981.28        72.23598
981.66        70.30443
982.05        68.90196
982.43        68.51865
982.82        68.93287
983.20        69.81981
983.59        70.62321
983.97        71.18349
984.35        71.59946
984.74        71.88432
985.12        72.11877
985.51        72.27692
985.89         72.3823
986.28        72.28826
986.66        71.85872
987.04        71.16142
987.43        70.17195
987.81        69.03736
988.20        69.48718
988.58         71.7655
988.96        72.95824
989.35        72.13702
989.73        77.91931
990.12        74.80363
990.50        74.70157
990.88        73.66889
991.27        72.56984
991.65        71.50986
992.03        70.52392
992.42        69.93287
992.80        69.69778
993.18        69.83867
993.56        70.49622
993.95        71.26851
994.33         71.4078
994.71        70.79237
995.10        69.56378
995.48        68.39935
995.86         68.4435
996.24        69.87936
996.63        72.19161
997.01        74.64544
997.39         75.8884
997.77        75.58583
998.15        74.17971
998.54         72.2884
998.92         70.7664
999.30        69.98721
999.68        69.79256
1000.06        70.04343
1000.45        70.39927
1000.83        70.79578
1001.21        71.29609
1001.59        72.06774
1001.97        73.30778
1002.35        74.89394
1002.73        76.57124
1003.12        77.92184
1003.50        78.50317
1003.88        78.27354
1004.26        77.38286
1004.64        76.14931
1005.02        75.27618
1005.40        75.05077
1005.78        75.27708
1006.16        75.73727
1006.54        75.98969
1006.92        75.89456
1007.30        75.71511
1007.69        75.34389
1008.07        74.66245
1008.45        73.68807
1008.83        72.38909
1009.21         71.3841
1009.59        71.93741
1009.97        74.11183
1010.35        77.11411
1010.73        79.90839
1011.11        81.66312
1011.49        82.40455
1011.86        82.16456
1012.24        80.89562
1012.62         81.3814
1013.00        81.50195
1013.38        80.95644
1013.76        78.46066
1014.14        81.73621
1014.52        87.06945
1014.90         79.5258
1015.28        80.51041
1015.66        82.13491
1016.04        79.60194
1016.41        81.13127
1016.79         81.6037
1017.17        81.72722
1017.55        80.90033
1017.93        79.42816
1018.31        78.24265
1018.69        78.47238
1019.06         80.3429
1019.44        83.27916
1019.82        86.02348
1020.20        86.94864
1020.58        85.71875
1020.95        82.39081
1021.33        77.81175
1021.71        75.16249
1022.09        76.16065
1022.46        79.35161
1022.84        82.71483
1023.22         84.7155
1023.60        85.37494
1023.97        85.36256
1024.35        84.88959
1024.73        84.29793
