SpectraSmart Spectrum 2.9.0.0
--------- Device Information -----------
Spectrum Name :  反射率_0
Saving Time :  2024/04/21 00:52:26
Spectro-Module Model Name : SE2030-DUVN
Spectro-Module Serial Number : OS361AC55029948
Wavelength Start : 200
Wavelength End : 1025
Wavelength Unit : Wavelength(nm)
Spectrum Unit : Reflectance(%)
-----------Spectrum Setting ------------
Integration Time : 20ms
Average : 10
Boxcar : 0
Background removal :  enabled
linearity correction :  enabled
SC :  disabled
Intensity correction :  disabled
DWT denoise :  enabled
savitzky-golay :  disabled
FFT :  disabled
Running average :  disabled
Kalman :  disabled
High pass :  disabled
---------------BEGIN--------------------
Wavelength(nm)             Reflectance(%)
200.29               0
200.75       -49.28811
201.21        -4.69131
201.67        21.06027
202.13        34.47186
202.58        42.17835
203.04        48.05781
203.50        53.51828
203.96        59.25882
204.42        64.03642
204.88        66.15916
205.34         65.8621
205.80        63.56581
206.26        59.24745
206.72        54.15227
207.18        45.14924
207.64        26.17494
208.10       -1.071031
208.55       -32.70564
209.01       -44.93468
209.47       -15.13358
209.93        25.61005
210.39        58.39688
210.85        79.15848
211.31        87.96629
211.77        88.26346
212.23        80.83064
212.69        64.55786
213.14        46.72591
213.60          42.243
214.06        80.18609
214.52        273.1041
214.98        222.7708
215.44        133.5815
215.90        98.59892
216.36        84.05614
216.81        75.54159
217.27        65.47669
217.73        30.13083
218.19        433.8179
218.65        219.4156
219.11       -293.9686
219.57        44.87766
220.02        66.35132
220.48        69.76539
220.94        66.70227
221.40        55.69318
221.86        29.98589
222.32        15.75256
222.77        41.14502
223.23        62.20394
223.69        72.09798
224.15        74.22357
224.61        72.00476
225.06        67.34489
225.52        61.57063
225.98        56.59856
226.44        53.45629
226.90        51.02193
227.36        50.75579
227.81        54.50704
228.27        60.03322
228.73        65.28374
229.19        68.48944
229.65        68.71514
230.10        66.38673
230.56        62.17723
231.02        56.78901
231.48        53.37241
231.93        53.96157
232.39         57.3913
232.85        61.14895
233.31        63.15143
233.77         63.5446
234.22        63.37622
234.68        62.80127
235.14        62.10996
235.60        61.68067
236.05        60.93287
236.51        60.46415
236.97        64.46069
237.43        72.74429
237.88        80.43945
238.34        86.06638
238.80        93.82714
239.26        92.61495
239.71        89.38435
240.17          81.944
240.63        75.08871
241.08        73.75835
241.54        79.61585
242.00        90.92342
242.46        100.1573
242.91        105.4901
243.37        107.3079
243.83        105.7356
244.28        102.2431
244.74        98.54805
245.20        94.69279
245.66        90.05429
246.11         83.4395
246.57        74.51588
247.03        63.94217
247.48        52.82387
247.94        42.98471
248.40        33.96949
248.85        20.83578
249.31      -0.6479853
249.77        30.52803
250.22         79.6631
250.68        86.03829
251.14        86.17941
251.59        87.76997
252.05        91.91982
252.51        98.70585
252.96        107.6099
253.42        114.0858
253.88        113.8222
254.33        108.7473
254.79        104.7816
255.25          104.35
255.70        105.5591
256.16        107.4283
256.62        108.4204
257.07        107.6993
257.53        106.5087
257.99        104.9412
258.44        102.9391
258.90        101.5266
259.35        99.93135
259.81        98.61679
260.27        97.28197
260.72        95.78703
261.18        94.67348
261.63        93.41637
262.09        92.27267
262.55        90.69044
263.00        88.56529
263.46        86.40018
263.91        84.19531
264.37        82.64919
264.83        81.66595
265.28        80.96062
265.74        80.45954
266.19        79.67798
266.65        78.66098
267.11        77.44253
267.56        76.08865
268.02        74.84271
268.47        73.68021
268.93         72.5722
269.38        71.40607
269.84        70.12282
270.30        68.68813
270.75        67.14333
271.21        65.59206
271.66        64.08238
272.12        62.69794
272.57        61.40081
273.03        60.20822
273.48        59.03282
273.94        57.90765
274.39        56.79313
274.85         55.7862
275.31        54.91713
275.76        54.15959
276.22        53.53818
276.67         52.9228
277.13        52.28696
277.58        51.53813
278.04        50.74945
278.49        49.90253
278.95         49.1291
279.40        48.37319
279.86        47.68174
280.31        46.92776
280.77        46.07801
281.22        45.08598
281.68        44.07089
282.13        43.09855
282.59        42.38525
283.04        41.90929
283.50        41.64578
283.95        41.46194
284.41        41.22882
284.86        40.88779
285.32        40.52009
285.77        40.15249
286.22        39.87507
286.68        39.72634
287.13        39.61873
287.59         39.5858
288.04        39.55468
288.50        39.50441
288.95        39.52907
289.41        39.64694
289.86          39.459
290.32        38.92315
290.77         39.5722
291.22        38.85882
291.68        38.93587
292.13        39.05284
292.59        39.28525
293.04        39.63555
293.50        40.17533
293.95        40.91667
294.40        41.82003
294.86        42.82577
295.31        43.82523
295.77        44.79202
296.22        45.73537
296.68         46.7068
297.13        47.77079
297.58        48.95955
298.04        50.24647
298.49        51.60463
298.95        53.02083
299.40        54.45677
299.85        55.92512
300.31        57.39884
300.76        58.79722
301.21        60.13288
301.67        61.46657
302.12        62.83017
302.58          64.395
303.03        66.15079
303.48        68.08833
303.94        70.16472
304.39        72.24883
304.84        74.29969
305.30        76.35313
305.75        78.33797
306.20        80.27362
306.66        82.17065
307.11        83.96513
307.57        85.71351
308.02        87.41415
308.47        89.10062
308.93        90.80767
309.38        92.46832
309.83        94.05813
310.29         95.6032
310.74        97.07257
311.19        98.51204
311.65        99.96679
312.10        101.4233
312.55        102.8616
313.00        104.2539
313.46        105.5629
313.91        106.7516
314.36        107.8381
314.82         108.824
315.27         109.702
315.72        110.4949
316.18        111.2104
316.63        111.8847
317.08        112.5768
317.53        113.2972
317.99        114.0298
318.44        114.7411
318.89        115.3555
319.35        115.8555
319.80        116.2762
320.25        116.6494
320.70        117.0355
321.16          117.44
321.61        117.8512
322.06        118.2567
322.51        118.6489
322.97        119.0011
323.42        119.3637
323.87        119.6806
324.32        119.8784
324.78        119.9323
325.23        119.9111
325.68        119.8916
326.13        120.0364
326.59        120.3531
327.04        120.8556
327.49        121.4179
327.94        121.8607
328.39        122.1322
328.85        122.2533
329.30        122.3616
329.75        122.5389
330.20        122.8253
330.66        123.1355
331.11        123.5379
331.56        123.9918
332.01         124.482
332.46        125.0213
332.92        125.4959
333.37        125.8728
333.82        126.0863
334.27        126.1725
334.72        126.2522
335.17        126.5337
335.63        127.0362
336.08        127.7668
336.53        128.5911
336.98        129.3343
337.43        129.9293
337.88        130.4167
338.34        130.7975
338.79        131.1503
339.24        131.4761
339.69        131.7647
340.14         132.039
340.59        132.3466
341.05        132.7025
341.50        133.1101
341.95        133.5701
342.40        134.0778
342.85         134.613
343.30        135.1613
343.75        135.6631
344.20        136.0324
344.66        136.2622
345.11         136.359
345.56        136.3834
346.01        136.4369
346.46        136.5633
346.91        136.7086
347.36        136.8372
347.81        137.0075
348.26        137.2265
348.72          137.06
349.17        137.3001
349.62         137.348
350.07        137.4461
350.52        137.5627
350.97        137.6541
351.42        137.6421
351.87        137.4978
352.32        137.2361
352.77        136.9248
353.22        136.6684
353.67        136.4803
354.13        136.3474
354.58        136.1303
355.03        135.6654
355.48        134.9347
355.93         134.008
356.38        133.0526
356.83        132.3154
357.28        131.8371
357.73        131.5308
358.18        131.2383
358.63        130.7071
359.08        129.8813
359.53        128.8593
359.98        127.7586
360.43        126.7506
360.88        125.8862
361.33        125.1076
361.78        124.3856
362.23        123.6791
362.68        122.9692
363.13        122.2792
363.58        121.5827
364.03        120.8289
364.48        120.0071
364.93        119.1185
365.38        118.2095
365.83        117.3681
366.28        116.6095
366.73        115.9019
367.18        115.1901
367.63        114.3867
368.08        113.4758
368.53        112.5005
368.98        111.4902
369.43        110.4741
369.88        109.4651
370.33        108.4524
370.78        107.4692
371.23        106.5903
371.68        105.8434
372.13        105.2185
372.58         104.672
373.03        104.1145
373.48        103.5087
373.93        102.8688
374.38        102.2033
374.83        101.5435
375.28        100.9072
375.72        100.2607
376.17        99.64826
376.62        99.04493
377.07        98.43359
377.52         97.8091
377.97        97.16595
378.42         96.5113
378.87        95.86959
379.32        95.26147
379.77        94.68929
380.22        94.13757
380.67        93.59043
381.11         93.0452
381.56        92.51238
382.01        92.03983
382.46        91.64488
382.91        91.32333
383.36        91.00998
383.81        90.60344
384.26        90.08316
384.71        89.47059
385.15        88.84866
385.60         88.4183
386.05        88.18127
386.50        88.08332
386.95        87.98193
387.40        87.66071
387.85        87.09606
388.29         86.3294
388.74        85.62491
389.19        85.11481
389.64        84.82321
390.09        84.67979
390.54        84.58712
390.98        84.37125
391.43        84.02504
391.88        83.60695
392.33        83.23097
392.78        82.82805
393.23        82.38322
393.67        82.29709
394.12        82.64542
394.57        81.42709
395.02        81.44341
395.47        81.15445
395.91        81.32168
396.36        81.23154
396.81         80.8787
397.26         80.6198
397.71        80.42593
398.15        80.08709
398.60         79.6909
399.05        79.32656
399.50        79.06215
399.95        78.77331
400.39        78.55387
400.84        78.85352
401.29        79.48401
401.74        79.41831
402.18        78.71246
402.63        78.39748
403.08        78.47666
403.53        78.20164
403.97        77.57917
404.42        77.05566
404.87        76.71225
405.32        76.52448
405.76        76.50366
406.21        76.63268
406.66        76.76917
407.11        76.83421
407.55        76.75862
408.00        76.19314
408.45        75.36436
408.90        75.12138
409.34        75.42905
409.79        75.50461
410.24        75.25861
410.68        75.09555
411.13        74.99493
411.58        74.68978
412.03        74.27738
412.47        74.10576
412.92        74.20061
413.37        74.46048
413.81        74.74947
414.26        74.93227
414.71        74.94644
415.15        74.86198
415.60        74.69624
416.05         74.5457
416.49        74.44646
416.94        74.35704
417.39        74.27544
417.83        74.18678
418.28        74.09399
418.73        74.02253
419.17        73.94368
419.62        73.81232
420.07        73.62041
420.51        73.36395
420.96        73.16041
421.41        73.09046
421.85        73.12572
422.30        73.40392
422.74        73.72549
423.19        73.62518
423.64        73.17285
424.08        73.12495
424.53        73.42396
424.98        73.45533
425.42        73.21172
425.87        73.05867
426.31        73.04691
426.76        73.05788
427.21         73.1076
427.65        73.25986
428.10        73.38057
428.54        73.53511
428.99        73.34073
429.44        73.13448
429.88        72.88264
430.33        72.88004
430.77        73.02061
431.22        73.20568
431.66        73.35745
432.11        73.36083
432.56        73.26103
433.00        73.24206
433.45        73.11005
433.89        72.92436
434.34        72.85899
434.78        72.16259
435.23        71.88114
435.67        73.18228
436.12        72.97834
436.57        73.13172
437.01        72.77884
437.46        72.53213
437.90        73.19801
438.35         72.9933
438.79        73.27589
439.24        73.26199
439.68        73.29511
440.13        73.33854
440.57        73.35685
441.02        73.31654
441.46        73.21796
441.91        73.08703
442.35        72.93965
442.80        73.25137
443.24        73.82169
443.69        73.88741
444.13         73.4557
444.58        73.20503
445.02        73.09261
445.47        73.26065
445.91        73.55798
446.36        73.59133
446.80        73.30401
447.24        73.03186
447.69        72.95517
448.13        72.59583
448.58        73.09805
449.02        73.16661
449.47        73.10179
449.91         73.0724
450.36        73.09184
450.80        72.91002
451.25        72.62334
451.69        72.59403
452.13        72.78804
452.58        72.79626
453.02         72.5964
453.47        72.48307
453.91         72.4456
454.36        72.32662
454.80        72.11682
455.24        71.93082
455.69        71.79817
456.13        71.58749
456.58        71.37222
457.02        71.44906
457.46        71.32382
457.91        71.46904
458.35        71.01896
458.79        70.90248
459.24        70.94901
459.68         70.9115
460.13        70.73597
460.57        70.69608
461.01        70.87975
461.46        70.12699
461.90        69.79755
462.34        70.44749
462.79        69.69033
463.23        69.92484
463.68         70.1834
464.12        69.91369
464.56        69.25444
465.01        69.30025
465.45        69.84475
465.89        70.04466
466.34        69.55565
466.78          69.411
467.22        69.48904
467.67        69.45027
468.11        68.84037
468.55        68.66437
468.99        68.76465
469.44        68.71738
469.88        68.50739
470.32        68.36588
470.77        68.30282
471.21        68.21048
471.65        68.08564
472.10          67.965
472.54        67.84069
472.98        67.72534
473.42        67.63013
473.87        67.55712
474.31        67.48223
474.75        67.50408
475.20        67.58463
475.64        67.58514
476.08        67.52798
476.52        67.51611
476.97        67.49976
477.41         67.6431
477.85        67.88853
478.29        67.55354
478.74        66.70015
479.18        67.32016
479.62        67.26571
480.06        67.30411
480.50        67.20275
480.95        67.32014
481.39        67.77056
481.83        67.16946
482.27        67.53387
482.72        67.57504
483.16        67.09407
483.60        67.44905
484.04         67.5442
484.48        67.34954
484.93        67.27048
485.37        67.47307
485.81        67.55673
486.25        67.38763
486.69        68.96382
487.14        69.32458
487.58        67.99991
488.02        67.15584
488.46        67.07115
488.90        67.09367
489.34        66.92987
489.79         66.4402
490.23         66.5676
490.67        66.71131
491.11        67.05784
491.55        66.98021
491.99        66.55295
492.43        66.37328
492.88        66.46976
493.32        66.54792
493.76        66.52082
494.20        66.50857
494.64        66.52941
495.08        66.21884
495.52         66.1076
495.96        66.22122
496.41        66.56834
496.85        66.47737
497.29        65.99795
497.73        66.01351
498.17        66.16426
498.61        66.37747
499.05        66.42964
499.49         66.2144
499.93        65.86349
500.37        65.79227
500.82        65.99348
501.26        66.25768
501.70        66.48741
502.14        66.22781
502.58        66.07687
503.02        65.96355
503.46        66.01289
503.90        66.03632
504.34        65.98512
504.78        65.93722
505.22        65.90863
505.66        65.80605
506.10        65.66363
506.54        65.68414
506.98        65.90335
507.42        65.37801
507.86        66.31714
508.30        65.47776
508.74        66.04231
509.18        65.90208
509.62         65.8295
510.06        65.77767
510.50        65.72738
510.94        65.59218
511.38        65.38577
511.82        65.27669
512.26        65.27775
512.70         65.3205
513.14        65.34368
513.58        65.34302
514.02        65.31679
514.46        65.13287
514.90        64.79337
515.34          65.101
515.78        64.86209
516.22        65.00207
516.66        64.95774
517.10        65.23593
517.54         65.0173
517.98        64.96188
518.42        64.87471
518.86        64.80704
519.30        64.77772
519.74        64.73116
520.18        64.71178
520.62         64.8741
521.06        65.16602
521.50        65.33241
521.93        65.33451
522.37        65.31835
522.81        65.28201
523.25        65.12277
523.69        64.88694
524.13        64.70985
524.57        64.61971
525.01        64.58247
525.45        64.59386
525.89        64.64228
526.32        64.71324
526.76        64.81773
527.20        64.92408
527.64        64.98215
528.08        64.97939
528.52        64.92403
528.96        64.85017
529.40        64.80795
529.83        64.80764
530.27        64.86807
530.71        64.93777
531.15        64.93118
531.59        64.83772
532.03        64.69348
532.46         64.5516
532.90        64.50928
533.34        64.57793
533.78        64.72053
534.22        64.87755
534.66        64.95872
535.09        64.93285
535.53        64.85322
535.97        64.73756
536.41        64.63277
536.85        64.55597
537.28        64.48819
537.72        64.44051
538.16        64.43305
538.60         64.4634
539.04        64.53378
539.47        64.58614
539.91        64.58278
540.35         64.4999
540.79        64.35628
541.22        64.20975
541.66        64.17039
542.10         64.2526
542.54        64.41714
542.97        64.58863
543.41        64.68444
543.85        64.67593
544.29        64.60331
544.72        64.49487
545.16        64.45141
545.60        64.48659
546.04        64.49947
546.47        64.50182
546.91        64.68567
547.35        64.95612
547.79        64.93835
548.22        64.65845
548.66        64.51026
549.10        64.52721
549.53        64.51788
549.97        64.47057
550.41        64.41964
550.84        64.37417
551.28        64.30109
551.72        64.21574
552.15         64.2611
552.59        64.47959
553.03        64.31797
553.46        64.64209
553.90        64.63958
554.34        64.55566
554.77        64.41341
555.21        64.31091
555.65         64.1944
556.08        64.38293
556.52        64.51211
556.96        64.61646
557.39        64.66394
557.83         64.7201
558.27        64.55255
558.70        64.27131
559.14        64.13054
559.57        64.14471
560.01        64.31223
560.45        64.51981
560.88        64.44292
561.32        64.19183
561.75        64.15884
562.19        64.37234
562.63        64.49815
563.06        64.48557
563.50        64.45356
563.93        64.38848
564.37        64.25037
564.80        64.07677
565.24        64.09882
565.68        64.28367
566.11        64.35277
566.55        64.31107
566.98        64.38375
567.42        64.57158
567.85        64.47689
568.29        64.47627
568.72        64.52522
569.16        64.72956
569.60        64.99623
570.03        64.88086
570.47        65.01946
570.90        65.30718
571.34        64.98264
571.77        65.56783
572.21        65.54315
572.64        65.51726
573.08        65.39623
573.51        65.27633
573.95        65.66415
574.38        65.46059
574.82        66.19701
575.25        65.74498
575.69        65.90575
576.12        65.37587
576.56        65.47727
576.99        65.81384
577.42        65.45461
577.86        66.07444
578.29        66.53935
578.73        66.85941
579.16        66.32168
579.60        65.70873
580.03        65.79742
580.47        65.80291
580.90        66.11539
581.33        66.04838
581.77        66.29073
582.20        66.60706
582.64         66.8955
583.07        66.37477
583.51        65.68965
583.94        65.55624
584.37        65.55351
584.81        65.11233
585.24        65.27413
585.68        66.05323
586.11        65.99786
586.54        65.81714
586.98        65.67349
587.41        65.68571
587.85        65.79491
588.28        65.94348
588.71        65.87247
589.15        65.57461
589.58        65.47558
590.01         64.7998
590.45        65.12746
590.88        65.40538
591.31        65.16763
591.75        64.96196
592.18        64.80849
592.61        64.94659
593.05        65.44884
593.48        65.44186
593.91         65.7085
594.35        65.71242
594.78        65.67235
595.21         65.0608
595.65        64.97142
596.08        65.46835
596.51        65.67524
596.94        65.13991
597.38        64.97406
597.81        65.07829
598.24        65.21474
598.68        64.85663
599.11        65.10363
599.54        65.46426
599.97        65.61792
600.41         65.5339
600.84        65.34201
601.27         65.2034
601.70        65.25435
602.14        64.89225
602.57        64.85823
603.00        64.88257
603.43        65.46661
603.87        65.44631
604.30        65.36264
604.73        65.40219
605.16        64.94418
605.60        65.26982
606.03        64.98885
606.46        65.03746
606.89        65.31132
607.32        64.28487
607.76        65.22202
608.19        65.00829
608.62        64.80982
609.05         65.6441
609.48        65.18672
609.92        65.15099
610.35        65.05957
610.78        65.17564
611.21        65.01484
611.64        64.99969
612.07        64.95241
612.50        65.00294
612.94        64.95595
613.37        64.80956
613.80        65.00204
614.23        64.86018
614.66        64.79208
615.09        64.65381
615.52         64.6896
615.96        64.85195
616.39        64.90114
616.82        64.83291
617.25         64.6313
617.68         64.6888
618.11        64.47693
618.54        64.34062
618.97        64.28701
619.40        64.36376
619.84        64.34024
620.27        64.36433
620.70        64.36078
621.13        64.38181
621.56        64.34937
621.99        64.29429
622.42        64.40303
622.85        64.60965
623.28        64.44879
623.71        64.55673
624.14        64.37582
624.57        64.30638
625.00        64.81422
625.43          64.296
625.86        64.39365
626.29         64.5816
626.72        64.57314
627.15        64.41112
627.58        64.35564
628.01        64.51199
628.44        64.04897
628.87         63.7795
629.30        64.34917
629.73        64.17211
630.16        64.35583
630.59        64.03172
631.02        64.24818
631.45        64.00497
631.88        64.04251
632.31        64.12036
632.74        64.00721
633.17        64.17213
633.60        64.11874
634.03        63.99463
634.46        63.86861
634.89        63.68613
635.32        63.60479
635.75        63.60719
636.18         63.6757
636.61        63.77761
637.04        63.86321
637.47        63.91497
637.89        63.95192
638.32        63.96495
638.75        63.96665
639.18        63.96121
639.61        63.94106
640.04        63.91589
640.47        63.90539
640.90        63.91217
641.33        63.93286
641.76        63.95189
642.18         63.9478
642.61        63.90231
643.04        63.83442
643.47        63.76102
643.90        63.71353
644.33         63.7006
644.76        63.69952
645.18        63.71085
645.61        63.75375
646.04        63.81567
646.47        63.84776
646.90         63.8432
647.33        63.85172
647.75        63.86346
648.18        63.82683
648.61        63.79472
649.04        63.85347
649.47        63.94175
649.89         64.2657
650.32        64.09391
650.75         64.0227
651.18        63.89106
651.61        63.81892
652.03        63.84084
652.46        63.87689
652.89        63.93023
653.32        64.09635
653.74        64.29697
654.17        64.30807
654.60         63.4725
655.03         63.6329
655.46        63.87523
655.88        64.54488
656.31        65.72218
656.74        70.77088
657.16        69.92912
657.59        68.02911
658.02        65.48039
658.45        64.53778
658.87        64.28402
659.30        64.21318
659.73        64.08955
660.15        63.67028
660.58        64.13378
661.01        64.37063
661.44        64.57568
661.86        64.42989
662.29        64.00182
662.72        63.73925
663.14        63.71761
663.57        63.76204
664.00        63.83226
664.42        63.90624
664.85        63.97067
665.27        63.93116
665.70        64.00262
666.13        64.02473
666.55        64.06433
666.98        64.10265
667.41        64.11987
667.83        64.09811
668.26        64.04924
668.69        63.92843
669.11        63.76828
669.54        63.84624
669.96        64.22287
670.39        63.95534
670.82        64.52661
671.24        64.59943
671.67          64.586
672.09        64.50165
672.52        64.40173
672.94        64.21348
673.37        64.00308
673.80        63.97558
674.22        64.11829
674.65         64.1823
675.07        64.16556
675.50        64.19065
675.92        64.26117
676.35        64.29971
676.77        64.30003
677.20         64.2942
677.62        64.30203
678.05        64.28174
678.47        64.22742
678.90        64.39703
679.32         64.3344
679.75        64.41067
680.17         64.4811
680.60         64.5491
681.02        64.60551
681.45        64.62138
681.87        64.59853
682.30        64.57842
682.72        64.56718
683.15         64.4375
683.57        64.22699
684.00        64.27802
684.42        64.26895
684.85        64.34675
685.27        64.39569
685.70        64.51077
686.12        64.64042
686.54        64.69827
686.97         64.6633
687.39        64.58963
687.82        64.50476
688.24        64.42579
688.66        64.34839
689.09        64.52683
689.51        64.46638
689.94        64.56407
690.36        64.65127
690.78        64.72162
691.21        64.77874
691.63        64.71766
692.06        64.72712
692.48        64.81934
692.90        64.99584
693.33        65.06056
693.75        65.00742
694.17        64.89433
694.60        64.75107
695.02        64.79166
695.44        64.73929
695.87        64.74048
696.29        64.73853
696.71        64.66383
697.14        64.57316
697.56        64.86385
697.98        65.41946
698.41        65.37862
698.83        65.35931
699.25        65.08256
699.68        64.82056
700.10        64.60075
700.52         64.4707
700.94        64.42065
701.37        64.41835
701.79        64.47011
702.21        64.54053
702.64        64.63477
703.06        64.73924
703.48        64.83858
703.90        64.92698
704.33        64.99716
704.75        65.03606
705.17        65.00919
705.59         64.9211
706.01        64.78606
706.44        64.66646
706.86        64.68316
707.28        64.84304
707.70        65.10583
708.12        65.40159
708.55        65.61436
708.97        65.70366
709.39        65.70734
709.81        65.64861
710.23        65.57567
710.66         65.5152
711.08        65.46952
711.50        65.42319
711.92         65.3707
712.34        65.31394
712.76        65.25861
713.19        65.22416
713.61        65.28436
714.03        65.41678
714.45        65.61134
714.87        65.80859
715.29         65.8734
715.71        65.77887
716.13        65.73367
716.56          65.472
716.98        65.38625
717.40        65.40186
717.82        65.49086
718.24        65.61851
718.66        65.73125
719.08        65.80806
719.50        65.86386
719.92        65.89122
720.34        65.87447
720.76        65.81743
721.19        65.71572
721.61        65.61791
722.03        65.57568
722.45         65.6073
722.87        65.70567
723.29        65.84385
723.71        65.97325
724.13        66.07471
724.55        66.14975
724.97        66.22513
725.39        66.33435
725.81        66.47615
726.23        66.65638
726.65        66.82093
727.07        66.76707
727.49         66.6879
727.91        66.44835
728.33        66.19646
728.75        66.10319
729.17        66.19493
729.59        66.35632
730.01        66.53979
730.43        66.72504
730.85        66.87601
731.27        66.97217
731.69        67.02401
732.10        66.99291
732.52        67.09906
732.94        66.95773
733.36        66.70134
733.78        66.59251
734.20        66.66547
734.62        66.78207
735.04        66.90077
735.46        67.00724
735.88        67.07926
736.30        67.12865
736.72        67.13516
737.13        67.08519
737.55        66.94649
737.97         66.7382
738.39         66.5395
738.81        66.49632
739.23        66.62173
739.65        66.83801
740.06        67.01945
740.48        67.14017
740.90        67.14306
741.32        67.02853
741.74        66.85394
742.16          66.745
742.57        66.74953
742.99         66.8106
743.41        66.89672
743.83        66.93736
744.25        66.91299
744.67         66.8447
745.08        66.78841
745.50        66.78941
745.92         66.8737
746.34        67.01743
746.75        67.16137
747.17        67.21045
747.59        67.15417
748.01        66.99561
748.42        66.81577
748.84        66.81008
749.26        66.97963
749.68        67.10123
750.09        67.14523
750.51        67.26575
750.93        67.41954
751.35        67.42806
751.76        67.32143
752.18        67.26302
752.60        67.26821
753.01        67.28794
753.43         67.2681
753.85        67.17387
754.27        67.00153
754.68         66.8737
755.10        66.68752
755.52        66.70421
755.93        66.88273
756.35        67.18429
756.77        67.51761
757.18        67.74776
757.60        67.83585
758.02        67.79791
758.43        67.68682
758.85        67.61729
759.26        67.63055
759.68        67.61771
760.10         67.1492
760.51         66.9015
760.93        67.44518
761.34        67.60398
761.76        67.57798
762.18        67.59533
762.59        67.61897
763.01        67.74054
763.42        67.10302
763.84        67.14478
764.26        67.29739
764.67        67.60639
765.09        67.88863
765.50        68.12628
765.92        68.27686
766.33         68.1767
766.75        67.87514
767.16        67.72327
767.58        67.71212
768.00        67.80362
768.41        67.97437
768.83         67.8899
769.24        67.61586
769.66        68.02966
770.07        68.22823
770.49        68.49031
770.90        68.48772
771.32        68.17875
771.73        67.72023
772.15        67.52383
772.56        67.66324
772.97        67.91114
773.39        68.13934
773.80        68.30625
774.22        68.32604
774.63        68.23295
775.05        68.05106
775.46        67.88823
775.88        67.75906
776.29        67.65164
776.70        67.57399
777.12        67.56678
777.53        67.64663
777.95        67.79008
778.36        67.95586
778.77        68.06376
779.19        68.10278
779.60        68.10943
780.02        68.09268
780.43        68.15023
780.84        68.31375
781.26        68.34728
781.67        68.32978
782.09         68.7928
782.50        69.50742
782.91        69.40902
783.33        68.78772
783.74        68.50545
784.15        68.66872
784.57        68.76022
784.98        68.72845
785.39        68.59344
785.81        68.41193
786.22        68.44567
786.63        68.67442
787.04        68.81232
787.46        68.84362
787.87        68.89514
788.28        68.99879
788.70        69.07333
789.11        69.09402
789.52        69.22862
789.93        69.39456
790.35        69.17282
790.76        68.70663
791.17        68.63849
791.58        68.98545
792.00        69.26462
792.41        69.40353
792.82        69.53423
793.23        69.67438
793.65        69.64956
794.06        69.57228
794.47        69.95175
794.88        70.65541
795.29        70.57209
795.71        70.59792
796.12        70.31343
796.53        70.08228
796.94        69.92339
797.35        69.88405
797.76        69.93619
798.18        70.01518
798.59        70.04871
799.00        70.00638
799.41        69.91444
799.82        69.79996
800.23        69.71475
800.64        69.67576
801.06        69.63687
801.47        69.64177
801.88        69.68897
802.29        69.77435
802.70        69.89806
803.11        70.02067
803.52        70.07136
803.93        70.03814
804.34        69.94026
804.75        69.83825
805.17        69.83161
805.58        69.97282
805.99        70.18789
806.40        70.42389
806.81        70.65572
807.22        70.81306
807.63        70.76865
808.04         70.5983
808.45        70.56258
808.86        70.69312
809.27          70.856
809.68        70.97855
810.09         70.9848
810.50         70.8466
810.91        70.60323
811.32        70.30708
811.73        70.03742
812.14        69.83317
812.55        69.68295
812.96        69.60571
813.37          69.627
813.78        69.74165
814.19        69.93826
814.60         70.1669
815.01        70.35075
815.42        70.46782
815.83        70.52736
816.24        70.54652
816.65        70.56565
817.05         70.6054
817.46        70.62686
817.87        70.65468
818.28        70.68209
818.69        70.71396
819.10        70.76405
819.51        70.84709
819.92         70.9791
820.33        71.15424
820.74        71.34833
821.14        71.53997
821.55        71.72437
821.96        71.87907
822.37        72.00125
822.78        72.05654
823.19        71.99279
823.60        71.80239
824.00        71.51678
824.41        71.16858
824.82        70.88794
825.23        70.71899
825.64         70.6612
826.04        70.67772
826.45          70.654
826.86         70.5825
827.27        70.49593
827.68        70.46999
828.08        70.65739
828.49        71.00372
828.90        71.48167
829.31        71.99165
829.72        72.30854
830.12        72.38649
830.53        72.56595
830.94        72.28691
831.35        72.03862
831.75        71.70433
832.16         71.2721
832.57        70.88123
832.97        70.75092
833.38        70.91332
833.79        71.30219
834.20        71.75982
834.60        72.03643
835.01        72.06923
835.42        71.93056
835.82        71.71017
836.23        71.51864
836.64        71.43022
837.04        71.41928
837.45        71.46671
837.86        71.60529
838.26        71.83547
838.67        72.13669
839.08        72.46467
839.48        72.72779
839.89        72.88596
840.29        72.94952
840.70        72.95069
841.11         72.9568
841.51        73.00352
841.92        73.04069
842.33        73.04909
842.73        72.99183
843.14        72.82551
843.54        72.61771
843.95        72.42002
844.35        72.33397
844.76        72.37532
845.17        72.51578
845.57        72.73303
845.98        72.95059
846.38        73.16483
846.79        73.36211
847.19        73.54481
847.60        73.63978
848.00        73.67349
848.41        73.61549
848.81        73.56148
849.22        73.60001
849.62        73.79091
850.03        74.06676
850.43         74.3672
850.84        74.48711
851.24        74.43716
851.65        74.19841
852.05        73.92878
852.46         73.8012
852.86        73.86782
853.27        74.10257
853.67        74.30084
854.07        74.32628
854.48        74.12006
854.88        73.77044
855.29        73.35214
855.69        73.18474
856.10        73.25548
856.50        73.56539
856.90        73.93299
857.31         74.1061
857.71        74.06622
858.12        73.82583
858.52        73.48136
858.92        73.11877
859.33        72.77575
859.73        72.48805
860.13        72.25294
860.54        72.07001
860.94        72.00409
861.34        72.01801
861.75        72.10394
862.15        72.31588
862.55        72.59689
862.96        72.90432
863.36        73.15526
863.76        73.17014
864.17        72.91278
864.57        72.46375
864.97        71.93211
865.38        71.49707
865.78        71.27371
866.18        71.21133
866.58         71.3065
866.99        71.51134
867.39        71.81698
867.79        72.20267
868.19        72.57464
868.60        72.71363
869.00        72.64766
869.40        72.55973
869.80        72.44872
870.21        72.17609
870.61        71.83411
871.01         71.5161
871.41        71.25166
871.81        70.99711
872.22        70.76518
872.62        70.58627
873.02        70.50114
873.42        70.71213
873.82        71.06366
874.22         71.0983
874.63        70.96892
875.03        71.01093
875.43        71.24178
875.83         72.2446
876.23        71.85445
876.63          71.322
877.03        70.44406
877.44        68.74181
877.84         155.763
878.24        69.49335
878.64        70.10019
879.04        71.31445
879.44        71.73225
879.84        69.08473
880.24        73.14081
880.64        73.33518
881.04        71.48317
881.44        70.13708
881.84        69.74869
882.24        70.38022
882.65        71.46072
883.05        71.81348
883.45        71.19216
883.85        70.29884
884.25        69.53175
884.65        69.20652
885.05        69.44004
885.45          70.063
885.85        70.76671
886.25        71.12663
886.65        71.04527
887.05        70.67323
887.45        70.17224
887.85        69.80916
888.25        69.68831
888.65        69.71647
889.04        69.87766
889.44        70.15717
889.84        70.49458
890.24        70.86433
890.64         71.1711
891.04        71.26846
891.44        71.13803
891.84        70.84479
892.24        70.41986
892.64        69.93641
893.04        69.47003
893.44        69.02805
893.83        68.77187
894.23        68.90667
894.63        69.44624
895.03        70.31331
895.43        71.24841
895.83        71.80862
896.23        71.87688
896.63        71.57317
897.02        71.09495
897.42        70.81927
897.82        70.80779
898.22        70.95013
898.62        71.13754
899.01        71.20502
899.41        71.08501
899.81        70.87672
900.21        70.62527
900.61        70.38625
901.00        70.17812
901.40        70.03098
901.80        69.98598
902.20        70.00677
902.59        70.07106
902.99        70.39438
903.39        70.98623
903.79        70.49634
904.18        71.04669
904.58        70.94275
904.98        70.81367
905.38        70.59283
905.77        70.29501
906.17        69.96078
906.57        69.66637
906.96        69.63196
907.36        69.88869
907.76        70.38804
908.15        71.01085
908.55        71.39915
908.95        71.50548
909.34        71.36279
909.74        71.13576
910.14        71.06139
910.53          71.196
910.93         71.4523
911.33        71.66411
911.72        71.56777
912.12        71.13288
912.52          70.478
912.91        69.78027
913.31         69.3904
913.70        69.37096
914.10        69.61609
914.49        70.01899
914.89        70.30776
915.29         70.4181
915.68        70.40296
916.08        70.33967
916.47        70.30156
916.87        70.35007
917.26        70.45284
917.66        70.57062
918.05        70.67381
918.45        70.72987
918.84        70.75079
919.24        70.79678
919.64         71.0192
920.03        71.43135
920.42        71.96788
920.82        72.41357
921.21        72.44707
921.61        72.03829
922.00        71.34813
922.40        70.70982
922.79        70.54597
923.19        70.64874
923.58        71.59282
923.98        73.38657
924.37        73.70363
924.77        71.37501
925.16        77.33452
925.55         72.0051
925.95        72.06638
926.34        71.95918
926.74        71.47997
927.13         70.5123
927.52        69.83556
927.92        69.81589
928.31        69.99182
928.70        70.38883
929.10         70.9549
929.49        71.66244
929.89        72.52983
930.28        73.30939
930.67        73.47108
931.07        72.92609
931.46        71.71806
931.85        70.38655
932.24        70.22992
932.64        71.45518
933.03        73.18385
933.42        74.44212
933.82         76.3805
934.21        74.72479
934.60        72.90778
934.99        70.96268
935.39        70.25916
935.78        70.98702
936.17        73.24076
936.56        79.06218
936.96        74.00222
937.35        77.16817
937.74        74.60862
938.13        72.63835
938.53        71.08923
938.92        70.61982
939.31        71.54733
939.70        72.83853
940.09        73.47113
940.49        73.20294
940.88        72.42968
941.27        71.47691
941.66        70.93983
942.05        71.05099
942.44        71.55487
942.84         72.1578
943.23        72.54864
943.62          72.615
944.01        72.45232
944.40        72.25056
944.79        72.30598
945.18        72.68585
945.57        73.29353
945.97         73.8205
946.36        73.91248
946.75        73.45415
947.14        72.55249
947.53        71.59771
947.92        71.25693
948.31         71.6858
948.70        72.67696
949.09        73.73183
949.48         74.0804
949.87        73.56279
950.26         72.4264
950.65        71.13147
951.04        70.43131
951.43        70.54129
951.82        71.23125
952.21        72.14561
952.60        72.67614
952.99        72.61932
953.38        72.16893
953.77          71.576
954.16        71.18217
954.55        71.08838
954.94        71.20944
955.33        71.38109
955.72        71.33615
956.11        71.01345
956.50        70.50209
956.89        70.09853
957.28        70.24474
957.66        71.03336
958.05        72.23515
958.44        73.41945
958.83        73.95348
959.22        73.68621
959.61        72.72884
960.00         71.5104
960.39         70.8725
960.78        71.07675
961.16        71.92294
961.55        72.76353
961.94        72.77709
962.33        71.82668
962.72        70.13565
963.11        68.34039
963.49        67.73692
963.88        68.68658
964.27        70.68202
964.66        72.84684
965.04        74.00589
965.43         73.8558
965.82        72.80674
966.21        71.29971
966.60        70.12396
966.98        69.60518
967.37         69.5021
967.76        69.70526
968.15        70.03781
968.53        70.41846
968.92        70.91355
969.31        71.44671
969.69        71.83601
970.08        71.99812
970.47        71.92708
970.86        71.71498
971.24        71.57896
971.63        71.56759
972.02        71.64474
972.40        71.73414
972.79        71.62415
973.17         71.3416
973.56        70.97163
973.95        70.66503
974.33        70.67414
974.72        71.03576
975.11        71.61137
975.49         72.3567
975.88        73.12471
976.26        73.89758
976.65        74.63832
977.04        75.14858
977.42        75.10499
977.81        74.42986
978.19        73.14167
978.58           71.87
978.96        71.74498
979.35        72.96574
979.74         75.0731
980.12        77.17342
980.51        78.00903
980.89        77.51704
981.28        75.91236
981.66        73.78112
982.05        72.56407
982.43        72.84241
982.82        74.23801
983.20        75.97252
983.59         76.8231
983.97        76.53143
984.35        75.42358
984.74        73.99872
985.12        73.21576
985.51         73.3276
985.89        74.07642
986.28          74.953
986.66        75.30614
987.04        75.03694
987.43        74.27403
987.81        73.24589
988.20        73.59976
988.58        75.62074
988.96         76.7261
989.35        76.06457
989.73        80.99758
990.12        78.18343
990.50        77.89049
990.88        76.86588
991.27        76.10529
991.65         75.7733
992.03        75.87843
992.42        76.32139
992.80        76.47485
993.18        76.18553
993.56        75.67644
993.95        75.15642
994.33        74.91438
994.71        75.03902
995.10        75.37602
995.48        75.81846
995.86        76.19619
996.24        76.43205
996.63          76.517
997.01        76.53751
997.39        76.42226
997.77        76.17673
998.15        75.82002
998.54        75.47507
998.92        75.23447
999.30        75.19267
999.68        75.39362
1000.06        75.77481
1000.45        76.12992
1000.83        76.48122
1001.21        76.79671
1001.59        77.22953
1001.97        78.02576
1002.35        79.11843
1002.73        80.29423
1003.12        81.28068
1003.50        81.78663
1003.88        81.76549
1004.26        81.33162
1004.64        80.56335
1005.02        79.65945
1005.40        78.77796
1005.78        77.91773
1006.16        77.22729
1006.54        76.89143
1006.92         76.9395
1007.30        77.37264
1007.69        77.93849
1008.07         78.3373
1008.45        78.46639
1008.83        78.38402
1009.21        78.28366
1009.59        78.57345
1009.97        79.29491
1010.35        80.16438
1010.73          80.962
1011.11        81.69086
1011.49        82.46007
1011.86        83.09667
1012.24        83.36077
1012.62         84.9436
1013.00        85.61237
1013.38        85.37344
1013.76        83.39465
1014.14        85.85177
1014.52        89.97437
1014.90        84.06834
1015.28        84.72495
1015.66        85.86921
1016.04        83.68674
1016.41        84.73692
1016.79        84.95784
1017.17        84.91537
1017.55        84.11346
1017.93        82.82924
1018.31        81.75536
1018.69        81.68562
1019.06         82.8308
1019.44        84.79015
1019.82        86.69579
1020.20        87.42297
1020.58        86.74065
1020.95        84.67398
1021.33        81.87476
1021.71        80.51003
1022.09        81.64216
1022.46        84.22782
1022.84        86.74891
1023.22        88.06401
1023.60        88.24016
1023.97         87.7411
1024.35        86.98777
1024.73        86.78265
