SpectraSmart Spectrum 2.9.0.0
--------- Device Information -----------
Spectrum Name :  反射率_0
Saving Time :  2024/04/20 23:57:55
Spectro-Module Model Name : SE2030-DUVN
Spectro-Module Serial Number : OS361AC55029948
Wavelength Start : 200
Wavelength End : 1025
Wavelength Unit : Wavelength(nm)
Spectrum Unit : Reflectance(%)
-----------Spectrum Setting ------------
Integration Time : 20ms
Average : 10
Boxcar : 0
Background removal :  enabled
linearity correction :  enabled
SC :  disabled
Intensity correction :  disabled
DWT denoise :  enabled
savitzky-golay :  disabled
FFT :  disabled
Running average :  disabled
Kalman :  disabled
High pass :  disabled
---------------BEGIN--------------------
Wavelength(nm)             Reflectance(%)
200.29               0
200.75       -3.904046
201.21        17.04629
201.67        27.36006
202.13        31.37425
202.58        32.03044
203.04         31.4062
203.50        29.75208
203.96         27.6676
204.42        25.45879
204.88        21.88221
205.34        18.94182
205.80        19.15612
206.26        23.49079
206.72         34.9883
207.18        46.73868
207.64        40.94783
208.10         12.2475
208.55       -33.41147
209.01       -63.86084
209.47       -40.76688
209.93        2.503902
210.39        39.07249
210.85        62.18408
211.31        70.41908
211.77        66.73715
212.23        51.12146
212.69         17.1161
213.14       -40.88052
213.60       -131.5167
214.06       -355.4479
214.52       -791.5493
214.98       -326.9636
215.44       -86.40964
215.90       -9.352475
216.36        15.24281
216.81        16.89707
217.27      -0.6185213
217.73       -92.68222
218.19        1014.055
218.65        415.8739
219.11       -872.1775
219.57       -30.21693
220.02        22.76608
220.48        31.92896
220.94          26.687
221.40        5.976136
221.86       -43.77576
222.32       -75.49977
222.77       -29.93252
223.23        9.391728
223.69        29.34011
224.15        36.56545
224.61        37.34886
225.06        35.25658
225.52         31.1855
225.98        25.88492
226.44        20.06642
226.90        12.51928
227.36        6.719159
227.81        9.251143
228.27        17.39858
228.73         26.5678
229.19        32.53382
229.65        32.83009
230.10        28.17253
230.56        19.97766
231.02        9.778216
231.48        3.544073
231.93        5.248753
232.39        12.35855
232.85        19.90749
233.31         23.7918
233.77        24.26599
234.22        23.10015
234.68        20.96652
235.14        19.08794
235.60        18.35769
236.05        17.60371
236.51        16.69112
236.97        21.58865
237.43        32.37658
237.88        38.59704
238.34        36.21219
238.80        58.57529
239.26        47.75468
239.71        46.44853
240.17        39.03113
240.63        30.43252
241.08        23.57732
241.54        21.51787
242.00        26.37765
242.46        29.93206
242.91        30.26528
243.37        29.09599
243.83        27.32266
244.28        27.30237
244.74        29.89915
245.20        32.38665
245.66        32.76652
246.11        29.56966
246.57        22.56272
247.03        12.56104
247.48     -0.09170859
247.94       -15.06372
248.40       -36.23748
248.85       -83.47034
249.31       -220.6648
249.77       -320.4657
250.22       -107.0514
250.68       -21.23814
251.14        6.983623
251.59        17.89985
252.05        23.57842
252.51        28.18241
252.96        31.49198
253.42          32.123
253.88        29.64495
254.33        25.92274
254.79        26.33256
255.25        32.66209
255.70        40.92378
256.16        48.23186
256.62        53.25978
257.07        55.42613
257.53          55.967
257.99        55.65572
258.44        54.74023
258.90        54.03654
259.35        53.16285
259.81         52.3394
260.27        51.47196
260.72        50.58529
261.18        49.94369
261.63        49.27039
262.09        48.56472
262.55        47.43433
263.00        45.86544
263.46        44.20679
263.91        42.57409
264.37         41.5027
264.83          40.942
265.28        40.65434
265.74        40.50734
266.19        40.16585
266.65        39.60709
267.11        38.87215
267.56        37.97646
268.02        37.02566
268.47        36.01768
268.93        34.97263
269.38        33.87631
269.84        32.77122
270.30        31.68177
270.75        30.63668
271.21        29.72547
271.66        29.00831
272.12        28.50781
272.57        28.16277
273.03        27.91036
273.48        27.62716
273.94        27.28899
274.39        26.89043
274.85        26.45258
275.31        25.95318
275.76        25.39987
276.22         24.8346
276.67        24.29601
277.13        23.90656
277.58        23.64468
278.04        23.49231
278.49        23.35369
278.95        23.15771
279.40        22.84795
279.86        22.48066
280.31        22.05387
280.77        21.63869
281.22        21.23126
281.68        20.87508
282.13        20.53512
282.59        20.22836
283.04        19.93945
283.50        19.68388
283.95        19.51383
284.41        19.52562
284.86        19.70692
285.32        20.02444
285.77         20.3349
286.22        20.44205
286.68        20.34041
287.13        20.06653
287.59        19.81142
288.04        19.76325
288.50        19.93149
288.95        20.36658
289.41        20.97224
289.86        21.10806
290.32        20.65598
290.77        21.66822
291.22        20.84533
291.68        20.99204
292.13        21.16187
292.59        21.43052
293.04        21.81607
293.50         22.4226
293.95         23.2795
294.40        24.33666
294.86        25.52477
295.31        26.71556
295.77        27.86787
296.22        28.99639
296.68        30.14317
297.13        31.37455
297.58        32.72047
298.04         34.1552
298.49        35.66073
298.95        37.22909
299.40        38.83251
299.85        40.48702
300.31        42.15827
300.76        43.77084
301.21        45.32467
301.67        46.85564
302.12        48.41935
302.58        50.20022
303.03        52.19292
303.48        54.38332
303.94        56.65166
304.39        58.76157
304.84        60.66643
305.30        62.44077
305.75        64.16309
306.20        66.05766
306.66        68.15688
307.11        70.33181
307.57        72.47232
308.02        74.34991
308.47        75.94343
308.93        77.36438
309.38        78.67281
309.83         80.0084
310.29        81.48099
310.74        82.95499
311.19        84.39992
311.65        85.72543
312.10        86.88957
312.55        87.93725
313.00        88.88579
313.46        89.76142
313.91        90.56557
314.36        91.29765
314.82        91.99091
315.27        92.69463
315.72        93.42229
316.18        94.16024
316.63        94.86471
317.08        95.46356
317.53        95.93478
317.99         96.2982
318.44         96.5808
318.89        96.81352
319.35        97.01572
319.80         97.1925
320.25        97.36205
320.70        97.55836
321.16        97.77865
321.61        98.03048
322.06          98.293
322.51        98.53471
322.97        98.73168
323.42        98.92918
323.87        99.10334
324.32        99.23619
324.78        99.31333
325.23        99.37103
325.68        99.44597
326.13         99.6302
326.59        99.91145
327.04        100.3086
327.49        100.7132
327.94         100.975
328.39        101.0554
328.85        100.9712
329.30        100.8584
329.75        100.8236
330.20        100.9136
330.66         101.059
331.11        101.2985
331.56        101.5603
332.01        101.8283
332.46        102.1348
332.92        102.4128
333.37        102.6774
333.82        102.8851
334.27        103.0395
334.72        103.2316
335.17        103.6235
335.63        104.2097
336.08        104.9882
336.53        105.7927
336.98        106.3907
337.43        106.7142
337.88        106.8273
338.34        106.8104
338.79        106.8624
339.24        107.0305
339.69        107.2733
340.14        107.5685
340.59        107.8831
341.05        108.2003
341.50        108.5411
341.95        108.8998
342.40        109.2599
342.85        109.6128
343.30        109.9558
343.75        110.2557
344.20        110.4744
344.66        110.6163
345.11        110.6684
345.56        110.7057
346.01        110.8441
346.46        111.1021
346.91        111.4379
347.36        111.7303
347.81        111.8288
348.26        111.7135
348.72        111.3173
349.17        111.0028
349.62        110.8137
350.07        110.8691
350.52        111.0838
350.97        111.3251
351.42        111.3731
351.87        111.1632
352.32        110.7698
352.77        110.2804
353.22        109.8222
353.67        109.4382
354.13        109.1068
354.58        108.7709
355.03        108.3992
355.48          107.98
355.93        107.5259
356.38         107.071
356.83        106.6595
357.28        106.2796
357.73        105.8967
358.18        105.4307
358.63        104.7646
359.08        103.8927
359.53        102.8823
359.98        101.8229
360.43        100.8427
360.88        99.98109
361.33         99.1993
361.78        98.49828
362.23        97.87597
362.68        97.31198
363.13        96.80558
363.58        96.27045
364.03        95.56707
364.48        94.67029
364.93         93.6143
365.38        92.51383
365.83        91.56482
366.28        90.81802
366.73         90.2185
367.18        89.67176
367.63        89.02357
368.08         88.2337
368.53        87.35719
368.98         86.4495
369.43         85.5822
369.88        84.77237
370.33        83.98963
370.78        83.21107
371.23        82.42188
371.68        81.62915
372.13        80.84976
372.58         80.1185
373.03        79.46799
373.48         78.8921
373.93        78.37694
374.38        77.86378
374.83        77.26717
375.28        76.58434
375.72        75.84029
376.17         75.1311
376.62        74.53829
377.07        74.06416
377.52        73.65722
377.97        73.27317
378.42        72.85326
378.87        72.38531
379.32        71.90475
379.77        71.39513
380.22        70.81554
380.67        70.15923
381.11        69.43118
381.56        68.70508
382.01        68.13066
382.46        67.75105
382.91        67.53387
383.36        67.36346
383.81        67.05345
384.26        66.56197
384.71        65.94244
385.15        65.29728
385.60        64.84574
386.05        64.60598
386.50        64.50959
386.95        64.43916
387.40        64.21831
387.85        63.82098
388.29        63.28771
388.74        62.79412
389.19        62.41704
389.64        62.16854
390.09        61.98763
390.54        61.84511
390.98        61.68932
391.43        61.54117
391.88        61.41653
392.33        61.27533
392.78        61.09392
393.23        60.88131
393.67        60.50383
394.12        60.13212
394.57        60.12603
395.02        60.37493
395.47        60.24923
395.91         59.7767
396.36        59.51203
396.81        59.49767
397.26        59.43245
397.71        59.26563
398.15        59.07856
398.60        58.93562
399.05        58.63301
399.50        58.30738
399.95        58.42296
400.39        58.85339
400.84        58.92201
401.29        58.57543
401.74        58.11934
402.18        57.69573
402.63         57.5046
403.08         57.5279
403.53        57.41054
403.97        57.14731
404.42        57.04325
404.87        57.06717
405.32        57.05458
405.76        56.98527
406.21        56.83582
406.66        56.66404
407.11        56.72472
407.55        56.95758
408.00        56.96277
408.45        56.73312
408.90        56.43867
409.34        56.19504
409.79        56.24257
410.24        56.51512
410.68        56.63735
411.13        56.58586
411.58        56.60891
412.03        56.70369
412.47        56.74177
412.92        56.69985
413.37        56.63277
413.81        56.58036
414.26        56.64526
414.71        56.82848
415.15        57.11334
415.60        57.41487
416.05        57.63101
416.49        57.72701
416.94        57.72211
417.39        57.66978
417.83        57.64989
418.28        57.68841
418.73        57.75616
419.17        57.82825
419.62        57.87576
420.07        57.89029
420.51        57.88895
420.96        57.89942
421.41        57.91867
421.85        57.92684
422.30         57.9483
422.74        57.98687
423.19        58.15091
423.64        58.44036
424.08        58.85387
424.53        59.23517
424.98        59.51222
425.42        59.67328
425.87        59.50042
426.31        59.20452
426.76        59.59501
427.21        60.52245
427.65         60.7992
428.10        60.38972
428.54        60.28706
428.99        60.53931
429.44        60.63073
429.88         60.5353
430.33        60.41694
430.77        60.29881
431.22        60.47321
431.66        60.89544
432.11        61.20053
432.56        61.39697
433.00        61.72194
433.45        61.87937
433.89        61.79714
434.34        61.80331
434.78        60.50371
435.23          61.022
435.67        62.26229
436.12        62.45912
436.57          62.703
437.01        62.39223
437.46        62.28028
437.90        63.03917
438.35        63.21562
438.79        63.42976
439.24        63.47543
439.68         63.5187
440.13        63.39568
440.57        63.21436
441.02        63.45709
441.46        64.01624
441.91        64.20642
442.35        64.02023
442.80        64.36581
443.24        65.09345
443.69        65.22241
444.13        64.75688
444.58        64.77857
445.02        64.69702
445.47        65.05343
445.91        65.51943
446.36        65.75455
446.80        65.70544
447.24        65.56444
447.69        65.46063
448.13        65.53962
448.58        65.81074
449.02        65.90589
449.47        65.83184
449.91        65.85172
450.36        65.98358
450.80        65.97684
451.25        65.88623
451.69        65.96894
452.13        66.17937
452.58         66.1645
453.02        65.93565
453.47        65.80935
453.91        65.79657
454.36        65.74809
454.80        65.63306
455.24        65.54099
455.69        65.50488
456.13        65.32952
456.58        65.11347
457.02         65.3885
457.46        65.68087
457.91        65.70328
458.35        65.47118
458.79        65.33015
459.24        65.33176
459.68        65.24033
460.13        65.10203
460.57         64.8921
461.01        64.61819
461.46        64.72839
461.90        64.36968
462.34        64.41412
462.79        64.30588
463.23         64.4535
463.68        64.65131
464.12        64.39106
464.56        63.85283
465.01        63.99346
465.45        64.50396
465.89        64.74634
466.34        64.04202
466.78         63.7226
467.22        63.60168
467.67        64.21244
468.11        63.94038
468.55        63.93753
468.99        63.75735
469.44        63.64985
469.88        63.61496
470.32        63.48087
470.77        63.28965
471.21         63.1759
471.65        63.15379
472.10        63.18266
472.54        63.21368
472.98        63.19124
473.42        63.10823
473.87         63.0111
474.31        62.89779
474.75        62.85774
475.20         62.8825
475.64         62.8925
476.08        62.88785
476.52        62.93381
476.97        63.00853
477.41        63.15204
477.85        63.24738
478.29        63.22031
478.74        62.52159
479.18        62.54201
479.62        62.75118
480.06        62.85212
480.50        62.71751
480.95        62.84137
481.39        63.16861
481.83        62.94073
482.27        63.29374
482.72        63.01312
483.16        62.82811
483.60        63.09938
484.04        63.12259
484.48        62.97364
484.93        63.15996
485.37         62.7909
485.81        63.48133
486.25        62.64582
486.69        64.01189
487.14        63.38095
487.58        63.02444
488.02        63.17518
488.46        62.84034
488.90        62.90242
489.34        62.83828
489.79        62.24724
490.23        62.66102
490.67        62.79334
491.11        63.02774
491.55         62.9438
491.99        62.62605
492.43        62.54493
492.88        62.68062
493.32        62.82349
493.76         62.8598
494.20        62.88188
494.64        62.89832
495.08        62.51693
495.52        62.36096
495.96        62.43739
496.41        62.79938
496.85        62.90437
497.29        62.67374
497.73        62.61642
498.17         62.4197
498.61        62.32174
499.05        62.22583
499.49        62.04321
499.93        61.87561
500.37        61.97291
500.82        62.27069
501.26        62.63906
501.70        62.92039
502.14        62.54858
502.58        62.03131
503.02        61.73019
503.46        61.76349
503.90        61.81622
504.34        61.82475
504.78        61.87212
505.22        61.93921
505.66        61.98808
506.10        62.01462
506.54        62.05754
506.98        62.11883
507.42        61.94701
507.86        62.10845
508.30        61.91127
508.74        61.99254
509.18         61.9411
509.62        61.90218
510.06        61.89518
510.50         61.9006
510.94        61.84907
511.38        61.73703
511.82        61.63872
512.26        61.55909
512.70        61.45288
513.14        61.35316
513.58         61.3338
514.02        61.40137
514.46        61.53459
514.90        61.66317
515.34        61.70854
515.78        61.65613
516.22        61.50862
516.66        61.18029
517.10        61.37006
517.54        61.22754
517.98        61.39942
518.42        61.58139
518.86         61.7221
519.30        61.79439
519.74        61.78679
520.18        61.74542
520.62         61.8179
521.06         61.9705
521.50        61.95687
521.93         61.7999
522.37        61.73822
522.81         61.7865
523.25        61.82026
523.69         61.8063
524.13        61.74727
524.57        61.64062
525.01        61.49129
525.45        61.35246
525.89        61.30788
526.32        61.36996
526.76        61.51576
527.20        61.68479
527.64        61.78147
528.08        61.78101
528.52        61.71678
528.96        61.62728
529.40          61.566
529.83        61.54762
530.27        61.57882
530.71        61.63272
531.15        61.66721
531.59        61.67044
532.03        61.66161
532.46        61.63639
532.90         61.5985
533.34        61.54844
533.78        61.49022
534.22        61.42926
534.66        61.37561
535.09        61.32407
535.53        61.29072
535.97        61.27208
536.41        61.27806
536.85        61.30696
537.28        61.35622
537.72        61.40144
538.16        61.40513
538.60        61.35972
539.04        61.27618
539.47        61.17412
539.91        61.13568
540.35        61.15549
540.79        61.21677
541.22        61.27861
541.66        61.28971
542.10        61.23222
542.54        61.12341
542.97        60.99562
543.41        60.92837
543.85        60.93724
544.29        61.01796
544.72        61.11303
545.16        61.18815
545.60        61.21727
546.04        61.13335
546.47        61.02974
546.91        61.19672
547.35        61.55748
547.79        61.78107
548.22        61.77148
548.66        61.55345
549.10        61.23021
549.53        61.08868
549.97         61.1517
550.41        61.13003
550.84        61.02354
551.28        61.05909
551.72        61.21154
552.15        61.29454
552.59        61.30054
553.03        61.34441
553.46        61.31122
553.90        61.31354
554.34        61.31123
554.77        61.28653
555.21        61.28395
555.65        61.34911
556.08        61.47354
556.52        61.69467
556.96        61.91379
557.39        61.91433
557.83        61.72258
558.27        61.52837
558.70        61.40591
559.14        61.31659
559.57        61.26975
560.01        61.43745
560.45        61.68313
560.88        61.59062
561.32        61.27071
561.75        61.08071
562.19        61.11324
562.63         61.2878
563.06         61.5062
563.50        61.52098
563.93        61.33448
564.37        61.23009
564.80        61.23501
565.24        61.34897
565.68        61.53766
566.11        61.64854
566.55        61.67675
566.98        61.79552
567.42        61.97554
567.85        61.83229
568.29        61.50411
568.72        61.49926
569.16        61.82799
569.60         61.8345
570.03        61.79977
570.47        61.77922
570.90        61.85317
571.34        61.83301
571.77         62.0677
572.21        61.94067
572.64        62.04526
573.08         61.5997
573.51        62.07961
573.95        62.36533
574.38        61.83935
574.82        62.62458
575.25        62.50014
575.69        62.27206
576.12        61.61935
576.56        61.89318
576.99        62.28825
577.42        62.40811
577.86        62.34458
578.29        62.54655
578.73        62.75472
579.16        62.22807
579.60        61.90304
580.03        62.31201
580.47        62.14618
580.90        62.03044
581.33        62.58842
581.77        62.72517
582.20        62.70794
582.64        62.55547
583.07        62.34861
583.51        62.32057
583.94         62.2776
584.37        61.95678
584.81        61.56548
585.24        61.49611
585.68         62.1165
586.11        62.25481
586.54        62.02497
586.98        61.93504
587.41        62.05271
587.85        62.06822
588.28        62.34148
588.71        62.17373
589.15        62.36928
589.58        61.88739
590.01        61.75468
590.45        62.01024
590.88        61.88627
591.31        61.63055
591.75        61.65333
592.18        61.69206
592.61        61.92453
593.05        62.18287
593.48        62.21412
593.91        62.32693
594.35        62.41965
594.78        61.91469
595.21        61.70205
595.65        61.74646
596.08        62.15215
596.51        62.35025
596.94        61.79019
597.38        61.66333
597.81        61.86154
598.24        62.05208
598.68        61.67085
599.11        62.12917
599.54        62.11857
599.97        62.25706
600.41        62.17651
600.84        62.27987
601.27        62.23674
601.70        62.09337
602.14        62.04947
602.57        62.03596
603.00        62.13205
603.43        62.14634
603.87          62.513
604.30        62.32335
604.73        62.20922
605.16        62.13943
605.60        62.13927
606.03        62.20771
606.46        62.36337
606.89        61.84961
607.32        61.67426
607.76        62.39772
608.19        62.20268
608.62        61.95365
609.05        62.80623
609.48        62.38581
609.92        62.46724
610.35        62.36214
610.78        62.32679
611.21        62.48093
611.64        62.25321
612.07        62.21729
612.50        62.20987
612.94        62.17304
613.37           62.12
613.80        62.14124
614.23        62.17948
614.66        62.05345
615.09        61.81544
615.52        61.82486
615.96        62.03821
616.39        62.08065
616.82        61.93198
617.25        61.91039
617.68        61.73036
618.11        61.82598
618.54         61.9626
618.97        61.90895
619.40        61.62724
619.84        61.82994
620.27        61.90685
620.70         61.9253
621.13        61.73033
621.56        61.74672
621.99        61.95229
622.42        61.98066
622.85        61.82533
623.28        61.90524
623.71        61.74705
624.14        62.20945
624.57         61.7232
625.00        62.13053
625.43        61.73454
625.86        61.73718
626.29        61.78259
626.72        61.55288
627.15        61.61152
627.58        61.60269
628.01         61.6997
628.44        61.59369
628.87        61.55682
629.30        61.76719
629.73        61.40573
630.16        61.69694
630.59         61.3591
631.02        61.62572
631.45        61.31771
631.88        61.32183
632.31        61.39991
632.74        61.18612
633.17        61.30592
633.60        61.23826
634.03        61.17805
634.46        61.16276
634.89        61.10899
635.32        61.11556
635.75        61.14676
636.18        61.19926
636.61        61.25771
637.04        61.30077
637.47        61.32169
637.89        61.33445
638.32        61.32012
638.75        61.27399
639.18        61.20219
639.61        61.11159
640.04        61.03576
640.47        61.02835
640.90        61.09732
641.33        61.22343
641.76        61.36949
642.18        61.47511
642.61        61.51309
643.04        61.50152
643.47        61.45272
643.90        61.39032
644.33        61.32744
644.76        61.24538
645.18        61.16515
645.61         61.1423
646.04        61.16965
646.47        61.18416
646.90         61.1742
647.33         61.1679
647.75        61.15135
648.18        61.12426
648.61         61.1167
649.04        61.10268
649.47        61.07235
649.89        61.38124
650.32        61.32959
650.75        61.43299
651.18        61.46116
651.61        61.33275
652.03        61.12106
652.46        61.05814
652.89        61.15943
653.32        61.29763
653.74        61.42514
654.17        61.44335
654.60        60.92689
655.03        61.27727
655.46        61.07325
655.88        61.54589
656.31        62.51059
656.74        65.67393
657.16        64.32215
657.59        62.58776
658.02        61.49535
658.45        61.44062
658.87        61.64537
659.30        61.66529
659.73        61.45653
660.15        61.36962
660.58        61.59426
661.01        61.90628
661.44        62.17895
661.86        61.92268
662.29        61.26627
662.72         61.0058
663.14        61.19226
663.57        61.26175
664.00        61.17758
664.42        61.20338
664.85        61.33409
665.27        61.33216
665.70        61.39663
666.13        61.42509
666.55        61.48067
666.98        61.53189
667.41        61.56346
667.83        61.56086
668.26        61.53349
668.69        61.44069
669.11        61.29872
669.54         61.3457
669.96        61.63795
670.39        61.29002
670.82        61.74937
671.24        61.75945
671.67        61.73244
672.09        61.70354
672.52        61.69988
672.94        61.58109
673.37        61.39654
673.80        61.37068
674.22        61.50053
674.65        61.55323
675.07        61.53259
675.50        61.55462
675.92        61.61853
676.35         61.6448
676.77        61.62759
677.20        61.60312
677.62        61.60212
678.05        61.59531
678.47        61.57329
678.90        61.80096
679.32        61.77525
679.75        61.86463
680.17        61.91441
680.60        61.96793
681.02         62.0098
681.45        61.97661
681.87        61.90295
682.30        61.86197
682.72        61.88829
683.15        61.96805
683.57        62.05034
684.00         62.1497
684.42        61.93059
684.85        61.88198
685.27        61.90038
685.70        61.87903
686.12        61.81446
686.54        61.79757
686.97        61.82628
687.39         61.9039
687.82        62.00259
688.24        62.04504
688.66        61.99779
689.09        62.13282
689.51        62.01012
689.94         62.0778
690.36        62.19175
690.78        62.30633
691.21         62.4034
691.63        62.41241
692.06         62.4123
692.48        62.49567
692.90        62.64896
693.33        62.69459
693.75        62.63175
694.17        62.54342
694.60        62.44303
695.02        62.45683
695.44        62.35297
695.87        62.38258
696.29        62.47598
696.71        62.54045
697.14        62.55076
697.56        62.65572
697.98         62.8378
698.41        62.65823
698.83        62.74043
699.25        62.60684
699.68        62.47065
700.10        62.37039
700.52        62.32575
700.94         62.3204
701.37        62.32309
701.79        62.34128
702.21         62.3493
702.64        62.35983
703.06        62.37556
703.48        62.40654
703.90        62.45718
704.33        62.51597
704.75        62.58119
705.17        62.62809
705.59         62.6503
706.01         62.6581
706.44        62.67026
706.86        62.68278
707.28        62.77342
707.70        62.86414
708.12        62.95104
708.55        62.97697
708.97        62.92531
709.39        62.82031
709.81        62.69754
710.23        62.62554
710.66        62.62892
711.08        62.70424
711.50         62.7979
711.92        62.84153
712.34        62.82025
712.76        62.74999
713.19        62.67574
713.61        62.71912
714.03        62.87251
714.45        63.10867
714.87         63.3511
715.29        63.44154
715.71         63.3458
716.13        63.27486
716.56        62.98454
716.98        62.86945
717.40        62.86512
717.82        62.94295
718.24           63.06
718.66        63.14893
719.08        63.18922
719.50        63.20343
719.92        63.20584
720.34        63.21356
720.76        63.23437
721.19        63.24995
721.61        63.27895
722.03        63.32661
722.45        63.39406
722.87        63.48088
723.29        63.57694
723.71        63.66432
724.13        63.73508
724.55        63.78566
724.97        63.82559
725.39        63.87283
725.81        63.92978
726.23        63.99313
726.65        64.03646
727.07        64.02296
727.49         63.9525
727.91        63.82883
728.33        63.70365
728.75        63.69476
729.17         63.8055
729.59        63.93296
730.01         64.0456
730.43        64.15322
730.85         64.2346
731.27        64.25494
731.69        64.23144
732.10        64.15536
732.52        64.23333
732.94        64.05956
733.36        63.75646
733.78        63.60998
734.20        63.66356
734.62        63.68854
735.04         63.8145
735.46        63.85243
735.88         63.8578
736.30        63.82638
736.72        63.79047
737.13        63.94857
737.55        64.19652
737.97         64.1178
738.39        63.77946
738.81         63.7661
739.23         64.0442
739.65        64.03844
740.06        63.74456
740.48        63.65606
740.90          63.754
741.32        63.82421
741.74        63.85664
742.16        63.93425
742.57        64.05892
742.99        64.18427
743.41        64.29263
743.83        64.33596
744.25        64.30533
744.67        64.21355
745.08        64.11684
745.50        64.06467
745.92        64.09187
746.34        64.19015
746.75         64.3081
747.17        64.35501
747.59        64.31226
748.01        64.17219
748.42        64.02324
748.84         64.0299
749.26        64.18138
749.68        64.39001
750.09        64.56156
750.51        64.45402
750.93        64.15891
751.35        64.17157
751.76        64.47398
752.18        64.57661
752.60        64.45889
753.01        64.52203
753.43        64.55797
753.85         64.5061
754.27        64.31429
754.68        64.03853
755.10        63.79019
755.52        63.72489
755.93        63.87365
756.35        64.18559
756.77        64.52931
757.18        64.70551
757.60        64.66238
758.02        64.43105
758.43        64.15345
758.85        64.04736
759.26        64.19471
759.68        64.42964
760.10        64.02251
760.51        63.74898
760.93        64.17436
761.34        64.47995
761.76        64.84692
762.18        64.89314
762.59        64.63853
763.01        64.69608
763.42        64.27302
763.84        64.39461
764.26        64.44334
764.67        64.72611
765.09        65.02712
765.50        65.10143
765.92         64.9799
766.33        64.84024
766.75        64.73481
767.16         64.6877
767.58        64.66042
768.00        64.86967
768.41        65.22884
768.83        65.05219
769.24        64.44483
769.66        64.69449
770.07         64.8548
770.49        65.03233
770.90         64.9176
771.32        64.75224
771.73        64.61179
772.15        64.56762
772.56        64.65888
772.97        64.81183
773.39        64.94437
773.80        65.03619
774.22        65.03312
774.63        64.96151
775.05        64.86045
775.46        64.84796
775.88        64.92548
776.29        65.08163
776.70        65.23443
777.12         65.2606
777.53        65.15627
777.95        64.96735
778.36        64.76542
778.77        64.65385
779.19        64.66145
779.60        64.75641
780.02         64.9223
780.43        65.13204
780.84        65.35604
781.26        65.63732
781.67        65.93968
782.09        65.97993
782.50        65.80788
782.91        65.81277
783.33        65.96186
783.74        65.97334
784.15        65.80866
784.57        65.68233
784.98        65.64394
785.39        65.65252
785.81         65.7137
786.22        65.83443
786.63         65.9694
787.04        66.04552
787.46        66.05801
787.87         66.0029
788.28        65.92477
788.70        65.88658
789.11        65.88737
789.52        65.92109
789.93        65.97828
790.35        66.03413
790.76        66.09183
791.17        66.16075
791.58        66.23939
792.00        66.29315
792.41        66.34772
792.82        66.43288
793.23         66.5523
793.65        66.62053
794.06        66.69903
794.47        66.96895
794.88        67.33089
795.29        67.59618
795.71        67.52852
796.12        67.46644
796.53        67.37703
796.94         67.2745
797.35        67.17787
797.76          67.098
798.18        67.02699
798.59         66.9323
799.00        66.80934
799.41        66.68073
799.82        66.56766
800.23        66.49899
800.64        66.48379
801.06        66.49455
801.47        66.54976
801.88        66.60468
802.29        66.64864
802.70        66.68423
803.11        66.72678
803.52         66.8037
803.93        66.91938
804.34        67.06028
804.75        67.19865
805.17        67.29073
805.58        67.35376
805.99        67.35912
806.40        67.33598
806.81        67.39747
807.22        67.51836
807.63        67.53474
808.04        67.47155
808.45        67.49644
808.86         67.6162
809.27        67.73997
809.68        67.82621
810.09        67.84571
810.50        67.78465
810.91        67.64991
811.32        67.49345
811.73        67.40216
812.14        67.40034
812.55        67.47066
812.96        67.56607
813.37        67.60152
813.78        67.55681
814.19        67.46246
814.60        67.36752
815.01        67.34547
815.42        67.41549
815.83        67.55422
816.24        67.72681
816.65        67.86612
817.05        67.94975
817.46        67.96983
817.87        67.97398
818.28        67.99432
818.69        68.04372
819.10         68.1069
819.51        68.18583
819.92        68.28588
820.33        68.39484
820.74         68.5003
821.14        68.57466
821.55         68.5938
821.96        68.54302
822.37        68.44144
822.78        68.29192
823.19        68.10445
823.60         67.8971
824.00        67.68402
824.41        67.49573
824.82        67.44789
825.23        67.55342
825.64        67.78579
826.04        68.05145
826.45        68.15848
826.86        68.07855
827.27        67.86428
827.68        67.61408
828.08         67.5295
828.49        67.60302
828.90        67.82632
829.31        68.15096
829.72        68.40845
830.12        68.55908
830.53        68.96967
830.94        68.96495
831.35        69.02309
831.75         68.9623
832.16        68.78043
832.57        68.55973
832.97        68.44224
833.38        68.45802
833.79        68.56045
834.20        68.70908
834.60        68.83587
835.01        68.91273
835.42        68.96873
835.82        68.97864
836.23        68.85026
836.64        68.60165
837.04        68.27094
837.45        67.94796
837.86         67.8393
838.26        67.99681
838.67        68.34998
839.08        68.78278
839.48        69.08772
839.89        69.19529
840.29        69.15951
840.70        69.06629
841.11        69.06367
841.51        69.20571
841.92        69.40238
842.33        69.59756
842.73        69.70007
843.14        69.64337
843.54        69.51159
843.95        69.34347
844.35        69.21932
844.76        69.16118
845.17        69.14332
845.57        69.19873
845.98        69.34663
846.38        69.60021
846.79        69.92242
847.19        70.24525
847.60        70.37501
848.00        70.31297
848.41        70.07843
848.81        69.82201
849.22        69.73624
849.62        69.91047
850.03        70.22736
850.43        70.62514
850.84        70.90257
851.24        71.04921
851.65         71.0574
852.05        70.97264
852.46        70.77286
852.86        70.49736
853.27        70.21148
853.67        69.90871
854.07        69.71942
854.48        69.62725
854.88         69.6245
855.29        69.67529
855.69        69.87276
856.10        70.11034
856.50        70.45248
856.90        70.70891
857.31        70.61941
857.71        70.19537
858.12        69.44913
858.52        68.62475
858.92        68.07493
859.33        67.90179
859.73        68.08138
860.13        68.42534
860.54        68.60378
860.94         68.5777
861.34        68.38293
861.75        68.14494
862.15        68.15372
862.55        68.42049
862.96        68.82076
863.36        69.16888
863.76        69.12696
864.17        68.62414
864.57        67.81831
864.97        66.90755
865.38        66.20052
865.78        65.86594
866.18        65.83199
866.58        66.08536
866.99        66.54721
867.39        67.15964
867.79        67.87345
868.19        68.57095
868.60        69.01588
869.00        69.24162
869.40        69.45649
869.80        69.56361
870.21        69.23969
870.61        68.54977
871.01        67.66714
871.41        66.83605
871.81        66.30504
872.22        66.14372
872.62        66.30548
873.02        66.64011
873.42        67.00867
873.82        67.14572
874.22        66.67349
874.63        65.93372
875.03        65.60632
875.43        65.81349
875.83        67.13528
876.23        66.95434
876.63        66.70402
877.03        66.10458
877.44        64.64652
877.84        162.3327
878.24        65.99783
878.64        66.43504
879.04         67.3242
879.44        67.24366
879.84        63.71782
880.24        68.27299
880.64        68.43982
881.04        66.30027
881.44        64.83041
881.84        64.52773
882.24        65.47153
882.65        66.94258
883.05        67.47445
883.45        66.77995
883.85        65.68423
884.25        64.68212
884.65        64.21354
885.05        64.44166
885.45        65.14911
885.85        65.99264
886.25         66.5004
886.65        66.55184
887.05        66.31561
887.45        65.92163
887.85        65.57944
888.25        65.38335
888.65        65.24906
889.04        65.22407
889.44         65.4035
889.84        65.76371
890.24        66.26974
890.64        66.75428
891.04        66.96384
891.44        66.85301
891.84        66.48977
892.24        66.01099
892.64        65.66739
893.04        65.54803
893.44        65.59547
893.83        65.74469
894.23        65.85931
894.63         65.9147
895.03        65.96477
895.43        66.05261
895.83        66.22995
896.23        66.50542
896.63        66.83813
897.02        67.17023
897.42        67.49808
897.82        67.77872
898.22        67.99711
898.62        68.16212
899.01        68.30242
899.41        68.39141
899.81        68.43669
900.21        68.36781
900.61         68.0692
901.00         67.5369
901.40        66.90773
901.80        66.34563
902.20        65.96814
902.59        65.80537
902.99        66.06136
903.39        66.76453
903.79        66.39187
904.18        67.33314
904.58        67.63717
904.98        67.88496
905.38        67.80154
905.77        67.37374
906.17        66.69014
906.57        65.98307
906.96        65.74233
907.36         66.0731
907.76        66.86254
908.15        67.85429
908.55        68.45325
908.95        68.54118
909.34        68.21874
909.74        67.77527
910.14        67.64579
910.53        67.92551
910.93        68.44396
911.33        68.90633
911.72        68.85636
912.12        68.22263
912.52        67.20383
912.91        66.08021
913.31        65.35468
913.70         65.1409
914.10        65.29351
914.49        65.67658
914.89        65.97109
915.29        66.09116
915.68        66.11203
916.08        66.10117
916.47        66.11214
916.87        66.19467
917.26        66.29625
917.66        66.39542
918.05        66.49837
918.45        66.58204
918.84        66.66507
919.24        66.74992
919.64        66.89344
920.03        67.10098
920.42        67.33168
920.82        67.51362
921.21        67.54897
921.61        67.44932
922.00        67.31807
922.40        67.27367
922.79        67.37769
923.19        67.31101
923.58        67.83134
923.98        69.26198
924.37        69.36308
924.77        66.87647
925.16         74.2484
925.55        68.86735
925.95        69.28912
926.34        69.11588
926.74        68.23241
927.13        66.72359
927.52        65.85924
927.92        66.15475
928.31        66.93744
928.70        67.92385
929.10        68.63746
929.49        68.97413
929.89        69.08675
930.28        68.99309
930.67        68.62128
931.07        68.03635
931.46        67.16196
931.85         66.2942
932.24        66.35511
932.64        67.46078
933.03        68.80875
933.42        69.61872
933.82        71.81912
934.21        70.41177
934.60        69.30911
934.99        68.18428
935.39         67.9779
935.78        68.71482
936.17        70.70241
936.56        76.54208
936.96         70.2935
937.35        73.60638
937.74        70.46236
938.13        68.09081
938.53        66.23749
938.92        65.64909
939.31        66.78047
939.70        68.40499
940.09        69.27863
940.49        69.12111
940.88        68.36748
941.27        67.45204
941.66        67.17073
942.05        67.76968
942.44        68.87788
942.84        70.01164
943.23        70.61247
943.62        70.53075
944.01        69.95187
944.40        69.21082
944.79        68.86249
945.18        69.06274
945.57        69.63437
945.97        70.21289
946.36        70.34421
946.75        69.87379
947.14        68.96864
947.53        67.96188
947.92        67.41814
948.31         67.4945
948.70        67.99846
949.09        68.61367
949.48        68.85761
949.87        68.61356
950.26        68.05712
950.65        67.39648
951.04        66.95722
951.43        66.85979
951.82        67.00428
952.21        67.31877
952.60        67.69135
952.99        68.03757
953.38        68.35081
953.77        68.63037
954.16        68.87414
954.55         69.0826
954.94        69.27055
955.33        69.31789
955.72         69.0378
956.11        68.42456
956.50        67.54044
956.89        66.73265
957.28        66.53723
957.66        67.07589
958.05        68.12524
958.44        69.22659
958.83        69.66949
959.22        69.28992
959.61         68.2387
960.00        66.95115
960.39        66.28922
960.78        66.51881
961.16        67.39262
961.55        68.31859
961.94         68.5853
962.33        68.05729
962.72        66.94852
963.11         65.6867
963.49        65.14224
963.88        65.59216
964.27        66.70286
964.66        67.96622
965.04        68.72018
965.43        68.74976
965.82        68.29652
966.21        67.58592
966.60        67.01019
966.98         66.7355
967.37        66.64867
967.76        66.65863
968.15         66.6249
968.53        66.52474
968.92        66.40113
969.31        66.35651
969.69        66.51737
970.08        66.86481
970.47        67.32961
970.86        67.77103
971.24        67.97424
971.63        67.87151
972.02        67.55795
972.40        67.16137
972.79        66.77173
973.17        66.49775
973.56        66.33602
973.95        66.34483
974.33        66.61382
974.72        67.12269
975.11        67.78961
975.49         68.6163
975.88        69.52665
976.26        70.50711
976.65        71.45316
977.04         72.1402
977.42        72.22166
977.81        71.61876
978.19        70.39352
978.58        69.11922
978.96        68.81308
979.35        69.69653
979.74        71.36801
980.12        73.15772
980.51        74.06876
980.89        74.07285
981.28        73.35915
981.66        72.25302
982.05        71.58112
982.43        71.64992
982.82        72.20757
983.20         72.9233
983.59        73.26028
983.97        73.12193
984.35        72.68143
984.74        72.02375
985.12        71.38005
985.51        70.84492
985.89        70.42996
986.28        70.16624
986.66        70.15723
987.04        70.44236
987.43        70.91351
987.81        71.26836
988.20        72.25142
988.58        73.89402
988.96        73.86267
989.35        71.58641
989.73        76.74668
990.12        73.40386
990.50        73.76758
990.88        73.50226
991.27        73.14548
991.65        72.63838
992.03        72.18217
992.42        71.93454
992.80        71.61773
993.18        71.22715
993.56        70.86308
993.95        70.62657
994.33        70.63721
994.71         70.9244
995.10         71.4183
995.48        72.00812
995.86        72.50405
996.24        72.83086
996.63        72.94054
997.01        73.00438
997.39        73.10519
997.77        73.25175
998.15        73.40987
998.54        73.51694
998.92        73.36615
999.30        72.97408
999.68        72.43818
1000.06         71.8998
1000.45        71.59961
1000.83        71.74231
1001.21        72.20691
1001.59        72.94092
1001.97        73.85863
1002.35        74.81863
1002.73        75.73087
1003.12        76.44477
1003.50        76.82717
1003.88        76.86286
1004.26        76.62516
1004.64        76.11537
1005.02        75.39078
1005.40        74.54388
1005.78        73.58014
1006.16         72.7985
1006.54         72.6305
1006.92        73.14402
1007.30        74.26566
1007.69        75.44376
1008.07        75.95635
1008.45        75.62921
1008.83        74.60365
1009.21        73.45561
1009.59         73.4105
1009.97        74.67623
1010.35        76.57578
1010.73        78.35136
1011.11        79.42028
1011.49        79.84795
1011.86        79.65928
1012.24        78.71036
1012.62         79.7471
1013.00        80.22495
1013.38        79.83147
1013.76        77.52273
1014.14        81.73718
1014.52        88.01956
1014.90        83.03624
1015.28        85.64326
1015.66        87.25932
1016.04        84.07517
1016.41        82.50703
1016.79        79.67537
1017.17         77.8351
1017.55        76.76984
1017.93        76.47749
1018.31        77.14318
1018.69        78.39135
1019.06        80.00284
1019.44        81.88704
1019.82        83.45852
1020.20         83.9353
1020.58        83.19459
1020.95        81.14095
1021.33        78.22984
1021.71        76.27922
1022.09        76.40808
1022.46        77.91363
1022.84        79.76295
1023.22        81.18736
1023.60        82.15862
1023.97        83.03436
1024.35        83.71272
1024.73          83.864
