SpectraSmart Spectrum 2.9.0.0
--------- Device Information -----------
Spectrum Name :  反射率_0
Saving Time :  2024/04/21 00:32:58
Spectro-Module Model Name : SE2030-DUVN
Spectro-Module Serial Number : OS361AC55029948
Wavelength Start : 200
Wavelength End : 1025
Wavelength Unit : Wavelength(nm)
Spectrum Unit : Reflectance(%)
-----------Spectrum Setting ------------
Integration Time : 20ms
Average : 10
Boxcar : 0
Background removal :  enabled
linearity correction :  enabled
SC :  disabled
Intensity correction :  disabled
DWT denoise :  enabled
savitzky-golay :  disabled
FFT :  disabled
Running average :  disabled
Kalman :  disabled
High pass :  disabled
---------------BEGIN--------------------
Wavelength(nm)             Reflectance(%)
200.29               0
200.75        -52.8113
201.21        6.426219
201.67        38.07924
202.13        51.96163
202.58        56.64616
203.04        56.68982
203.50        52.08706
203.96        43.27677
204.42        32.04233
204.88        18.25844
205.34         6.04709
205.80      -0.2465752
206.26       0.5133025
206.72        12.53963
207.18         29.2909
207.64        31.06969
208.10        10.86756
208.55       -26.02449
209.01        -50.1424
209.47       -26.26194
209.93         14.8147
210.39        48.61029
210.85        69.91624
211.31        78.17125
211.77        76.40482
212.23        65.35902
212.69        40.27811
213.14       -3.126832
213.60       -72.77465
214.06       -249.8271
214.52       -603.1368
214.98       -233.7409
215.44       -39.47031
215.90        22.67905
216.36        42.44485
216.81        43.53678
217.27        28.95902
217.73       -46.10853
218.19        861.0512
218.65        379.1308
219.11       -756.1494
219.57       -10.88583
220.02        36.81422
220.48        46.37481
220.94        44.23601
221.40        31.29484
221.86       -2.339446
222.32       -28.74948
222.77       -3.236649
223.23        21.03729
223.69        33.74307
224.15         38.3331
224.61        38.70509
225.06        37.52225
225.52        34.90955
225.98        30.32843
226.44        24.11784
226.90        15.48442
227.36        8.651977
227.81        11.60804
228.27          21.292
228.73        31.92484
229.19        38.96624
229.65        40.07945
230.10        36.15218
230.56        28.70186
231.02        19.03075
231.48        12.52338
231.93        13.07393
232.39        18.62512
232.85         24.9665
233.31        28.53817
233.77        29.48913
234.22        29.39177
234.68        28.62106
235.14         27.7637
235.60        27.41325
236.05        26.62926
236.51        25.47957
236.97        29.75294
237.43        39.68109
237.88        45.78248
238.34        44.49837
238.80        64.54507
239.26        55.97358
239.71        55.56105
240.17        50.20729
240.63        44.40762
241.08        40.92274
241.54        42.06284
242.00        48.72102
242.46        54.10115
242.91        57.01825
243.37        58.46501
243.83        59.93783
244.28        64.55649
244.74        71.99559
245.20        79.24553
245.66        82.66484
246.11        78.78105
246.57        67.58095
247.03        49.99571
247.48        28.24046
247.94         5.61944
248.40        -21.1442
248.85       -73.13227
249.31       -219.7155
249.77       -342.8399
250.22       -123.8469
250.68       -29.28493
251.14        3.501877
251.59        17.12007
252.05        25.12295
252.51        32.07875
252.96        37.94278
253.42        40.38543
253.88        38.01611
254.33        33.64211
254.79        32.28962
255.25        35.79113
255.70        41.30703
256.16        46.24912
256.62        50.36078
257.07        53.69743
257.53         56.5226
257.99        58.75301
258.44        59.38618
258.90         58.1333
259.35        55.12987
259.81        51.58858
260.27        48.42106
260.72        46.69413
261.18        46.44761
261.63        46.73782
262.09        47.00826
262.55        46.39861
263.00        44.90438
263.46        43.10791
263.91        41.27536
264.37        40.11024
264.83        39.59035
265.28        39.38202
265.74        39.32822
266.19         39.0834
266.65        38.61368
267.11        37.98994
267.56        37.17643
268.02        36.19109
268.47        35.03006
268.93        33.73241
269.38        32.40446
269.84        31.27896
270.30        30.40298
270.75        29.73892
271.21        29.20855
271.66        28.60977
272.12         27.9265
272.57        27.20932
273.03        26.55623
273.48        26.07947
273.94        25.80604
274.39        25.63974
274.85        25.52409
275.31        25.32718
275.76        25.00377
276.22        24.61885
276.67        24.19009
277.13        23.80688
277.58        23.45858
278.04        23.14765
278.49        22.82287
278.95        22.47843
279.40        22.08122
279.86        21.67606
280.31        21.26071
280.77        20.90053
281.22        20.57785
281.68        20.32291
282.13        20.08114
282.59        19.83907
283.04        19.57387
283.50        19.31296
283.95        19.09976
284.41        19.01934
284.86        19.07309
285.32         19.2399
285.77         19.4289
286.22        19.51861
286.68        19.50778
287.13        19.40154
287.59        19.33219
288.04        19.39607
288.50        19.58063
288.95        19.97128
289.41        20.49958
289.86        20.56509
290.32        20.06665
290.77        21.05838
291.22        20.22981
291.68        20.43102
292.13        20.70461
292.59        21.11666
293.04         21.6478
293.50        22.34136
293.95        23.20978
294.40        24.21556
294.86        25.31783
295.31        26.43664
295.77         27.5492
296.22        28.66581
296.68         29.8122
297.13         31.0271
297.58        32.34058
298.04        33.74267
298.49        35.25202
298.95        36.91428
299.40        38.70539
299.85        40.61393
300.31         42.5563
300.76        44.38339
301.21        46.07846
301.67         47.7038
302.12        49.34365
302.58        51.22846
303.03        53.37024
303.48        55.74348
303.94        58.23298
304.39        60.60606
304.84        62.81118
305.30        64.92211
305.75        66.99331
306.20        69.21503
306.66        71.61208
307.11        74.05645
307.57        76.46203
308.02        78.63431
308.47        80.56181
308.93        82.34677
309.38        84.02071
309.83        85.69196
310.29        87.44698
310.74        89.17734
311.19         90.8815
311.65        92.52225
312.10        94.06475
312.55        95.53126
313.00        96.90067
313.46        98.14016
313.91        99.22994
314.36        100.1838
314.82        101.0586
315.27         101.938
315.72         102.853
316.18         103.785
316.63        104.6748
317.08        105.4389
317.53         106.074
317.99         106.531
318.44         106.848
318.89        107.3126
319.35        108.0004
319.80        107.9142
320.25        108.7135
320.70        108.9655
321.16        109.1566
321.61        109.2855
322.06        109.4229
322.51        109.6518
322.97        109.9638
323.42        110.3933
323.87        110.8444
324.32        111.1791
324.78        111.3466
325.23        111.4233
325.68        111.4979
326.13        111.7509
326.59        112.1929
327.04        112.8195
327.49        113.4781
327.94         113.952
328.39        114.1809
328.85        114.1976
329.30        114.1791
329.75        114.2802
330.20        114.5632
330.66        114.9366
331.11        115.4108
331.56        115.8541
332.01        116.2283
332.46        116.5671
332.92        116.8381
333.37        117.1356
333.82        117.4268
334.27        117.7072
334.72        117.9894
335.17        118.3023
335.63         118.624
336.08        119.0144
336.53        119.4532
336.98        119.9527
337.43        120.5032
337.88        121.0916
338.34        121.6451
338.79        122.1102
339.24        122.4438
339.69         122.672
340.14        122.8515
340.59          123.08
341.05        123.3898
341.50        123.7648
341.95        124.1868
342.40        124.6258
342.85        125.0645
343.30        125.5127
343.75        125.9428
344.20        126.3146
344.66        126.6239
345.11        126.8445
345.56        127.0168
346.01        127.2117
346.46        127.4485
346.91        127.6897
347.36        127.8536
347.81        127.9009
348.26        127.8383
348.72        127.3814
349.17        127.2212
349.62        127.0931
350.07        127.2072
350.52        127.4796
350.97        127.7712
351.42        127.8448
351.87         127.628
352.32        127.1945
352.77        126.6504
353.22        126.1552
353.67        125.7586
354.13        125.4371
354.58        125.1014
355.03        124.6697
355.48        124.1266
355.93        123.5053
356.38         122.897
356.83        122.4303
357.28        122.1081
357.73        121.8694
358.18          121.57
358.63        120.9879
359.08        120.0898
359.53        118.9708
359.98        117.7774
360.43        116.7297
360.88        115.8838
361.33         115.164
361.78        114.5199
362.23        113.8695
362.68         113.177
363.13        112.4812
363.58        111.7311
364.03        110.8378
364.48        109.7989
364.93        108.6347
365.38        107.4728
365.83        106.5304
366.28        105.8505
366.73        105.3652
367.18        104.9343
367.63        104.3297
368.08        103.4933
368.53        102.5014
368.98        101.4397
369.43        100.4293
369.88         99.5071
370.33        98.63127
370.78         97.7848
371.23        96.96264
371.68         96.1697
372.13        95.42076
372.58         94.7326
373.03        94.10429
373.48        93.52116
373.93        92.97878
374.38        92.41814
374.83        91.76009
375.28        91.00531
375.72        90.16393
376.17        89.36866
376.62        88.73621
377.07        88.26981
377.52        87.91257
377.97        87.55763
378.42        87.04272
378.87        86.34644
379.32        85.54746
379.77        84.73254
380.22        84.00533
380.67        83.38319
381.11         82.8302
381.56        82.32388
382.01        81.85513
382.46        81.42498
382.91        81.05052
383.36         80.6992
383.81        80.31404
384.26        79.87839
384.71        79.39198
385.15        78.89153
385.60        78.50478
386.05        78.22431
386.50        78.02357
386.95        77.81081
387.40        77.45086
387.85         76.9362
388.29        76.28018
388.74        75.70122
389.19        75.29464
389.64         75.0752
390.09        74.99593
390.54        74.94746
390.98        74.73989
391.43        74.36835
391.88          73.877
392.33        73.39352
392.78        73.04291
393.23         72.8373
393.67        72.84568
394.12        72.98367
394.57          72.603
395.02        71.83248
395.47          71.565
395.91        71.78887
396.36          71.701
396.81        71.29863
397.26         71.0735
397.71        71.00944
398.15        70.85024
398.60        70.67564
399.05          70.421
399.50        70.15841
399.95        70.17725
400.39        70.40414
400.84        70.31805
401.29        69.93051
401.74        69.65454
402.18        69.53217
402.63        69.35957
403.08        69.11312
403.53        68.83574
403.97        68.53497
404.42        68.23644
404.87        67.99729
405.32        67.91158
405.76        67.97221
406.21        68.14944
406.66        68.32861
407.11        68.34386
407.55        68.16387
408.00        67.80315
408.45        67.37526
408.90        66.99469
409.34        66.76275
409.79         66.8296
410.24        67.09373
410.68        67.23943
411.13        67.22157
411.58        67.20098
412.03        67.18224
412.47        67.12386
412.92        67.01342
413.37        66.87363
413.81        66.74637
414.26        66.75241
414.71        66.88821
415.15        67.14029
415.60        67.40588
416.05        67.55986
416.49        67.56281
416.94        67.44232
417.39        67.27001
417.83        67.14803
418.28        67.11308
418.73        67.13866
419.17        67.18116
419.62        67.18127
420.07        67.11913
420.51        67.00629
420.96        66.92297
421.41        66.91601
421.85        66.96483
422.30        67.14449
422.74        67.33291
423.19        67.34695
423.64        67.19803
424.08        67.20036
424.53        67.33262
424.98        67.41338
425.42        67.45318
425.87        67.58556
426.31        67.78919
426.76        67.89816
427.21        67.92609
427.65        68.07867
428.10        68.27969
428.54        68.30588
428.99        68.19124
429.44        68.08656
429.88        68.01468
430.33        67.94181
430.77        67.88897
431.22        68.15542
431.66        68.61375
432.11        68.94997
432.56        69.11584
433.00        68.87184
433.45        68.12495
433.89        68.12033
434.34        69.02009
434.78        67.95479
435.23        67.47395
435.67         69.2933
436.12        68.91461
436.57        69.20374
437.01         68.7777
437.46        68.50743
437.90        69.12202
438.35        69.27074
438.79        69.46077
439.24        69.55065
439.68        69.63632
440.13        69.67353
440.57        69.64728
441.02          69.653
441.46        69.66579
441.91        69.51125
442.35        69.25547
442.80         69.5415
443.24        70.20979
443.69          70.464
444.13        70.25952
444.58        70.22357
445.02        70.36082
445.47        70.43727
445.91        70.41241
446.36         70.3606
446.80        70.28289
447.24        70.12767
447.69        69.97821
448.13        70.15788
448.58        70.42188
449.02        70.55335
449.47        70.48714
449.91        70.51826
450.36        70.66412
450.80        70.59435
451.25        70.47756
451.69        70.49892
452.13         70.6513
452.58        70.57147
453.02         70.2771
453.47        70.10951
453.91        70.06933
454.36        69.97842
454.80        69.83321
455.24        69.72894
455.69        69.68827
456.13        69.63866
456.58        69.56295
457.02        69.54144
457.46        69.21056
457.91        69.02208
458.35        69.00005
458.79        68.92429
459.24        68.84465
459.68        68.87487
460.13        68.98702
460.57         68.9186
461.01        68.65025
461.46        68.79875
461.90        67.88318
462.34         68.5003
462.79        67.98039
463.23        68.32896
463.68        68.67596
464.12        68.43581
464.56        67.77489
465.01        67.65778
465.45        67.98885
465.89        68.25276
466.34        68.35605
466.78        68.10549
467.22        67.57557
467.67        67.66431
468.11        67.32136
468.55        67.38099
468.99        67.43443
469.44        67.38216
469.88        67.20135
470.32         66.9843
470.77        66.81241
471.21        66.73587
471.65        66.77057
472.10        66.90012
472.54         67.0387
472.98        67.07268
473.42        66.98843
473.87        66.82259
474.31        66.58675
474.75        66.46751
475.20        66.51659
475.64        66.29385
476.08        66.58727
476.52        66.56165
476.97        66.39297
477.41        66.38106
477.85        66.60062
478.29        66.03477
478.74        66.02819
479.18        66.43133
479.62          66.271
480.06        66.37895
480.50        66.33658
480.95        66.42828
481.39        66.63223
481.83         66.2297
482.27         66.8252
482.72        66.48343
483.16        66.58246
483.60        66.74976
484.04        66.70634
484.48        66.40928
484.93        66.41212
485.37        65.97203
485.81        66.22374
486.25        66.09513
486.69        67.03531
487.14        67.46721
487.58        66.85904
488.02        66.50839
488.46        66.12854
488.90        66.30861
489.34        65.70368
489.79        65.46127
490.23        65.80093
490.67        66.05332
491.11        66.28201
491.55        66.16314
491.99        65.80449
492.43        65.67216
492.88          65.799
493.32        65.92236
493.76        65.93748
494.20        65.94621
494.64        65.96312
495.08        65.59424
495.52        65.41227
495.96         65.5376
496.41        65.97356
496.85        65.93783
497.29        65.44989
497.73          65.434
498.17        65.53259
498.61        65.62857
499.05        65.54708
499.49        65.32053
499.93        65.07944
500.37        65.09455
500.82        65.34174
501.26        65.72527
501.70        66.09794
502.14        65.80405
502.58        65.46667
503.02        65.23227
503.46         65.2465
503.90        65.21196
504.34        65.09364
504.78        65.04164
505.22        65.07926
505.66        65.08059
506.10        65.01425
506.54         65.1434
506.98        65.52157
507.42        64.89499
507.86        65.38561
508.30        65.34724
508.74        65.27019
509.18        65.20259
509.62        65.13036
510.06        65.09843
510.50         65.0757
510.94         65.0059
511.38        64.89442
511.82        64.81764
512.26        64.77971
512.70         64.7319
513.14        64.68726
513.58        64.68731
514.02        64.73147
514.46        64.80735
514.90        64.86666
515.34        64.86361
515.78        64.79187
516.22        64.65369
516.66        64.34398
517.10        64.50375
517.54        64.34153
517.98        64.45876
518.42        64.57436
518.86        64.64049
519.30        64.63632
519.74        64.54871
520.18        64.43359
520.62         64.4584
521.06        64.59136
521.50        64.57687
521.93         64.4314
522.37        64.38903
522.81        64.46092
523.25        64.51814
523.69        64.53481
524.13         64.5295
524.57        64.49806
525.01        64.43399
525.45        64.37349
525.89        64.37512
526.32        64.44517
526.76        64.57059
527.20        64.69927
527.64        64.75065
528.08        64.70674
528.52        64.59605
528.96        64.46799
529.40        64.39042
529.83        64.38014
530.27        64.44796
530.71        64.54027
531.15        64.57025
531.59        64.52078
532.03        64.42257
532.46        64.31834
532.90        64.28911
533.34        64.34332
533.78        64.45215
534.22        64.55856
534.66        64.57681
535.09        64.48325
535.53        64.33373
535.97        64.16799
536.41        64.06461
536.85        64.04568
537.28         64.0843
537.72        64.15804
538.16        64.23239
538.60        64.28696
539.04        64.32961
539.47        64.33539
539.91        64.31894
540.35          64.265
540.79         64.1809
541.22        64.07641
541.66        63.97624
542.10        63.88665
542.54        63.82986
542.97        63.80857
543.41        63.79483
543.85        63.81264
544.29        63.99969
544.72        64.26814
545.16         64.4123
545.60        64.39423
546.04        64.26003
546.47        64.11073
546.91        64.16517
547.35        64.38926
547.79        64.57461
548.22        64.62109
548.66        64.47637
549.10        64.21723
549.53        64.10125
549.97        64.15126
550.41        64.14368
550.84         64.0483
551.28        64.01777
551.72        64.07435
552.15        64.05952
552.59        63.95036
553.03        64.35081
553.46        64.16127
553.90         64.1823
554.34        64.08085
554.77        63.93836
555.21        63.85734
555.65        63.72663
556.08        63.96268
556.52        64.26461
556.96         64.6302
557.39        64.66058
557.83         64.6123
558.27        64.44282
558.70        64.29832
559.14        64.18876
559.57        64.12836
560.01        64.23392
560.45        64.40769
560.88        64.33331
561.32         64.1021
561.75        64.02953
562.19        64.15549
562.63        64.23186
563.06        64.22672
563.50        64.22886
563.93        64.21835
564.37        64.17022
564.80        64.09367
565.24        64.14497
565.68        64.29496
566.11         64.3327
566.55        64.26027
566.98          64.264
567.42        64.38646
567.85        64.15496
568.29        64.25531
568.72         64.3046
569.16        64.50038
569.60        64.67021
570.03        64.70996
570.47        64.81756
570.90        64.92845
571.34        64.83052
571.77        65.29613
572.21         64.9387
572.64        64.90347
573.08        64.84848
573.51        64.71609
573.95        65.19942
574.38        65.04169
574.82        65.81978
575.25        65.57396
575.69        65.28729
576.12        64.86556
576.56        64.95545
576.99        65.23409
577.42         65.0146
577.86        65.51461
578.29        65.75323
578.73        65.84408
579.16        65.65997
579.60        65.13072
580.03        65.39658
580.47        65.51115
580.90        65.14225
581.33        65.27319
581.77        65.53441
582.20        65.96408
582.64        65.96155
583.07        65.77198
583.51        65.44607
583.94        65.08636
584.37        65.08443
584.81        64.79505
585.24         64.7884
585.68        65.27944
586.11        65.07127
586.54        65.07163
586.98        65.31808
587.41        64.98709
587.85        65.18613
588.28        65.14748
588.71        65.38045
589.15        65.23676
589.58        64.80495
590.01        64.67992
590.45        64.42352
590.88        64.93086
591.31        64.69679
591.75         64.6869
592.18        64.53947
592.61        64.46806
593.05        65.12594
593.48        64.97226
593.91         65.2419
594.35        65.33403
594.78        65.14172
595.21        64.74249
595.65        64.78349
596.08        65.20703
596.51        65.33762
596.94        65.08156
597.38        64.94592
597.81        64.93494
598.24        65.06229
598.68        64.81374
599.11        64.76006
599.54        64.94499
599.97        65.09513
600.41        65.09211
600.84        65.10396
601.27        65.42654
601.70        65.08279
602.14        65.04473
602.57        64.78968
603.00        64.73214
603.43        65.17445
603.87        65.45341
604.30        65.37534
604.73        65.25414
605.16        64.93983
605.60        64.68279
606.03        64.83445
606.46        65.37949
606.89        64.90771
607.32        64.75521
607.76        65.22865
608.19        65.02012
608.62         65.0051
609.05        65.44581
609.48        64.96338
609.92        64.89832
610.35         65.0116
610.78        65.06068
611.21        64.75653
611.64        64.97311
612.07         64.8864
612.50        64.95421
612.94        64.94987
613.37         64.9455
613.80        65.00897
614.23        65.03278
614.66        64.94136
615.09        64.75393
615.52        64.74755
615.96        64.89732
616.39        64.90007
616.82         64.7328
617.25        64.74506
617.68        64.61153
618.11        64.55956
618.54         64.6244
618.97        64.55745
619.40        64.46119
619.84        64.12692
620.27        64.33076
620.70        64.42747
621.13        64.58378
621.56        64.62044
621.99          64.573
622.42        64.67657
622.85         64.9067
623.28        64.82729
623.71        65.09821
624.14         64.7401
624.57        64.77944
625.00        64.55988
625.43        64.39941
625.86        64.47742
626.29        64.66248
626.72        64.47234
627.15         64.4856
627.58        64.44991
628.01        64.62197
628.44        64.22353
628.87        64.03036
629.30        64.56673
629.73        64.28732
630.16        64.32621
630.59        64.16006
631.02         64.4659
631.45        64.28732
631.88        64.33821
632.31        64.37132
632.74        64.08249
633.17        64.14414
633.60        64.02981
634.03        63.95395
634.46        63.95135
634.89        63.92694
635.32        63.96955
635.75        64.03526
636.18        64.12565
636.61         64.2161
637.04        64.27061
637.47        64.28104
637.89        64.26263
638.32         64.2143
638.75        64.16451
639.18        64.12395
639.61        64.08652
640.04        64.06308
640.47        64.07049
640.90        64.10781
641.33        64.17006
641.76        64.23188
642.18        64.25671
642.61        64.22104
643.04        64.14516
643.47        64.05223
643.90         63.9855
644.33        63.95874
644.76        63.94883
645.18        63.95175
645.61        63.97854
646.04        64.01307
646.47        64.00787
646.90        63.96826
647.33        63.94965
647.75         63.9429
648.18        63.93427
648.61        63.94926
649.04        63.93882
649.47        63.88012
649.89        64.19733
650.32        64.15111
650.75        64.13737
651.18        63.98692
651.61        63.94183
652.03        64.04562
652.46        64.11105
652.89        64.10933
653.32        64.23246
653.74        64.49356
654.17        64.04766
654.60        63.99049
655.03        64.00298
655.46        64.02238
655.88        64.79705
656.31        65.55444
656.74         69.3928
657.16        68.12788
657.59        66.48322
658.02        65.05187
658.45        64.61222
658.87        64.12648
659.30        64.25359
659.73        64.26447
660.15        64.05492
660.58        64.44801
661.01        64.65605
661.44        64.83514
661.86        64.56031
662.29        63.96381
662.72        63.66037
663.14        63.72107
663.57        63.81371
664.00        63.87926
664.42        63.97299
664.85        64.07686
665.27        64.05209
665.70        64.11871
666.13        64.14849
666.55        64.21387
666.98        64.28281
667.41        64.34711
667.83        64.40681
668.26        64.46523
668.69        64.46917
669.11        64.41307
669.54        64.48696
669.96        64.73643
670.39        64.32362
670.82        64.77792
671.24        64.61794
671.67        64.37493
672.09        64.48153
672.52         64.8714
672.94        64.89831
673.37        64.57441
673.80        64.39904
674.22        64.42559
674.65        64.39469
675.07        64.33552
675.50        64.37095
675.92        64.47498
676.35        64.52542
676.77        64.50343
677.20        64.45529
677.62        64.42778
678.05        64.41457
678.47        64.41134
678.90        64.68184
679.32        64.68932
679.75        64.77959
680.17        64.80483
680.60        64.78663
681.02        64.74664
681.45        64.72002
681.87        64.72893
682.30        64.72731
682.72        64.74129
683.15        64.82302
683.57        64.93143
684.00         65.0611
684.42        64.89557
684.85        64.87007
685.27        64.88654
685.70         64.8644
686.12        64.79046
686.54        64.74388
686.97        64.72651
687.39        64.71957
687.82        64.70856
688.24        64.80888
688.66        64.71886
689.09        64.92992
689.51        64.86948
689.94        64.96317
690.36        65.04596
690.78        65.08875
691.21        65.09271
691.63        65.03024
692.06        64.95824
692.48        65.01474
692.90        65.15895
693.33        65.19555
693.75        65.11823
694.17        64.97227
694.60         64.8167
695.02        64.92361
695.44        65.00488
695.87        65.16345
696.29        65.27083
696.71        65.18114
697.14        64.98035
697.56        65.11635
697.98         65.4881
698.41        65.65208
698.83        65.42369
699.25        65.23146
699.68        65.09699
700.10        65.01312
700.52        65.00314
700.94        65.07826
701.37        65.17588
701.79        65.22939
702.21        65.19718
702.64        65.10469
703.06        64.99861
703.48        64.96124
703.90        65.01408
704.33         65.1323
704.75        65.27003
705.17        65.30466
705.59        65.21128
706.01        65.07642
706.44        65.00635
706.86        64.88615
707.28        65.21439
707.70         65.5414
708.12        65.89249
708.55        66.06886
708.97        66.02594
709.39        65.82598
709.81        65.55373
710.23        65.37823
710.66         65.3569
711.08        65.45164
711.50         65.5909
711.92        65.67977
712.34        65.69062
712.76        65.65725
713.19         65.6032
713.61        65.61053
714.03         65.6711
714.45        65.77137
714.87        65.88783
715.29        65.94524
715.71        65.92397
716.13        66.01546
716.56        65.91003
716.98        65.92266
717.40        65.95473
717.82        66.00428
718.24        66.05583
718.66        66.09073
719.08        66.10675
719.50        66.10773
719.92        66.10999
720.34        66.13556
720.76        66.18929
721.19        66.25685
721.61        66.33416
722.03        66.38509
722.45        66.40109
722.87         66.3871
723.29        66.37018
723.71        66.39405
724.13        66.46631
724.55        66.57825
724.97        66.69833
725.39        66.73135
725.81        66.65695
726.23        66.58126
726.65        66.57688
727.07        66.33771
727.49        66.56039
727.91        66.66257
728.33        66.79907
728.75        66.90631
729.17        66.95361
729.59        66.89211
730.01        66.76707
730.43        66.72898
730.85         66.7994
731.27        66.90554
731.69        67.02735
732.10        67.07944
732.52        67.25678
732.94         67.1936
733.36        67.00575
733.78        66.91431
734.20        66.94917
734.62        66.98665
735.04        67.00294
735.46         67.0175
735.88        67.01686
736.30        66.99949
736.72        66.97282
737.13        66.93617
737.55        66.85072
737.97        66.82198
738.39        66.83969
738.81        66.70142
739.23        66.49592
739.65        66.65923
740.06        67.05444
740.48        67.27771
740.90        67.28847
741.32        67.01437
741.74        67.10226
742.16         67.0545
742.57        67.08363
742.99        67.15904
743.41         67.2621
743.83         67.3311
744.25         67.3438
744.67          67.312
745.08        67.28799
745.50        67.31613
745.92        67.42035
746.34        67.58225
746.75        67.72425
747.17        67.72099
747.59        67.55652
748.01        67.24065
748.42        66.90522
748.84        66.80148
749.26        66.94136
749.68         67.1655
750.09        67.36834
750.51        67.39362
750.93        67.26979
751.35        67.26773
751.76        67.39761
752.18        67.43612
752.60        67.38592
753.01        67.41145
753.43        67.46655
753.85        67.44759
754.27        67.34826
754.68        67.20335
755.10        67.07632
755.52        67.04003
755.93        67.11258
756.35        67.27917
756.77        67.49284
757.18        67.63258
757.60        67.66564
758.02         67.6673
758.43        67.71199
758.85        67.48145
759.26        68.08383
759.68         68.0512
760.10        67.28047
760.51        67.48492
760.93        67.57427
761.34        67.49162
761.76        67.87457
762.18        67.90977
762.59         67.8435
763.01        67.97999
763.42        67.47021
763.84        67.60494
764.26        67.80118
764.67        68.03085
765.09        68.17361
765.50        68.56245
765.92        69.04064
766.33        68.84564
766.75        68.06855
767.16        67.68644
767.58        67.78482
768.00        67.94952
768.41        68.13634
768.83        68.31169
769.24        68.36252
769.66        68.59271
770.07        68.23163
770.49        68.10165
770.90        68.01059
771.32        67.90468
771.73        67.82784
772.15        67.85252
772.56         68.0055
772.97        68.27353
773.39        68.55031
773.80        68.72942
774.22        68.72859
774.63        68.57113
775.05        68.31821
775.46         68.1601
775.88        68.12036
776.29        68.16169
776.70        68.22078
777.12        68.21847
777.53         68.1532
777.95        68.05173
778.36         67.9592
778.77        67.93352
779.19        67.99078
779.60        68.11279
780.02        68.27131
780.43        68.45371
780.84        68.64433
781.26        68.79659
781.67        68.93417
782.09        69.09274
782.50         69.2279
782.91        69.22728
783.33        69.09469
783.74         69.0359
784.15        69.03747
784.57        69.02875
784.98        69.01662
785.39        69.02222
785.81        69.04555
786.22        69.07995
786.63        69.12896
787.04        69.19769
787.46        69.29468
787.87        69.38966
788.28        69.47725
788.70        69.54038
789.11         69.5549
789.52        69.53827
789.93        69.51098
790.35        69.49549
790.76        69.51634
791.17        69.57447
791.58        69.65237
792.00        69.70211
792.41        69.74675
792.82        69.78393
793.23        69.86823
793.65        70.01743
794.06        70.22815
794.47        70.57407
794.88         70.9952
795.29        70.80379
795.71        70.98525
796.12        70.80013
796.53        70.57442
796.94        70.31554
797.35         70.0841
797.76        69.96245
798.18        69.93845
798.59        69.91473
799.00        69.87494
799.41        69.89205
799.82        69.95085
800.23        69.98926
800.64        69.99686
801.06        69.96468
801.47         69.9476
801.88        69.96101
802.29        70.01604
802.70        70.10462
803.11        70.21398
803.52        70.32092
803.93        70.41096
804.34        70.48492
804.75        70.55788
805.17        70.61234
805.58        70.66757
805.99        70.80183
806.40         70.9761
806.81        70.88403
807.22        70.62708
807.63        70.76234
808.04        71.22509
808.45        71.40831
808.86        71.25531
809.27        71.09611
809.68        71.00989
810.09        70.97229
810.50        71.00822
810.91        71.13361
811.32        71.24915
811.73        71.18877
812.14        70.92323
812.55        70.49882
812.96        70.07013
813.37         69.9028
813.78        70.05946
814.19        70.45509
814.60         70.9137
815.01        71.16562
815.42        71.14409
815.83        70.92397
816.24        70.63198
816.65        70.50738
817.05        70.63255
817.46        70.89111
817.87        71.20822
818.28        71.43421
818.69        71.52768
819.10        71.54588
819.51         71.5204
819.92         71.4994
820.33        71.50501
820.74        71.50555
821.14        71.51678
821.55        71.59154
821.96        71.72134
822.37        71.90563
822.78        72.07514
823.19        72.10357
823.60        71.96113
824.00        71.69272
824.41        71.37052
824.82        71.19677
825.23         71.2234
825.64        71.40993
826.04        71.66112
826.45        71.77856
826.86        71.73221
827.27        71.58188
827.68        71.43145
828.08        71.48667
828.49        71.71934
828.90        72.08975
829.31        72.51125
829.72        72.77675
830.12        72.84028
830.53        73.04156
830.94        72.79789
831.35        72.52696
831.75        72.10367
832.16        71.53431
832.57        71.00727
832.97        70.82663
833.38        71.04535
833.79        71.56569
834.20        72.18671
834.60        72.59673
835.01        72.70987
835.42        72.60812
835.82        72.38957
836.23        72.17953
836.64        72.05808
837.04        71.99508
837.45        71.95807
837.86         71.9636
838.26        72.01497
838.67         72.1035
839.08        72.23133
839.48        72.37193
839.89        72.50547
840.29        72.64143
840.70        72.75172
841.11        72.79961
841.51        72.79786
841.92        72.71308
842.33        72.62772
842.73        72.67711
843.14        72.83952
843.54        73.11341
843.95        73.38182
844.35        73.48026
844.76        73.36497
845.17         73.0953
845.57        72.80694
845.98        72.68526
846.38        72.80943
846.79        73.09327
847.19        73.45521
847.60        73.68085
848.00        73.74729
848.41        73.67416
848.81        73.57908
849.22         73.5803
849.62        73.75138
850.03        74.00058
850.43        74.27104
850.84        74.37527
851.24         74.3243
851.65        74.09964
852.05        73.84678
852.46        73.70948
852.86        73.73879
853.27        73.92798
853.67        74.08428
854.07        74.08767
854.48        73.88209
854.88        73.53954
855.29        73.15442
855.69        73.07894
856.10        73.29887
856.50        73.81089
856.90        74.35436
857.31        74.54459
857.71        74.33974
858.12        73.78555
858.52        73.10845
858.92        72.62164
859.33        72.41827
859.73        72.46337
860.13        72.61708
860.54         72.6456
860.94        72.54575
861.34        72.35621
861.75        72.14761
862.15        72.10818
862.55        72.23689
862.96         72.4473
863.36        72.66655
863.76        72.73365
864.17        72.60473
864.57        72.36942
864.97        72.07098
865.38        71.76652
865.78         71.5415
866.18        71.36561
866.58        71.31681
866.99        71.50486
867.39         71.9566
867.79         72.5871
868.19        73.21394
868.60        73.50917
869.00        73.47364
869.40        73.31461
869.80        73.06548
870.21        72.65833
870.61        72.22257
871.01        71.84625
871.41        71.52963
871.81        71.18108
872.22        70.80598
872.62        70.44807
873.02        70.22632
873.42         70.4754
873.82        71.05439
874.22        71.45728
874.63        71.70345
875.03        71.89477
875.43        71.99788
875.83        72.66647
876.23        71.91983
876.63         71.1986
877.03        70.36819
877.44        68.90316
877.84        154.8904
878.24        70.19369
878.64        70.84223
879.04        71.97612
879.44        72.27386
879.84        69.55439
880.24        73.45659
880.64        73.54172
881.04        71.56979
881.44        70.06819
881.84        69.49789
882.24        69.95709
882.65        70.87821
883.05        71.04556
883.45        70.21706
883.85        69.14094
884.25        68.27394
884.65        68.00566
885.05        68.45583
885.45        69.39191
885.85        70.46608
886.25        71.21192
886.65        71.49287
887.05        71.45193
887.45        71.16275
887.85        70.75052
888.25        70.30578
888.65        69.79807
889.04        69.35446
889.44        69.19962
889.84        69.36475
890.24        69.78413
890.64        70.30235
891.04        70.67149
891.44        70.82505
891.84         70.8329
892.24        70.71761
892.64        70.53177
893.04        70.32095
893.44        70.07169
893.83        69.88699
894.23        69.90089
894.63        70.14218
895.03        70.58679
895.43        71.10268
895.83        71.45229
896.23        71.57195
896.63        71.51266
897.02        71.38682
897.42        71.44265
897.82        71.68725
898.22        72.03261
898.62        72.34171
899.01        72.40717
899.41        72.16177
899.81        71.71576
900.21        71.17076
900.61        70.68462
901.00        70.32084
901.40        70.10724
901.80        70.07305
902.20         70.1506
902.59        70.29951
902.99        70.72751
903.39        71.44426
903.79        71.12346
904.18        71.82821
904.58        71.88739
904.98        71.84907
905.38        71.55753
905.77        71.02577
906.17        70.33147
906.57        69.66664
906.96        69.43684
907.36          69.722
907.76        70.43157
908.15        71.33562
908.55        71.88183
908.95        71.96288
909.34        71.65894
909.74        71.23518
910.14         71.0907
910.53        71.32072
910.93        71.78627
911.33        72.21004
911.72        72.16192
912.12        71.57752
912.52        70.62734
912.91        69.62242
913.31        69.11736
913.70        69.21909
914.10        69.76854
914.49        70.50265
914.89        70.88465
915.29        70.79143
915.68        70.36255
916.08        69.86533
916.47        69.67379
916.87        69.90958
917.26        70.42785
917.66        71.01582
918.05        71.36649
918.45        71.37175
918.84        71.14571
919.24        70.84122
919.64         70.7598
920.03        70.97927
920.42        71.38415
920.82        71.78544
921.21        71.90567
921.61        71.70752
922.00        71.35211
922.40        71.06897
922.79        71.10247
923.19        71.21478
923.58        72.01009
923.98        73.62157
924.37        73.93786
924.77         71.8601
925.16        78.02531
925.55        73.26629
925.95          73.589
926.34        73.56539
926.74        73.04102
927.13        71.98019
927.52        71.25531
927.92        71.25401
928.31        71.49319
928.70        71.88793
929.10        72.23153
929.49        72.47673
929.89        72.69519
930.28        72.80244
930.67        72.54553
931.07        71.92905
931.46        70.94669
931.85        69.96226
932.24        69.96811
932.64        71.09662
933.03        72.55599
933.42        73.56567
933.82         75.6539
934.21        74.46864
934.60        73.44935
934.99        72.35597
935.39        72.08192
935.78        72.68463
936.17        74.39579
936.56        79.52037
936.96        74.20672
937.35        77.31178
937.74        74.96568
938.13        73.30521
938.53         71.8467
938.92        71.12492
939.31        71.58765
939.70         72.4641
940.09        73.02561
940.49        73.07175
940.88        72.90913
941.27        72.68869
941.66        72.65714
942.05        72.90498
942.44        73.27216
942.84        73.63115
943.23        73.91479
943.62        74.07046
944.01        74.11083
944.40        74.11198
944.79        74.18722
945.18        74.35435
945.57        74.59011
945.97        74.70049
946.36        74.49093
946.75        73.89586
947.14        72.99212
947.53        72.08256
947.92        71.68716
948.31        71.92847
948.70        72.64235
949.09        73.45933
949.48        73.80398
949.87        73.54178
950.26        72.85102
950.65         72.0146
951.04        71.49585
951.43        71.44735
951.82         71.7398
952.21        72.20404
952.60        72.55517
952.99        72.68388
953.38        72.66367
953.77        72.62084
954.16        72.73274
954.55        73.03344
954.94        73.46793
955.33         73.8472
955.72        73.85119
956.11        73.41264
956.50        72.64222
956.89        71.85352
957.28        71.53671
957.66         71.8302
958.05        72.51791
958.44        73.29382
958.83        73.68056
959.22        73.55503
959.61        73.03242
960.00        72.33959
960.39        71.91901
960.78        71.92775
961.16        72.25996
961.55        72.62386
961.94        72.70227
962.33         72.4334
962.72        71.91754
963.11         71.3798
963.49        71.27316
963.88        71.69495
964.27        72.44445
964.66        73.20713
965.04        73.58597
965.43        73.43942
965.82        72.93581
966.21        72.21053
966.60        71.51181
966.98        70.97743
967.37        70.55752
967.76        70.28792
968.15          70.214
968.53        70.34771
968.92        70.65898
969.31        71.09357
969.69        71.52832
970.08        71.87349
970.47        72.13505
970.86        72.29133
971.24        72.33848
971.63        72.27641
972.02        72.12541
972.40        71.94918
972.79        71.76144
973.17         71.6274
973.56        71.54618
973.95        71.56757
974.33        71.75591
974.72        72.09151
975.11        72.53649
975.49        73.05976
975.88        73.53445
976.26        73.98761
976.65        74.35988
977.04          74.631
977.42        74.75173
977.81        74.67523
978.19        74.37358
978.58        74.12377
978.96        74.33201
979.35        75.00723
979.74        75.96587
980.12        76.83773
980.51        76.96763
980.89         76.3952
981.28         75.2342
981.66        73.80497
982.05        72.94672
982.43        73.01042
982.82        73.77497
983.20        74.96295
983.59        76.10516
983.97        77.05952
984.35        77.89017
984.74        78.41367
985.12         78.4222
985.51         77.8784
985.89        76.94266
986.28         75.8708
986.66        75.06422
987.04        74.67729
987.43        74.56373
987.81        74.54346
988.20        75.41306
988.58        77.19021
988.96        77.76051
989.35         76.5636
989.73        81.28535
990.12        78.90442
990.50        79.31017
990.88        79.08601
991.27        78.78663
991.65         78.4128
992.03        78.07999
992.42        77.84096
992.80        77.38628
993.18        76.70775
993.56        75.98695
993.95        75.42097
994.33        75.26733
994.71        75.58704
995.10        76.22684
995.48        77.09921
995.86         78.0405
996.24        78.92268
996.63          79.689
997.01        80.23539
997.39        80.21785
997.77        79.61218
998.15        78.52599
998.54        77.35072
998.92        76.61049
999.30        76.51703
999.68        77.02954
1000.06        77.87101
1000.45        78.38139
1000.83        78.42323
1001.21        78.11357
1001.59        77.84068
1001.97        78.17976
1002.35        79.15154
1002.73        80.44678
1003.12        81.63151
1003.50        82.21405
1003.88        82.10862
1004.26        81.46241
1004.64        80.54006
1005.02        79.89534
1005.40        79.76334
1005.78        80.01873
1006.16        80.39832
1006.54        80.42078
1006.92        79.98585
1007.30        79.33407
1007.69        78.68704
1008.07        78.43112
1008.45        78.62793
1008.83        79.12942
1009.21        79.92683
1009.59        80.94608
1009.97        81.97785
1010.35        82.90987
1010.73         83.5703
1011.11        83.96541
1011.49        84.23566
1011.86        84.20099
1012.24        83.76871
1012.62        85.05986
1013.00        86.02257
1013.38        86.49782
1013.76        85.63128
1014.14        88.43974
1014.52        92.16396
1014.90        87.97254
1015.28        88.72135
1015.66        89.61678
1016.04        87.84448
1016.41        88.26275
1016.79        87.88483
1017.17        87.22547
1017.55         85.9226
1017.93        84.19536
1018.31        82.75005
1018.69        82.41219
1019.06         83.3866
1019.44        85.28333
1019.82        87.13503
1020.20          87.647
1020.58        86.53419
1020.95        83.80684
1021.33        80.21893
1021.71        78.41956
1022.09        79.73231
1022.46        82.85902
1022.84        86.00627
1023.22        87.86967
1023.60        88.49561
1023.97        88.39938
1024.35        87.90832
1024.73        87.59081
