SpectraSmart Spectrum 2.9.0.0
--------- Device Information -----------
Spectrum Name :  反射率_0
Saving Time :  2024/04/21 00:19:41
Spectro-Module Model Name : SE2030-DUVN
Spectro-Module Serial Number : OS361AC55029948
Wavelength Start : 200
Wavelength End : 1025
Wavelength Unit : Wavelength(nm)
Spectrum Unit : Reflectance(%)
-----------Spectrum Setting ------------
Integration Time : 20ms
Average : 10
Boxcar : 0
Background removal :  enabled
linearity correction :  enabled
SC :  disabled
Intensity correction :  disabled
DWT denoise :  enabled
savitzky-golay :  disabled
FFT :  disabled
Running average :  disabled
Kalman :  disabled
High pass :  disabled
---------------BEGIN--------------------
Wavelength(nm)             Reflectance(%)
200.29               0
200.75       -122.7342
201.21       -68.93755
201.67        -40.2145
202.13       -28.82524
202.58       -26.89563
203.04       -30.07841
203.50       -36.15881
203.96        -39.9538
204.42       -39.22338
204.88       -37.18073
205.34       -34.07978
205.80       -30.11979
206.26       -24.83995
206.72       -14.17836
207.18       -4.467809
207.64       -12.02611
208.10       -40.55497
208.55       -84.10049
209.01        -109.931
209.47       -81.00709
209.93       -33.43881
210.39        5.683702
210.85        30.99924
211.31        42.53891
211.77        44.45096
212.23        38.95864
212.69        22.96875
213.14       -7.068946
213.60       -59.14193
214.06       -205.7944
214.52        -531.423
214.98       -231.9302
215.44       -57.34652
215.90         1.40561
216.36        20.31583
216.81        20.29795
217.27        2.813257
217.73       -85.10181
218.19        967.0215
218.65        400.9383
219.11       -850.0004
219.57       -30.64191
220.02        20.64806
220.48        28.26371
220.94        20.48747
221.40       -5.543211
221.86       -65.73597
222.32       -100.0598
222.77       -40.90634
223.23        8.158619
223.69        32.60444
224.15        41.24889
224.61        41.93647
225.06        38.95346
225.52        33.56809
225.98        27.14586
226.44        20.79664
226.90        13.17564
227.36        8.233768
227.81        12.89652
228.27        23.42358
228.73         34.4229
229.19        41.64088
229.65         42.9692
230.10        39.38374
230.56        32.35467
231.02        23.08538
231.48        16.71319
231.93        16.98684
232.39        21.97304
232.85         27.8067
233.31        31.19853
233.77        32.23472
234.22        32.38823
234.68         31.7723
235.14        30.47391
235.60        28.96095
236.05        26.47069
236.51        23.35168
236.97        26.26379
237.43        35.91225
237.88        42.01866
238.34        40.65035
238.80        62.31764
239.26        53.68732
239.71        53.98006
240.17        48.89732
240.63        41.56037
241.08        33.28579
241.54        25.96531
242.00        23.17495
242.46        19.76868
242.91        14.19091
243.37        8.147783
243.83        3.142003
244.28        2.604162
244.74        7.628941
245.20         14.0461
245.66        18.41238
246.11        18.26254
246.57        13.23867
247.03        4.351803
247.48       -8.716386
247.94       -27.02135
248.40       -56.98127
248.85       -129.5616
249.31       -354.4392
249.77       -550.7432
250.22       -212.5173
250.68       -67.41032
251.14       -18.78134
251.59       -1.983603
252.05        3.215531
252.51        3.875474
252.96      -0.8754966
253.42        -10.7408
253.88       -20.72961
254.33       -27.01146
254.79       -22.40316
255.25        -5.46899
255.70        14.75932
256.16        31.97303
256.62         44.0613
257.07         50.2678
257.53        52.72612
257.99        53.24101
258.44        52.55555
258.90        51.83613
259.35        50.90172
259.81        49.99646
260.27        49.10794
260.72        48.34176
261.18        47.94263
261.63        47.60136
262.09        47.31122
262.55        46.70567
263.00        45.74151
263.46        44.72713
263.91        43.69356
264.37        43.05781
264.83        42.75507
265.28        42.59939
265.74        42.52888
266.19        42.28876
266.65         41.8899
267.11        41.35975
267.56        40.69233
268.02        39.96767
268.47        39.16564
268.93        38.29498
269.38        37.37621
269.84        36.50761
270.30        35.70424
270.75        34.97321
271.21        34.27892
271.66        33.48929
272.12        32.62715
272.57        31.72161
273.03        30.92017
273.48        30.39439
273.94         30.1742
274.39        30.14747
274.85        30.17016
275.31        29.96459
275.76        29.46918
276.22        28.80829
276.67        28.10472
277.13        27.61224
277.58         27.3335
278.04          27.207
278.49        27.08414
278.95        26.83883
279.40        26.40453
279.86        25.87666
280.31        25.29463
280.77        24.79293
281.22        24.37171
281.68        24.04944
282.13        23.74813
282.59        23.43425
283.04        23.07495
283.50        22.70571
283.95        22.39725
284.41        22.27832
284.86        22.34849
285.32        22.57629
285.77        22.80335
286.22        22.81806
286.68        22.61101
287.13        22.21401
287.59        21.85453
288.04        21.77147
288.50        21.97799
288.95        22.50432
289.41        23.17325
289.86        23.23453
290.32         22.5631
290.77        23.20932
291.22        22.06421
291.68        22.05766
292.13        22.28893
292.59        22.76913
293.04         23.3933
293.50        24.07195
293.95        24.78322
294.40        25.53402
294.86        26.34671
295.31        27.24207
295.77        28.21762
296.22         29.2354
296.68        30.27098
297.13        31.28965
297.58        32.29778
298.04        33.31383
298.49        34.36672
298.95        35.51785
299.40        36.76499
299.85        38.10121
300.31        39.47868
300.76        40.80472
301.21        42.06798
301.67        43.30976
302.12        44.57569
302.58        46.02584
303.03        47.65265
303.48        49.44286
303.94        51.29271
304.39        52.99978
304.84        54.52786
305.30        55.94603
305.75        57.32535
306.20        58.86913
306.66        60.60266
307.11         62.4076
307.57        64.18697
308.02        65.74076
308.47        67.04707
308.93        68.21697
309.38        69.28332
309.83        70.31716
310.29        71.45713
310.74        72.56899
311.19        73.69048
311.65        74.82533
312.10        75.94497
312.55        77.04916
313.00        78.09026
313.46        78.99138
313.91        79.72272
314.36        80.31612
314.82        80.81776
315.27        81.30238
315.72        81.80407
316.18        82.30878
316.63        82.81617
317.08        83.32556
317.53        83.82813
317.99        84.32527
318.44         84.7919
318.89        85.17065
319.35        85.45068
319.80        85.65007
320.25         85.8071
320.70        85.99451
321.16        86.22082
321.61        86.47549
322.06        86.72547
322.51        86.92226
322.97        87.04285
323.42         87.1426
323.87         87.2148
324.32        87.26366
324.78        87.28413
325.23        87.30086
325.68        87.34948
326.13        87.51456
326.59        87.78315
327.04        88.17553
327.49         88.5716
327.94        88.79696
328.39        88.81132
328.85        88.63975
329.30        88.44978
329.75         88.4173
330.20        88.60332
330.66        88.92448
331.11        89.35136
331.56        89.71635
332.01        89.96682
332.46        90.14085
332.92        90.23587
333.37        90.36812
333.82        90.52595
334.27        90.69275
334.72        90.86049
335.17        91.02209
335.63         91.1572
336.08        91.33298
336.53        91.55723
336.98        91.87356
337.43        92.28566
337.88        92.76929
338.34        93.26395
338.79        93.71657
339.24        94.08142
339.69        94.37327
340.14         94.6059
340.59        94.81058
341.05        95.01069
341.50         95.2114
341.95        95.43111
342.40        95.70389
342.85        96.03619
343.30        96.41663
343.75        96.82284
344.20        97.22039
344.66        97.59306
345.11        97.91702
345.56        98.18029
346.01        98.36427
346.46        98.47019
346.91        98.51859
347.36        98.50961
347.81        98.44105
348.26        98.33001
348.72        98.21822
349.17        98.10971
349.62        98.15019
350.07        98.33727
350.52        98.63499
350.97        98.92667
351.42        99.02268
351.87        98.87352
352.32         98.5279
352.77        98.09516
353.22        97.74539
353.67        97.52473
354.13        97.40549
354.58         97.2809
355.03        97.03122
355.48        96.63338
355.93        96.13426
356.38        95.63741
356.83        95.29343
357.28        95.11638
357.73        95.03882
358.18        94.92973
358.63         94.5867
359.08        93.96991
359.53        93.16181
359.98        92.27567
360.43        91.47911
360.88         90.8241
361.33        90.26175
361.78         89.7641
362.23        89.28713
362.68        88.80698
363.13        88.33992
363.58         87.8601
364.03        87.31874
364.48        86.70683
364.93        86.03195
365.38        85.32285
365.83        84.63889
366.28        83.99504
366.73        83.36668
367.18        82.75208
367.63        82.14674
368.08        81.54511
368.53        80.96352
368.98        80.35107
369.43        79.61531
369.88         78.7446
370.33        77.76168
370.78        76.78296
371.23        76.02377
371.68        75.54727
372.13        75.29925
372.58        75.14671
373.03        74.86441
373.48          74.386
373.93        73.77081
374.38        73.10889
374.83        72.55911
375.28        72.16941
375.72        71.86911
376.17         71.6096
376.62         71.2747
377.07        70.82542
377.52        70.28457
377.97        69.69875
378.42        69.15672
378.87        68.69528
379.32        68.30049
379.77        67.91325
380.22        67.43314
380.67        66.83931
381.11        66.16912
381.56         65.5043
382.01        64.99847
382.46         64.6964
382.91        64.54961
383.36        64.46291
383.81        64.28769
384.26        63.98283
384.71        63.59296
385.15        63.16322
385.60        62.82151
386.05        62.57584
386.50        62.38892
386.95        62.22274
387.40         62.0288
387.85        61.79518
388.29        61.50232
388.74        61.24822
389.19        61.00727
389.64        60.77573
390.09        60.54482
390.54        60.29393
390.98        59.98501
391.43        59.65228
391.88        59.30305
392.33        58.97907
392.78        58.71711
393.23         58.5165
393.67        58.38349
394.12        58.32103
394.57        58.07442
395.02        57.67466
395.47        57.41828
395.91        57.30898
396.36        57.07128
396.81        56.73182
397.26        56.49845
397.71        56.33232
398.15        56.10765
398.60        55.88631
399.05        55.51028
399.50        55.14141
399.95        55.28699
400.39        55.80478
400.84        55.98909
401.29        55.73938
401.74        55.22826
402.18        54.63631
402.63        54.40799
403.08        54.50725
403.53        54.34319
403.97        53.90748
404.42        53.64306
404.87        53.56654
405.32        53.51975
405.76        53.48896
406.21        53.45298
406.66        53.38706
407.11         53.4133
407.55        53.44882
408.00        53.11518
408.45        52.51004
408.90        52.05062
409.34        51.86174
409.79        51.96027
410.24         52.2085
410.68        52.26698
411.13        52.08588
411.58        51.85086
412.03        51.63012
412.47        51.47837
412.92         51.4164
413.37        51.43432
413.81        51.48696
414.26        51.54961
414.71        51.59153
415.15        51.63169
415.60        51.64722
416.05        51.64048
416.49        51.61274
416.94        51.55246
417.39        51.46274
417.83        51.34394
418.28        51.20441
418.73        51.05098
419.17        50.90141
419.62        50.79443
420.07        50.73759
420.51        50.71376
420.96        50.72639
421.41        50.74275
421.85        50.72499
422.30        50.70736
422.74        50.66784
423.19        50.63803
423.64        50.62223
424.08        50.68719
424.53         50.7325
424.98        50.71296
425.42        50.64338
425.87        50.32313
426.31        49.93483
426.76        50.24321
427.21        51.05507
427.65        51.11962
428.10        50.45069
428.54        50.17881
428.99        50.36528
429.44        50.39935
429.88         50.2294
430.33        50.11757
430.77        50.05774
431.22        50.03147
431.66        50.06063
432.11        50.38853
432.56        50.91578
433.00        50.90891
433.45        50.19773
433.89        49.89288
434.34         50.2275
434.78        49.22018
435.23        49.00803
435.67        50.06395
436.12        50.09905
436.57        50.31325
437.01         49.9519
437.46        49.79511
437.90        50.39605
438.35        50.13837
438.79        50.34019
439.24        50.15741
439.68        49.96825
440.13         49.6386
440.57        49.30033
441.02        49.39012
441.46         49.8159
441.91         50.0246
442.35        49.95948
442.80        50.21575
443.24        50.66402
443.69        50.68992
444.13        50.31557
444.58         50.0126
445.02        49.85575
445.47        49.89123
445.91        50.04732
446.36        50.08273
446.80        49.96498
447.24         49.8291
447.69        49.73208
448.13        49.74823
448.58        49.83372
449.02        49.74793
449.47        49.51826
449.91        49.39446
450.36        49.40319
450.80         49.3401
451.25        49.21896
451.69        49.18711
452.13        49.20335
452.58        49.02292
453.02         48.6911
453.47        48.49441
453.91        48.45501
454.36        48.44572
454.80        48.41228
455.24        48.39093
455.69        48.39139
456.13        48.22768
456.58         47.9999
457.02         48.2577
457.46        48.58725
457.91        48.55077
458.35        48.07707
458.79        47.87835
459.24        47.95066
459.68        47.97512
460.13        47.98697
460.57        47.83717
461.01        47.48298
461.46        47.82781
461.90        47.70879
462.34        47.13417
462.79        47.40922
463.23        47.34593
463.68        47.39248
464.12        47.15434
464.56        46.77639
465.01        47.02341
465.45        47.61262
465.89        47.60362
466.34         47.1185
466.78        46.85218
467.22         46.7935
467.67        47.32203
468.11        46.73108
468.55        46.68261
468.99        46.66161
469.44        46.57795
469.88        46.41396
470.32        46.20202
470.77        46.00272
471.21        45.87206
471.65        45.83408
472.10        45.87483
472.54        45.92296
472.98        45.91799
473.42        45.85495
473.87        45.66187
474.31        45.41967
474.75        45.56596
475.20        45.98131
475.64        46.01635
476.08        45.72475
476.52        45.62597
476.97        45.70019
477.41        45.91475
477.85        46.02934
478.29        45.64988
478.74        45.42316
479.18        45.48182
479.62        45.67376
480.06        45.81373
480.50        45.80236
480.95        45.85765
481.39         45.9197
481.83        46.10858
482.27          46.158
482.72        46.04117
483.16         45.9701
483.60        46.10561
484.04         45.9715
484.48        45.62255
484.93        45.41127
485.37        45.37972
485.81         46.1357
486.25        45.72556
486.69        47.72754
487.14        48.44629
487.58        47.25743
488.02        46.49556
488.46        45.72394
488.90        45.88845
489.34        45.19162
489.79         44.8489
490.23        45.50427
490.67        45.76306
491.11        45.88301
491.55        45.74347
491.99        45.45922
492.43        45.32313
492.88        45.37436
493.32         45.4427
493.76        45.43662
494.20        45.45488
494.64        45.51947
495.08        45.09851
495.52        45.02155
495.96         45.1413
496.41        45.54718
496.85        45.49631
497.29        45.03369
497.73        44.96989
498.17        45.08129
498.61        45.26133
499.05        45.34845
499.49        45.26599
499.93        45.08596
500.37        45.07416
500.82         45.2241
501.26        45.40792
501.70        45.55744
502.14        45.34107
502.58        45.17474
503.02        45.03629
503.46        45.01891
503.90        44.98734
504.34        44.92134
504.78        44.89774
505.22        44.92992
505.66        44.93445
506.10         44.8917
506.54        44.97108
506.98        45.20643
507.42        44.76876
507.86        45.12558
508.30        44.97653
508.74        44.93324
509.18        44.81367
509.62        44.70787
510.06        44.67173
510.50        44.68721
510.94        44.69627
511.38        44.67178
511.82         44.6252
512.26        44.54891
512.70        44.42848
513.14        44.28273
513.58        44.15731
514.02        44.06723
514.46        43.99783
514.90        43.93811
515.34        43.93549
515.78         43.9978
516.22        44.02495
516.66        43.87223
517.10        44.28609
517.54        44.01818
517.98        44.05225
518.42        44.04006
518.86        44.04874
519.30        44.07944
519.74        44.10004
520.18         44.1162
520.62         44.1753
521.06        44.23993
521.50        44.15669
521.93        43.95795
522.37        43.83491
522.81        43.80843
523.25        43.78229
523.69          43.735
524.13        43.67296
524.57        43.59251
525.01         43.4968
525.45        43.41457
525.89        43.38842
526.32        43.42434
526.76        43.51217
527.20        43.61469
527.64         43.6758
528.08        43.67955
528.52        43.63988
528.96        43.58876
529.40        43.57156
529.83        43.59687
530.27        43.67123
530.71        43.74794
531.15        43.75233
531.59        43.67324
532.03        43.53949
532.46         43.4022
532.90        43.35004
533.34        43.39733
533.78        43.51558
534.22         43.6466
534.66        43.70144
535.09        43.65503
535.53        43.55144
535.97        43.43078
536.41        43.36757
536.85        43.38109
537.28        43.44595
537.72        43.52991
538.16        43.58326
538.60        43.58914
539.04        43.56442
539.47        43.51755
539.91        43.49522
540.35        43.49511
540.79        43.50914
541.22        43.52028
541.66         43.5145
542.10        43.48478
542.54        43.43618
542.97        43.38736
543.41        43.38783
543.85        43.44247
544.29         43.5486
544.72        43.65417
545.16        43.71888
545.60        43.72194
546.04        43.62115
546.47         43.4981
546.91        43.58078
547.35        43.82082
547.79        43.98483
548.22        43.99699
548.66        43.83995
549.10        43.59487
549.53        43.52041
549.97        43.61522
550.41        43.60564
550.84        43.49369
551.28        43.44405
551.72        43.46256
552.15        43.53067
552.59        43.66629
553.03        43.58901
553.46        43.77011
553.90        43.74066
554.34        43.64209
554.77        43.47622
555.21         43.3278
555.65        43.31689
556.08        43.45303
556.52        43.69199
556.96        43.94006
557.39        44.10484
557.83        44.14248
558.27        43.98677
558.70        43.72124
559.14        43.56583
559.57        43.55212
560.01        43.63863
560.45        43.74038
560.88        43.71715
561.32        43.61118
561.75        43.47617
562.19        43.40408
562.63        43.54633
563.06        43.82147
563.50        43.87782
563.93        43.71445
564.37        43.63425
564.80        43.66021
565.24        43.75549
565.68        43.89265
566.11        43.96284
566.55        43.96637
566.98        44.04417
567.42        44.17718
567.85        44.08664
568.29        43.87619
568.72        43.91336
569.16        44.22813
569.60        44.36257
570.03        44.51731
570.47        44.71405
570.90        44.96159
571.34        45.01159
571.77        45.49261
572.21        45.11806
572.64        45.28656
573.08        45.18398
573.51         45.1162
573.95        45.54513
574.38        45.65141
574.82        46.07133
575.25        45.96334
575.69        46.08188
576.12        45.24366
576.56        45.60663
576.99        45.69018
577.42        46.13768
577.86         46.0369
578.29        46.79862
578.73        46.76911
579.16        46.53547
579.60         45.4896
580.03        45.58675
580.47        45.42959
580.90        45.87398
581.33         45.8465
581.77        46.05368
582.20        46.70798
582.64        47.25927
583.07        46.58192
583.51        46.14593
583.94        45.53016
584.37         45.1744
584.81        44.88236
585.24         45.0993
585.68         45.8191
586.11        45.82385
586.54        46.01998
586.98        45.54491
587.41        45.32714
587.85        45.66032
588.28        45.62282
588.71        45.98152
589.15        45.54538
589.58        44.93832
590.01        44.81869
590.45        44.66083
590.88        44.91893
591.31        44.62215
591.75        44.40941
592.18        44.21964
592.61        44.31061
593.05        44.87638
593.48        45.50681
593.91        45.75806
594.35         45.6002
594.78        45.30957
595.21        44.95385
595.65        44.91688
596.08        45.17445
596.51        44.97195
596.94        44.88467
597.38        44.73184
597.81        44.69519
598.24        44.88305
598.68        44.72265
599.11        44.77361
599.54        44.95171
599.97        45.32149
600.41        45.21077
600.84        45.23405
601.27        45.29184
601.70        45.32924
602.14        44.95343
602.57        44.83696
603.00        44.93993
603.43         45.2481
603.87        45.45778
604.30        45.37987
604.73        45.32731
605.16        44.87633
605.60        45.10468
606.03        45.11334
606.46        45.08326
606.89         45.4121
607.32        44.85592
607.76        45.29784
608.19        45.18781
608.62        45.28407
609.05        45.97234
609.48        45.19802
609.92        45.02018
610.35        45.27808
610.78        45.41603
611.21        45.31274
611.64        45.26852
612.07        45.15459
612.50        45.16789
612.94        45.05126
613.37        44.80466
613.80        45.06272
614.23        44.73833
614.66        44.75283
615.09        44.77381
615.52        44.77774
615.96        44.74385
616.39         44.7073
616.82        44.67757
617.25        44.57477
617.68        44.54596
618.11        44.42973
618.54        44.41114
618.97        44.41127
619.40        44.46715
619.84        44.39558
620.27        44.59464
620.70        44.45354
621.13        44.17784
621.56        44.17838
621.99        44.44382
622.42        44.53443
622.85        44.40887
623.28        44.32804
623.71        44.50556
624.14        44.41043
624.57        44.53775
625.00        44.76762
625.43        44.44157
625.86        44.40165
626.29         44.4161
626.72        44.36135
627.15        44.17745
627.58        44.14173
628.01        44.28215
628.44        44.03214
628.87        43.89475
629.30        44.22616
629.73        44.00014
630.16         43.9187
630.59        43.89375
631.02        44.12573
631.45        44.01859
631.88        44.04486
632.31        44.03168
632.74        43.77568
633.17        43.74539
633.60        43.60419
634.03        43.50619
634.46        43.46728
634.89        43.43112
635.32        43.47011
635.75        43.55145
636.18        43.67281
636.61        43.78627
637.04        43.81667
637.47        43.74971
637.89        43.61089
638.32        43.43949
638.75        43.32354
639.18        43.28888
639.61        43.31395
640.04        43.37109
640.47        43.41378
640.90        43.42524
641.33        43.41901
641.76        43.40711
642.18        43.41125
642.61         43.4278
643.04         43.4553
643.47        43.47889
643.90        43.48411
644.33        43.46899
644.76        43.42017
645.18        43.36856
645.61        43.39774
646.04         43.4944
646.47         43.5536
646.90        43.55476
647.33        43.54358
647.75        43.51548
648.18        43.45038
648.61        43.37651
649.04        43.34138
649.47        43.35595
649.89        43.49346
650.32        43.49269
650.75        43.66672
651.18        43.85793
651.61        43.77381
652.03        43.47932
652.46        43.34084
652.89        43.47065
653.32        43.68353
653.74         43.8526
654.17        44.14641
654.60         43.6468
655.03        43.03343
655.46        43.96286
655.88        44.26066
656.31        45.64991
656.74        51.72788
657.16        51.52153
657.59        50.22274
658.02        46.32583
658.45        44.32767
658.87        43.94708
659.30        44.35491
659.73        44.05956
660.15        43.47469
660.58        44.05548
661.01        44.27886
661.44        44.52898
661.86        44.51036
662.29        44.24144
662.72         43.9222
663.14        43.66232
663.57        43.64094
664.00        43.81518
664.42        43.88342
664.85        43.82661
665.27        43.74956
665.70        43.81285
666.13        43.85061
666.55        43.90675
666.98        43.97384
667.41         44.0272
667.83        44.03984
668.26        44.01559
668.69        43.92546
669.11        43.79462
669.54         43.8261
669.96        44.06632
670.39        43.86298
670.82        44.24425
671.24        44.31028
671.67        44.34117
672.09        44.34063
672.52        44.32826
672.94        44.21864
673.37        44.05123
673.80        43.97614
674.22        44.00392
674.65        43.99303
675.07        43.95527
675.50        43.97089
675.92        44.03247
676.35        44.06891
676.77        44.06602
677.20        44.06701
677.62        44.10516
678.05        44.12208
678.47        44.10297
678.90        44.43861
679.32         44.3964
679.75        44.51102
680.17        44.56086
680.60        44.57473
681.02        44.56083
681.45        44.54362
681.87        44.53772
682.30        44.52647
682.72        44.53006
683.15        44.53491
683.57        44.51059
684.00        44.64349
684.42        44.43851
684.85        44.42852
685.27        44.46219
685.70        44.49802
686.12        44.50705
686.54        44.50801
686.97        44.50924
687.39        44.48965
687.82        44.45642
688.24        44.52346
688.66        44.70608
689.09        44.66438
689.51        44.89981
689.94        45.00113
690.36        45.09218
690.78        45.08182
691.21        44.99856
691.63        44.90159
692.06        44.83371
692.48        44.85188
692.90        44.92677
693.33        44.93943
693.75        44.88863
694.17        44.81266
694.60        44.72548
695.02        44.78812
695.44         44.8033
695.87        44.78081
696.29         44.7138
696.71        44.76476
697.14        44.91927
697.56        45.12865
697.98        45.33564
698.41        45.24191
698.83         45.2866
699.25        45.11128
699.68        44.89961
700.10        44.73725
700.52        44.65842
700.94        44.63904
701.37        44.65058
701.79        44.68798
702.21        44.72348
702.64        44.76652
703.06        44.81492
703.48        44.86689
703.90        44.92265
704.33         44.9767
704.75        45.01568
705.17         45.0062
705.59        44.94751
706.01        44.84769
706.44        44.76126
706.86        44.78789
707.28        44.93394
707.70        45.16733
708.12        45.41088
708.55        45.54183
708.97        45.52731
709.39        45.40573
709.81        45.23968
710.23        45.14347
710.66        45.15594
711.08         45.2546
711.50        45.37204
711.92        45.41431
712.34        45.36146
712.76        45.24394
713.19        45.12177
713.61        45.12685
714.03        45.26395
714.45        45.49566
714.87        45.74348
715.29        45.85878
715.71        45.80722
716.13        45.75367
716.56        45.52866
716.98        45.42953
717.40        45.41546
717.82         45.4589
718.24        45.53761
718.66        45.61813
719.08        45.68632
719.50        45.75639
719.92        45.81488
720.34        45.83554
720.76        45.81654
721.19        45.75316
721.61         45.6915
722.03        45.68941
722.45        45.76028
722.87        45.88932
723.29        46.03166
723.71        46.11165
724.13        46.11043
724.55        46.04822
724.97        45.97336
725.39        45.96588
725.81        46.04603
726.23        46.18837
726.65        46.34287
727.07        46.43897
727.49        46.46083
727.91         46.4122
728.33         46.3417
728.75        46.37865
729.17         46.5204
729.59        46.62695
730.01        46.68138
730.43        46.76384
730.85        46.86625
731.27        46.90363
731.69         46.8881
732.10        46.88902
732.52        47.02288
732.94        46.85868
733.36         46.5185
733.78        46.38012
734.20        46.48328
734.62        46.62482
735.04         46.7452
735.46        46.83133
735.88        46.86133
736.30        46.84904
736.72        46.80251
737.13         46.7597
737.55        46.70834
737.97        46.61542
738.39        46.52927
738.81        46.60567
739.23         46.8189
739.65        46.96884
740.06        46.97282
740.48        46.95465
740.90        46.88185
741.32        46.67205
741.74        46.40761
742.16         46.2904
742.57        46.37111
742.99        46.57737
743.41        46.81643
743.83        46.92661
744.25        46.86572
744.67         46.6791
745.08         46.4645
745.50        46.35173
745.92        46.39364
746.34        46.55513
746.75        46.74531
747.17        46.81634
747.59        46.73636
748.01        46.52426
748.42        46.30737
748.84        46.30604
749.26        46.53028
749.68        46.88023
750.09        47.20479
750.51        47.19843
750.93        46.90341
751.35         46.7219
751.76        46.71452
752.18        46.66086
752.60        46.58327
753.01        46.66964
753.43        46.82763
753.85        46.84267
754.27        46.68555
754.68        46.42666
755.10        46.17597
755.52        46.07778
755.93        46.17099
756.35        46.41185
756.77         46.7062
757.18        46.91691
757.60        46.99273
758.02        46.93933
758.43        46.85525
758.85        46.87212
759.26        47.05621
759.68        47.33037
760.10        47.10478
760.51        46.77187
760.93        46.83413
761.34        46.81613
761.76        47.15501
762.18        47.28003
762.59        47.20702
763.01        47.09469
763.42         46.4321
763.84        46.52828
764.26          46.673
764.67         47.1595
765.09        47.63043
765.50         47.7063
765.92        47.43884
766.33        47.26552
766.75        47.22952
767.16         47.0946
767.58        46.82783
768.00        46.77562
768.41        46.94759
768.83        46.76229
769.24        46.27996
769.66         46.8859
770.07        47.12416
770.49        47.33249
770.90        47.12238
771.32        47.04202
771.73        47.12428
772.15        47.12297
772.56        47.06649
772.97        47.07024
773.39        47.10722
773.80        47.12637
774.22        47.09706
774.63        47.06084
775.05        47.01405
775.46        46.98511
775.88        46.96497
776.29        46.95803
776.70        46.95233
777.12        46.94255
777.53        46.94044
777.95          46.949
778.36        46.95866
778.77         46.9515
779.19        46.92622
779.60        46.89109
780.02        46.87926
780.43          46.956
780.84        47.12504
781.26        47.35979
781.67        47.61976
782.09        47.75341
782.50        47.74373
782.91        47.71759
783.33        47.68706
783.74        47.65424
784.15        47.61616
784.57         47.6036
784.98        47.63973
785.39        47.71484
785.81        47.82055
786.22        47.95192
786.63        48.07091
787.04        48.11796
787.46        48.09185
787.87        47.99736
788.28         47.8656
788.70        47.74105
789.11        47.62648
789.52        47.51641
789.93        47.44335
790.35        47.44904
790.76        47.55114
791.17        47.75194
791.58        47.97278
792.00        48.08463
792.41        48.08371
792.82        47.93693
793.23        47.79076
793.65        47.95547
794.06        48.40924
794.47        48.88149
794.88         49.2595
795.29        49.18571
795.71        49.37525
796.12        49.11591
796.53        48.71648
796.94        48.50722
797.35        48.51988
797.76        48.46633
798.18        48.32294
798.59        48.25962
799.00        48.26729
799.41        48.24765
799.82        48.20364
800.23        48.19292
800.64         48.2155
801.06        48.22959
801.47        48.25256
801.88        48.25723
802.29        48.24231
802.70        48.22224
803.11        48.20576
803.52         48.2038
803.93        48.22004
804.34        48.24591
804.75        48.30126
805.17        48.39339
805.58         48.5336
805.99        48.75178
806.40        48.98182
806.81        48.98594
807.22        48.80069
807.63         48.7389
808.04        48.82131
808.45        48.82868
808.86         48.7613
809.27        48.76724
809.68        48.84043
810.09         48.8835
810.50        48.88646
810.91        48.88722
811.32        48.87694
811.73         48.8383
812.14        48.77365
812.55        48.67725
812.96        48.59757
813.37        48.62165
813.78        48.75937
814.19        48.97999
814.60        49.19509
815.01        49.26905
815.42        49.17326
815.83        48.94428
816.24        48.66726
816.65        48.50542
817.05         48.5235
817.46        48.66103
817.87        48.86551
818.28        49.02269
818.69        49.10266
819.10        49.13847
819.51        49.17742
819.92        49.29754
820.33        49.50741
820.74        49.75699
821.14        49.98182
821.55        50.11367
821.96        50.12546
822.37        50.04966
822.78        49.90719
823.19        49.73822
823.60        49.56659
824.00        49.38454
824.41        49.21997
824.82        49.15409
825.23        49.19941
825.64        49.35734
826.04        49.53764
826.45        49.55467
826.86        49.38963
827.27        49.08894
827.68         48.8063
828.08        48.82937
828.49        49.15949
828.90        49.75187
829.31        50.44069
829.72        50.82096
830.12        50.79153
830.53        51.00605
830.94        50.49924
831.35        50.23277
831.75        49.97372
832.16        49.70213
832.57        49.48639
832.97        49.44973
833.38        49.60891
833.79        49.92841
834.20        50.30838
834.60        50.58767
835.01        50.71544
835.42        50.72279
835.82        50.65866
836.23        50.58931
836.64        50.55202
837.04        50.53337
837.45        50.49516
837.86        50.42655
838.26        50.33788
838.67        50.24043
839.08        50.16644
839.48        50.14574
839.89        50.17973
840.29         50.2462
840.70        50.34427
841.11        50.45745
841.51        50.58282
841.92        50.69709
842.33        50.76947
842.73        50.75089
843.14        50.60559
843.54        50.38159
843.95        50.15078
844.35        50.04557
844.76        50.09157
845.17        50.24723
845.57        50.47075
845.98        50.65935
846.38         50.8011
846.79        50.91333
847.19        51.00068
847.60         51.0034
848.00        50.95386
848.41        50.83462
848.81        50.77215
849.22        50.94073
849.62        51.39036
850.03        52.01786
850.43        52.67897
850.84        53.05482
851.24        53.11191
851.65        52.87699
852.05        52.50965
852.46        52.24575
852.86        52.17168
853.27        52.25656
853.67        52.35308
854.07        52.35995
854.48        52.22792
854.88        52.01809
855.29        51.78546
855.69        51.74334
856.10        51.86811
856.50        52.16161
856.90        52.44539
857.31        52.46798
857.71        52.21296
858.12        51.72366
858.52        51.15889
858.92        50.75187
859.33        50.57759
859.73         50.6175
860.13        50.79107
860.54        50.95378
860.94        51.10093
861.34        51.22372
861.75        51.32848
862.15        51.49003
862.55         51.6725
862.96        51.81948
863.36        51.86892
863.76        51.68927
864.17        51.27458
864.57        50.71838
864.97        50.11415
865.38        49.59768
865.78        49.26348
866.18        49.08835
866.58        49.16202
866.99        49.57319
867.39        50.30264
867.79        51.26773
868.19        52.20872
868.60        52.66991
869.00        52.67627
869.40        52.56771
869.80        52.37826
870.21        51.92468
870.61         51.3144
871.01        50.73986
871.41        50.24708
871.81        49.75439
872.22        49.30897
872.62         48.9603
873.02        48.75679
873.42        49.01529
873.82        49.47192
874.22        49.33365
874.63        48.93879
875.03        48.99447
875.43        49.55046
875.83        51.57648
876.23        51.16756
876.63        50.32639
877.03        48.65283
877.44         45.3652
877.84        198.1619
878.24        46.10877
878.64        47.25853
879.04        49.64546
879.44        50.69456
879.84        46.36147
880.24        53.54701
880.64        53.95544
881.04        50.75671
881.44        48.35681
881.84        47.53841
882.24        48.41901
882.65        50.05838
883.05        50.34877
883.45        48.91911
883.85        47.04526
884.25        45.48177
884.65         44.8435
885.05        45.34083
885.45        46.62671
885.85        48.14547
886.25        49.14056
886.65        49.40181
887.05        49.16823
887.45        48.60047
887.85        47.97259
888.25        47.43174
888.65        46.88303
889.04        46.46236
889.44        46.42477
889.84        46.78286
890.24        47.47754
890.64        48.25418
891.04        48.71222
891.44        48.76592
891.84         48.5159
892.24        48.12511
892.64        47.89489
893.04        47.91833
893.44        48.09419
893.83        48.34822
894.23        48.52983
894.63        48.61818
895.03        48.69155
895.43        48.76173
895.83        48.82924
896.23        48.90617
896.63        48.96241
897.02        49.05877
897.42        49.34019
897.82        49.78553
898.22        50.33754
898.62        50.82914
899.01        50.99374
899.41        50.75891
899.81        50.23241
900.21        49.57235
900.61        49.04221
901.00        48.72436
901.40         48.6252
901.80        48.72899
902.20        48.79456
902.59        48.73774
902.99        49.00969
903.39        49.72257
903.79        48.69933
904.18        49.66882
904.58        49.60945
904.98        49.54252
905.38        49.24661
905.77        48.73158
906.17        48.06415
906.57        47.39993
906.96        47.11784
907.36        47.29782
907.76        47.85463
908.15        48.59857
908.55         49.0687
908.95        49.17488
909.34         48.9771
909.74        48.69987
910.14        48.66734
910.53        48.95092
910.93        49.42162
911.33        49.83485
911.72        49.81322
912.12        49.29817
912.52         48.4483
912.91        47.52799
913.31        47.01713
913.70        47.00891
914.10        47.36827
914.49        47.90182
914.89        48.21465
915.29        48.20436
915.68        47.97038
916.08        47.67395
916.47        47.51265
916.87        47.57987
917.26        47.80378
917.66        48.08183
918.05        48.27913
918.45        48.33843
918.84        48.29895
919.24        48.27138
919.64        48.48798
920.03        48.96711
920.42        49.58888
920.82        50.10812
921.21        50.15589
921.61        49.70705
922.00        48.99175
922.40        48.32591
922.79        48.01326
923.19        47.61618
923.58        48.29984
923.98        50.53656
924.37        50.60322
924.77        46.43668
925.16        58.22082
925.55        49.36771
925.95        50.05996
926.34        49.91153
926.74        48.69099
927.13        46.47779
927.52        45.23327
927.92        45.74303
928.31        46.98125
928.70        48.49487
929.10        49.53584
929.49        49.95259
929.89        50.01165
930.28        49.80315
930.67        49.39878
931.07        48.92484
931.46        48.18989
931.85        47.50403
932.24        48.02108
932.64        49.84462
933.03        51.78578
933.42        52.75637
933.82        55.94724
934.21        53.59103
934.60        51.76848
934.99        49.91762
935.39        49.43772
935.78        50.36702
936.17        53.26525
936.56        62.40369
936.96        52.30435
937.35        57.67339
937.74        52.80133
938.13        49.23979
938.53        46.46691
938.92        45.59438
939.31        47.33562
939.70        49.79647
940.09        51.07861
940.49        50.75852
940.88        49.49522
941.27        47.90849
941.66        47.14131
942.05        47.59543
942.44        48.75434
942.84        50.02854
943.23         50.7697
943.62        50.77251
944.01        50.26558
944.40        49.60217
944.79        49.34557
945.18        49.65247
945.57        50.33215
945.97         50.9898
946.36        51.13921
946.75        50.62652
947.14        49.63139
947.53        48.55769
947.92        48.08751
948.31        48.39462
948.70        49.23958
949.09        50.20881
949.48        50.66868
949.87        50.47345
950.26        49.85545
950.65         49.0772
951.04        48.56107
951.43        48.45696
951.82        48.60968
952.21        48.97496
952.60        49.48621
952.99        50.04104
953.38        50.63083
953.77        51.10587
954.16        51.23268
954.55        50.99797
954.94        50.49585
955.33        49.84675
955.72        49.31229
956.11        49.01267
956.50        48.85422
956.89        48.95351
957.28        49.46729
957.66        50.38335
958.05        51.57405
958.44        52.61753
958.83        52.86011
959.22        52.19033
959.61        50.73898
960.00         49.0585
960.39        48.25293
960.78        48.65573
961.16        49.96394
961.55        51.41928
961.94        52.12784
962.33        51.90682
962.72        51.01028
963.11        49.87209
963.49        49.36721
963.88        49.80007
964.27        50.81549
964.66        51.91899
965.04        52.47048
965.43        52.27365
965.82        51.60402
966.21        50.73234
966.60        50.12136
966.98        49.94516
967.37        50.05592
967.76        50.34264
968.15        50.63361
968.53        50.87469
968.92         51.1345
969.31        51.38583
969.69        51.55603
970.08        51.61375
970.47        51.52166
970.86        51.41327
971.24        51.55101
971.63         51.9443
972.02        52.50119
972.40        52.97554
972.79        52.88788
973.17        52.23328
973.56        51.20081
973.95        50.09668
974.33        49.47314
974.72        49.51717
975.11        50.00581
975.49        50.89616
975.88         52.0262
976.26         53.3173
976.65        54.72187
977.04        55.85886
977.42        56.13186
977.81        55.41949
978.19        53.75393
978.58        51.98257
978.96        51.63945
979.35        53.03304
979.74        55.53796
980.12        58.06639
980.51         59.0517
980.89        58.41401
981.28        56.50713
981.66         53.9268
982.05        52.29021
982.43        52.24714
982.82        53.39408
983.20        55.12149
983.59        56.49038
983.97         57.2307
984.35        57.58526
984.74        57.59086
985.12         57.3489
985.51        56.93594
985.89        56.41435
986.28        55.84508
986.66        55.43128
987.04        55.28911
987.43        55.26883
987.81        55.14801
988.20        56.58349
988.58         59.6604
988.96        60.57037
989.35        58.24935
989.73        66.30209
990.12        61.41915
990.50        61.47633
990.88         60.4031
991.27        59.40959
991.65        58.55284
992.03        58.01149
992.42        57.95535
992.80        57.75378
993.18        57.34268
993.56         56.9586
993.95        56.68165
994.33        56.55704
994.71        56.62969
995.10        56.82054
995.48        57.15384
995.86        57.70398
996.24        58.41893
996.63        59.13344
997.01        59.81013
997.39        60.19999
997.77        60.22215
998.15        59.94571
998.54        59.42523
998.92        58.62029
999.30        57.62714
999.68        56.53024
1000.06        55.52568
1000.45         54.9662
1000.83        55.08604
1001.21        55.77696
1001.59        56.99372
1001.97        58.61845
1002.35        60.42398
1002.73        62.25752
1003.12        63.77997
1003.50        64.69481
1003.88        64.95418
1004.26        64.63105
1004.64        63.92321
1005.02        63.28804
1005.40        62.92226
1005.78        62.74979
1006.16        62.63962
1006.54        62.29633
1006.92        61.70526
1007.30        61.13086
1007.69        60.66407
1008.07        60.48917
1008.45        60.63902
1008.83        61.00747
1009.21        61.83774
1009.59        63.52401
1009.97        65.79424
1010.35        68.12081
1010.73        69.94128
1011.11        71.04051
1011.49        71.60793
1011.86        71.36617
1012.24        70.05142
1012.62        71.37146
1013.00        71.71433
1013.38        70.83693
1013.76        66.98007
1014.14        72.23397
1014.52        80.72888
1014.90        70.36548
1015.28          72.591
1015.66        75.09087
1016.04         70.9826
1016.41        71.86752
1016.79         71.1046
1017.17        70.66103
1017.55        69.77768
1017.93        68.75248
1018.31        68.13214
1018.69        68.08134
1019.06        68.74544
1019.44        70.02694
1019.82         71.1429
1020.20        70.94895
1020.58        69.19193
1020.95        65.68454
1021.33        61.58335
1021.71        60.30135
1022.09        63.20113
1022.46        68.44017
1022.84        73.20394
1023.22        75.52852
1023.60         75.5854
1023.97        74.10794
1024.35        71.93824
1024.73        70.75245
