SpectraSmart Spectrum 2.9.0.0
--------- Device Information -----------
Spectrum Name :  反射率_0
Saving Time :  2024/04/21 00:34:21
Spectro-Module Model Name : SE2030-DUVN
Spectro-Module Serial Number : OS361AC55029948
Wavelength Start : 200
Wavelength End : 1025
Wavelength Unit : Wavelength(nm)
Spectrum Unit : Reflectance(%)
-----------Spectrum Setting ------------
Integration Time : 20ms
Average : 10
Boxcar : 0
Background removal :  enabled
linearity correction :  enabled
SC :  disabled
Intensity correction :  disabled
DWT denoise :  enabled
savitzky-golay :  disabled
FFT :  disabled
Running average :  disabled
Kalman :  disabled
High pass :  disabled
---------------BEGIN--------------------
Wavelength(nm)             Reflectance(%)
200.29               0
200.75       -99.00379
201.21       -24.10766
201.67        15.63826
202.13        27.59533
202.58        22.54084
203.04        5.670927
203.50       -18.62652
203.96       -35.80577
204.42        -37.8006
204.88       -29.91324
205.34       -19.31037
205.80       -16.51799
206.26       -24.24365
206.72       -37.17765
207.18       -53.31935
207.64       -67.43215
208.10       -72.36177
208.55       -71.51819
209.01       -52.45388
209.47       -10.47968
209.93        27.13371
210.39        52.45996
210.85        66.59445
211.31        71.19479
211.77        68.51956
212.23        57.90937
212.69        34.34379
213.14       -8.165418
213.60       -81.17057
214.06       -272.3499
214.52       -670.1573
214.98       -281.1691
215.44       -65.46571
215.90          5.2103
216.36        28.52708
216.81        31.80683
217.27        19.69066
217.73       -49.59253
218.19        793.7861
218.65        341.2491
219.11        -671.479
219.57        -7.77421
220.02        32.93792
220.48        36.81192
220.94        25.78834
221.40       -5.551524
221.86         -76.966
222.32       -120.9093
222.77       -54.94976
223.23        1.692691
223.69        30.33937
224.15        40.55114
224.61        41.39119
225.06        38.02172
225.52        31.61682
225.98        23.32611
226.44        14.39447
226.90        3.239172
227.36       -4.553147
227.81        1.143189
228.27         15.3931
228.73        30.41634
229.19        40.32406
229.65        42.35444
230.10        37.79586
230.56        28.30905
231.02        15.42918
231.48        6.299697
231.93        6.192101
232.39        12.45107
232.85        20.01249
233.31         24.5494
233.77          26.139
234.22        26.67788
234.68        26.41722
235.14        25.60394
235.60          24.745
236.05        22.82832
236.51        20.21405
236.97        23.84355
237.43        34.31927
237.88        41.14004
238.34        40.15917
238.80        61.66175
239.26        51.37537
239.71        48.97325
240.17        40.03043
240.63        30.24091
241.08        23.51857
241.54          23.182
242.00        30.10466
242.46        33.76651
242.91         31.2006
243.37          23.626
243.83         12.9625
244.28        7.374183
244.74         11.5396
245.20        19.82236
245.66        26.70914
246.11        27.35265
246.57        21.05612
247.03        9.848063
247.48       -6.019534
247.94       -26.98408
248.40       -59.71339
248.85       -138.4568
249.31       -383.0618
249.77       -600.1566
250.22       -233.3382
250.68          -73.12
251.14       -19.64622
251.59       -2.969833
252.05      -0.5483693
252.51       -5.453492
252.96       -15.63206
253.42       -20.81758
253.88       -14.02804
254.33      -0.6772398
254.79        15.00975
255.25        28.48988
255.70        37.83989
256.16        44.12144
256.62        47.90632
257.07         49.6201
257.53        50.36377
257.99        50.47596
258.44        50.11914
258.90        50.02313
259.35        49.77798
259.81        49.60242
260.27        49.30376
260.72        48.77012
261.18        48.29012
261.63        47.67928
262.09        47.04202
262.55        46.11208
263.00        44.87098
263.46        43.60843
263.91        42.37025
264.37        41.59047
264.83        41.20893
265.28        41.03296
265.74        40.98562
266.19        40.80171
266.65        40.47095
267.11        40.00603
267.56         39.3882
268.02         38.6732
268.47        37.84396
268.93        36.93772
269.38        35.95279
269.84        34.95645
270.30        33.97039
270.75        32.99467
271.21        32.11439
271.66        31.38513
272.12        30.82894
272.57         30.4016
273.03        30.01181
273.48         29.4838
273.94         28.8112
274.39        28.02439
274.85        27.25043
275.31        26.61688
275.76        26.15176
276.22        25.84187
276.67        25.61249
277.13        25.42799
277.58        25.22819
278.04        25.03773
278.49        24.83268
278.95        24.65134
279.40        24.44978
279.86          24.244
280.31        23.95594
280.77        23.55604
281.22        23.02827
281.68        22.46341
282.13        21.90694
282.59         21.4933
283.04        21.22167
283.50        21.06314
283.95        20.99737
284.41        21.01465
284.86         21.0843
285.32        21.22326
285.77        21.33385
286.22        21.28761
286.68        21.09483
287.13        20.75786
287.59        20.47047
288.04        20.42477
288.50        20.62341
288.95        21.12423
289.41        21.77373
289.86         21.8471
290.32         21.2227
290.77        21.96615
291.22        20.89959
291.68        20.97845
292.13         21.2772
292.59        21.80953
293.04        22.46131
293.50        23.13001
293.95        23.79315
294.40        24.46076
294.86        25.17213
295.31        25.97548
295.77        26.88086
296.22        27.85523
296.68        28.86504
297.13         29.8573
297.58        30.83869
298.04        31.83634
298.49        32.90549
298.95        34.14669
299.40        35.55726
299.85        37.10469
300.31        38.69678
300.76        40.17878
301.21        41.52023
301.67        42.77691
302.12        44.02016
302.58        45.44893
303.03        47.07414
303.48        48.88403
303.94        50.76654
304.39        52.50434
304.84        54.06527
305.30        55.52903
305.75        57.00228
306.20        58.73739
306.66        60.75668
307.11        62.91301
307.57        65.05231
308.02        66.89094
308.47         68.3931
308.93        69.69987
309.38        70.88007
309.83        72.06919
310.29        73.41509
310.74        74.75672
311.19        76.12914
311.65        77.53389
312.10        78.93496
312.55        80.34595
313.00        81.66464
313.46        82.72562
313.91         83.4908
314.36         84.0126
314.82         84.4554
315.27        85.07993
315.72        85.95094
316.18        86.99924
316.63        88.06519
317.08        88.88656
317.53        89.39565
317.99        89.67319
318.44        89.85961
318.89        90.16701
319.35        90.64941
319.80        91.23468
320.25        91.82495
320.70         92.2724
321.16        92.52501
321.61        92.65608
322.06        92.71604
322.51        92.78493
322.97        92.88808
323.42        93.04125
323.87         93.2295
324.32        93.44729
324.78        93.67348
325.23        93.94302
325.68        94.25367
326.13        94.62517
326.59        95.02254
327.04        95.46897
327.49         95.8781
327.94        96.14526
328.39        96.24924
328.85        96.20035
329.30        96.12279
329.75        96.10829
330.20        96.20416
330.66        96.35564
331.11        96.61938
331.56        96.95641
332.01        97.35016
332.46        97.80732
332.92        98.23497
333.37        98.60178
333.82        98.84673
334.27        98.99128
334.72        99.10954
335.17        99.33569
335.63        99.68421
336.08        100.1788
336.53        100.7465
336.98        101.3038
337.43        101.8174
337.88        102.3057
338.34        102.7657
338.79        103.2443
339.24        103.7233
339.69        104.1821
340.14        104.6014
340.59        104.9652
341.05        105.2772
341.50        105.5582
341.95        105.8333
342.40        106.1435
342.85        106.5023
343.30        106.9019
343.75        107.3167
344.20        107.7082
344.66        108.0687
345.11        108.3816
345.56        108.6693
346.01        108.9661
346.46         109.276
346.91         109.581
347.36        109.8263
347.81        109.9615
348.26        109.9928
348.72         109.847
349.17        109.7991
349.62        109.8321
350.07         110.033
350.52        110.3387
350.97        110.6657
351.42        110.8708
351.87        110.9023
352.32        110.8064
352.77        110.6002
353.22        110.3101
353.67        109.9644
354.13        109.5754
354.58        109.1728
355.03        108.8624
355.48        108.6585
355.93        108.5254
356.38        108.4083
356.83        108.2135
357.28        107.9051
357.73        107.5063
358.18        107.0033
358.63        106.3846
359.08        105.6742
359.53        104.8903
359.98        104.1091
360.43        103.4428
360.88        102.9099
361.33        102.4779
361.78        102.0808
362.23        101.6084
362.68        101.0275
363.13        100.3675
363.58        99.65411
364.03        98.92916
364.48        98.20959
364.93        97.48359
365.38         96.7536
365.83        96.02999
366.28        95.31634
366.73        94.61262
367.18        93.93089
367.63        93.28406
368.08        92.67362
368.53        92.10421
368.98        91.52797
369.43        90.86195
369.88        90.08881
370.33        89.22171
370.78        88.35045
371.23        87.64666
371.68        87.15661
372.13        86.83141
372.58        86.55606
373.03        86.13631
373.48        85.51898
373.93          84.764
374.38        83.95642
374.83        83.24614
375.28        82.68845
375.72        82.22316
376.17        81.83412
376.62        81.43239
377.07        80.97993
377.52        80.48631
377.97        79.96628
378.42        79.45652
378.87        78.97721
379.32        78.52555
379.77        78.06654
380.22        77.53687
380.67        76.92289
381.11        76.25098
381.56        75.58143
382.01        75.03752
382.46        74.66041
382.91        74.41821
383.36        74.23735
383.81         73.9996
384.26        73.66915
384.71        73.27478
385.15         72.8477
385.60        72.50182
386.05        72.23161
386.50        71.99986
386.95        71.76018
387.40        71.45112
387.85        71.07239
388.29        70.62309
388.74        70.22495
389.19        69.85688
389.64        69.52005
390.09        69.19521
390.54        68.89906
390.98        68.65107
391.43        68.48013
391.88        68.35743
392.33        68.23077
392.78        68.00081
393.23        67.65504
393.67        67.26743
394.12        66.94955
394.57        66.53828
395.02        66.12656
395.47        66.08214
395.91        66.33217
396.36         66.3717
396.81        66.16437
397.26        65.98895
397.71        65.84522
398.15        65.61106
398.60        65.37492
399.05        65.05127
399.50        64.72072
399.95        64.64727
400.39        64.77242
400.84        64.68485
401.29        64.37377
401.74        64.08017
402.18        63.85535
402.63        63.66875
403.08         63.4975
403.53        63.25464
403.97        62.94355
404.42         62.6644
404.87        62.45299
405.32        62.34098
405.76        62.32077
406.21        62.37029
406.66         62.4289
407.11        62.42669
407.55        62.33131
408.00        62.11266
408.45         61.8202
408.90        61.43609
409.34        61.07249
409.79        61.04375
410.24        61.25174
410.68        61.27419
411.13        61.07729
411.58         60.8862
412.03        60.76207
412.47         60.7246
412.92        60.77281
413.37         60.9035
413.81        61.04708
414.26        61.15496
414.71        61.19262
415.15        61.18463
415.60        61.13403
416.05        61.10324
416.49        61.10863
416.94         61.1221
417.39        61.11647
417.83        61.04387
418.28        60.90154
418.73        60.71023
419.17        60.50852
419.62        60.36691
420.07        60.30509
420.51        60.29929
420.96        60.34394
421.41        60.38107
421.85        60.37146
422.30        60.37263
422.74        60.37245
423.19        60.43578
423.64        60.55713
424.08        60.77029
424.53        60.96523
424.98        61.06036
425.42        61.04448
425.87        60.87821
426.31        60.67324
426.76        60.69259
427.21        60.92181
427.65         61.1055
428.10        61.13487
428.54        61.12075
428.99         61.0906
429.44        60.90129
429.88        60.61903
430.33        60.61924
430.77        60.79262
431.22        60.83212
431.66        60.73559
432.11        60.83294
432.56        61.15366
433.00        61.20567
433.45        60.76542
433.89        60.68031
434.34        61.22454
434.78        59.79946
435.23        60.34174
435.67        61.36635
436.12        61.38326
436.57        61.51868
437.01        61.13251
437.46        60.90638
437.90        61.51792
438.35        61.10346
438.79        61.31348
439.24        61.29869
439.68        61.47306
440.13        61.48454
440.57        61.34203
441.02         61.4797
441.46        61.78773
441.91        61.61339
442.35        61.09976
442.80        61.33162
443.24        62.12136
443.69         62.3105
444.13        61.87733
444.58        61.70633
445.02        61.82294
445.47        61.91351
445.91         61.9323
446.36        61.93855
446.80        61.92017
447.24        61.85333
447.69        61.77789
448.13        61.90524
448.58        62.01257
449.02        61.93975
449.47        61.68423
449.91        61.57471
450.36        61.64579
450.80        61.63949
451.25        61.57364
451.69        61.62787
452.13        61.74946
452.58        61.63942
453.02        61.32608
453.47        61.12702
453.91        61.05273
454.36        60.94299
454.80        60.79041
455.24        60.67789
455.69        60.62607
456.13        60.56499
456.58        60.49556
457.02         60.5317
457.46        60.34794
457.91        60.27665
458.35        60.30084
458.79        60.26893
459.24        60.22009
459.68        60.15145
460.13        60.08239
460.57          60.222
461.01        59.63897
461.46        60.02662
461.90        59.59622
462.34        59.38893
462.79        59.62187
463.23        59.48628
463.68        59.84424
464.12        59.56566
464.56        59.04136
465.01        58.96791
465.45        59.22021
465.89        59.36798
466.34        59.33926
466.78        59.03124
467.22        58.56243
467.67        58.57526
468.11        58.56884
468.55        58.64505
468.99        58.57179
469.44        58.44767
469.88        58.25617
470.32        57.94569
470.77        57.60328
471.21        57.38401
471.65        57.32198
472.10        57.37906
472.54        57.49077
472.98        57.55849
473.42        57.55328
473.87        57.54568
474.31        57.52367
474.75        57.49001
475.20        57.46348
475.64        57.52723
476.08        57.65409
476.52        57.64737
476.97        57.46804
477.41        57.41653
477.85         57.5289
478.29        56.90487
478.74        56.83953
479.18         56.7012
479.62        57.06914
480.06        56.88487
480.50         57.0982
480.95        57.13684
481.39        57.18156
481.83         57.3521
482.27        57.64913
482.72        57.24522
483.16        57.41561
483.60        57.61046
484.04        57.43986
484.48        57.16414
484.93         57.3065
485.37        56.74574
485.81        57.31516
486.25        57.27341
486.69        59.53831
487.14        59.52801
487.58        58.22314
488.02        57.59585
488.46        57.17406
488.90        57.14574
489.34        57.15303
489.79        56.53695
490.23        56.79083
490.67         56.8507
491.11        57.08576
491.55        56.94189
491.99         56.5117
492.43        56.32524
492.88        56.41332
493.32        56.53583
493.76        56.58373
494.20        56.61032
494.64        56.61549
495.08        56.21882
495.52        56.11758
495.96        56.12664
496.41        56.35607
496.85        56.50816
497.29        56.47152
497.73        56.39852
498.17        56.05062
498.61        56.02774
499.05        56.19318
499.49        56.06994
499.93        55.73808
500.37        55.63324
500.82        55.75813
501.26        56.02865
501.70        56.32541
502.14          56.044
502.58        55.72234
503.02        55.53763
503.46        55.61284
503.90        55.66452
504.34        55.64173
504.78        55.64781
505.22        55.69026
505.66        55.66988
506.10        55.57834
506.54        55.62291
506.98        55.84795
507.42        55.28076
507.86        55.75933
508.30        55.43882
508.74        55.51631
509.18        55.40877
509.62        55.33308
510.06        55.30132
510.50        55.28825
510.94        55.23862
511.38        55.14288
511.82        55.06627
512.26         55.0103
512.70        54.93446
513.14        54.85963
513.58        54.83844
514.02        54.87379
514.46        54.94625
514.90        55.00252
515.34        55.00384
515.78        54.94566
516.22        54.79826
516.66        54.46181
517.10        54.66846
517.54        54.41949
517.98        54.49221
518.42        54.57185
518.86        54.66296
519.30        54.74684
519.74         54.7979
520.18        54.82769
520.62         54.9156
521.06        55.01989
521.50        54.93909
521.93        54.71152
522.37        54.57824
522.81        54.56434
523.25        54.55021
523.69        54.51123
524.13        54.45613
524.57        54.38126
525.01        54.29344
525.45        54.21951
525.89        54.19928
526.32        54.23754
526.76        54.32058
527.20        54.42515
527.64        54.51725
528.08        54.58207
528.52        54.62963
528.96        54.65469
529.40         54.6445
529.83        54.59979
530.27        54.54823
530.71         54.4991
531.15        54.46685
531.59         54.4575
532.03        54.47358
532.46        54.49444
532.90        54.49677
533.34          54.471
533.78        54.42711
534.22        54.37822
534.66        54.34443
535.09        54.32298
535.53        54.32379
535.97        54.32897
536.41        54.32601
536.85        54.31198
537.28        54.29277
537.72        54.27354
538.16        54.26363
538.60        54.26332
539.04        54.26649
539.47        54.25955
539.91        54.26797
540.35        54.27694
540.79        54.28825
541.22        54.28584
541.66        54.25705
542.10        54.19714
542.54        54.11073
542.97        54.02096
543.41        53.99087
543.85        54.02813
544.29        54.12996
544.72        54.23941
545.16        54.31475
545.60        54.32987
546.04        54.23245
546.47        54.10796
546.91        54.20626
547.35        54.46843
547.79        54.63413
548.22        54.61933
548.66        54.40586
549.10        54.09313
549.53        53.99333
549.97        54.11959
550.41        54.12329
550.84        53.99398
551.28        54.02066
551.72        54.21346
552.15         54.1148
552.59        54.34723
553.03        54.29107
553.46        54.40181
553.90        54.35082
554.34        54.19567
554.77         54.1113
555.21        54.20439
555.65        53.69031
556.08        54.07253
556.52         54.1696
556.96        54.33463
557.39        54.34145
557.83        54.21317
558.27        54.08615
558.70              54
559.14        53.94502
559.57        53.92344
560.01        54.05043
560.45        54.23727
560.88         54.2049
561.32         54.0293
561.75        53.95008
562.19        54.01957
562.63        54.11502
563.06        54.18549
563.50        54.17186
563.93        54.06494
564.37        53.96004
564.80         53.8801
565.24        53.90442
565.68         54.0089
566.11        54.08765
566.55        54.15165
566.98        54.22232
567.42        54.31695
567.85        54.44986
568.29        54.60452
568.72         54.5962
569.16        54.53286
569.60        54.51583
570.03        54.73072
570.47        54.95597
570.90        55.17769
571.34        55.12086
571.77        55.72237
572.21        55.41194
572.64        55.34829
573.08        55.51677
573.51        55.14017
573.95        55.47838
574.38        55.44219
574.82        56.30867
575.25        56.14964
575.69        55.90802
576.12        55.33504
576.56        55.73396
576.99        55.81056
577.42        55.81608
577.86        56.07026
578.29        56.62803
578.73        57.05505
579.16        56.59459
579.60        55.66065
580.03        55.92491
580.47        55.65894
580.90        55.85425
581.33         56.1726
581.77        56.10411
582.20        57.15303
582.64        57.27336
583.07        56.89028
583.51        56.30943
583.94        55.84058
584.37        55.27591
584.81        55.00934
585.24        55.21484
585.68         56.0885
586.11        55.93568
586.54        55.93964
586.98        55.74286
587.41        55.62505
587.85        56.06258
588.28         56.0716
588.71        56.12045
589.15        55.81705
589.58        55.38831
590.01        55.10329
590.45        54.84142
590.88        55.28194
591.31        55.03616
591.75         54.9225
592.18        54.78893
592.61        54.89304
593.05        55.38903
593.48        55.51452
593.91        55.99312
594.35         55.9241
594.78        55.55184
595.21        55.03164
595.65        55.07713
596.08        55.58791
596.51        55.68778
596.94        54.92611
597.38        54.66196
597.81        54.83659
598.24        55.17181
598.68        54.89571
599.11        55.09444
599.54        55.62659
599.97        55.38212
600.41         55.4571
600.84        55.48316
601.27        55.38875
601.70        55.48328
602.14        55.09132
602.57         54.8895
603.00        54.72686
603.43        55.03923
603.87        55.37414
604.30        55.35795
604.73         55.2601
605.16        55.21354
605.60        55.04153
606.03         55.1716
606.46        55.42938
606.89        55.41848
607.32        54.83017
607.76        55.32208
608.19        55.30114
608.62         55.0956
609.05        55.86338
609.48        55.15936
609.92        55.06174
610.35        54.68103
610.78        55.07281
611.21        55.09565
611.64        54.90454
612.07         54.8478
612.50        54.92072
612.94        54.95396
613.37         54.9485
613.80        54.97122
614.23        54.99776
614.66        54.91316
615.09        54.74702
615.52        54.68816
615.96        54.73085
616.39        54.68547
616.82        54.53884
617.25        54.55695
617.68        54.41425
618.11        54.40248
618.54        54.53846
618.97        54.45736
619.40        54.19278
619.84        54.17993
620.27        53.96407
620.70        54.03462
621.13        54.18302
621.56         54.2016
621.99        54.11051
622.42        54.15193
622.85        54.28648
623.28        54.44495
623.71        54.27058
624.14        54.29955
624.57        54.54285
625.00        54.56309
625.43        54.33733
625.86        54.26985
626.29        54.37818
626.72        54.12284
627.15        54.08683
627.58        54.01935
628.01        54.15428
628.44        53.84199
628.87         53.7213
629.30        54.23517
629.73        54.07005
630.16        54.02079
630.59        53.83621
631.02        53.92553
631.45        53.62032
631.88        53.59658
632.31        53.67284
632.74        53.56227
633.17        53.76656
633.60        53.73814
634.03        53.62556
634.46         53.5274
634.89        53.40113
635.32        53.29334
635.75        53.23046
636.18        53.39059
636.61        53.69285
637.04         53.8368
637.47        53.78567
637.89        53.69066
638.32        53.59216
638.75        53.52473
639.18         53.5123
639.61        53.54259
640.04        53.59211
640.47        53.62582
640.90        53.63075
641.33        53.61644
641.76        53.59417
642.18        53.58603
642.61         53.5852
643.04        53.59269
643.47        53.59253
643.90        53.56624
644.33        53.51298
644.76        53.42683
645.18         53.3429
645.61        53.34196
646.04        53.41854
646.47        53.48633
646.90        53.52254
647.33        53.55206
647.75        53.55674
648.18        53.52955
648.61         53.5084
649.04        53.49226
649.47        53.47527
649.89        53.76905
650.32         53.7467
650.75        53.81876
651.18        53.79453
651.61        53.65799
652.03        53.48257
652.46        53.43242
652.89        53.51212
653.32        53.57261
653.74        53.68481
654.17        53.47206
654.60        53.70223
655.03        53.67776
655.46        53.39166
655.88        54.04811
656.31        55.82333
656.74        61.50643
657.16        60.83212
657.59         59.0539
658.02        55.47338
658.45        54.22993
658.87         53.7832
659.30        54.15128
659.73        53.79348
660.15        53.36844
660.58         53.6459
661.01        53.83448
661.44        54.10041
661.86        54.02556
662.29        53.66023
662.72        53.46544
663.14        53.50068
663.57        53.56602
664.00        53.62472
664.42         53.6824
664.85        53.72824
665.27        53.67217
665.70         53.6953
666.13        53.67352
666.55        53.66813
666.98        53.65908
667.41        53.64717
667.83        53.64721
668.26        53.66904
668.69        53.66006
669.11        53.61755
669.54        53.72847
669.96        54.03504
670.39        53.76249
670.82        54.17181
671.24        54.17598
671.67        54.13586
672.09        54.01465
672.52        53.88575
672.94        53.81752
673.37        53.82065
673.80        53.85274
674.22        53.89748
674.65        53.91271
675.07        53.90327
675.50        53.86911
675.92        53.82718
676.35        53.79259
676.77        53.77098
677.20        53.77562
677.62        53.83332
678.05        53.89396
678.47        53.93739
678.90        54.28425
679.32         54.3177
679.75        54.45815
680.17        54.51753
680.60        54.52505
681.02        54.48645
681.45         54.4269
681.87        54.36847
682.30        54.27505
682.72        54.19218
683.15        54.20182
683.57        54.26304
684.00        54.39524
684.42        54.18953
684.85        54.19163
685.27        54.27313
685.70        54.33466
686.12        54.34639
686.54        54.36185
686.97        54.37712
687.39        54.37635
687.82        54.36779
688.24        54.44504
688.66        54.44518
689.09        54.65129
689.51        54.59915
689.94        54.67212
690.36        54.72636
690.78        54.69514
691.21        54.60222
691.63        54.49683
692.06        54.43588
692.48        54.49991
692.90        54.64359
693.33        54.69049
693.75        54.62757
694.17        54.51028
694.60        54.37419
695.02        54.40433
695.44        54.37192
695.87        54.41088
696.29        54.45779
696.71        54.40293
697.14        54.30128
697.56        54.55008
697.98        55.05755
698.41        55.06231
698.83        55.08475
699.25        54.91043
699.68        54.75642
700.10        54.61207
700.52        54.50988
700.94        54.44955
701.37        54.40761
701.79        54.39774
702.21        54.39679
702.64        54.41195
703.06         54.4389
703.48        54.47275
703.90         54.5148
704.33         54.5641
704.75        54.60907
705.17        54.61612
705.59        54.58097
706.01        54.50595
706.44        54.45105
706.86        54.51131
707.28        54.68399
707.70        54.98927
708.12        55.32056
708.55        55.38078
708.97        55.19257
709.39        55.10222
709.81        55.14067
710.23        55.09564
710.66        54.98432
711.08        54.97451
711.50        55.03432
711.92        55.04325
712.34        54.99199
712.76        54.91809
713.19        54.85735
713.61        54.90592
714.03         55.0543
714.45        55.27591
714.87        55.50829
715.29        55.62398
715.71        55.59114
716.13         55.5881
716.56        55.39086
716.98        55.31262
717.40        55.28751
717.82         55.3354
718.24        55.43807
718.66        55.37815
719.08        55.44714
719.50        55.41965
719.92        55.40316
720.34        55.41245
720.76        55.45444
721.19        55.50679
721.61        55.56835
722.03        55.62261
722.45        55.66331
722.87        55.69598
723.29        55.72415
723.71        55.75263
724.13        55.78513
724.55        55.81945
724.97        55.85983
725.39        55.91492
725.81        55.98309
726.23        56.05613
726.65        56.12543
727.07        56.18347
727.49        56.22794
727.91        56.24853
728.33        56.24144
728.75        56.24166
729.17        56.23772
729.59        56.14465
730.01         56.0149
730.43        56.01712
730.85        56.16722
731.27        56.36482
731.69        56.56248
732.10        56.68445
732.52        56.86521
732.94        56.72448
733.36        56.40215
733.78        56.24029
734.20        56.28901
734.62         56.3681
735.04         56.4381
735.46        56.50837
735.88        56.56479
736.30        56.61897
736.72        56.65658
737.13        56.68733
737.55        56.68341
737.97        56.58219
738.39        56.44889
738.81        56.56758
739.23        56.87727
739.65         56.9381
740.06         56.7206
740.48        56.63575
740.90        56.66018
741.32        56.57471
741.74        56.41215
742.16        56.35136
742.57        56.42297
742.99         56.5611
743.41        56.70758
743.83         56.7522
744.25        56.66934
744.67        56.48895
745.08        56.30482
745.50        56.23385
745.92        56.32106
746.34        56.53209
746.75        56.76474
747.17        56.85078
747.59        56.75875
748.01         56.5135
748.42        56.24779
748.84        56.21365
749.26        56.42675
749.68        56.71897
750.09        56.97565
750.51        57.05637
750.93        56.96302
751.35        56.88007
751.76        56.84669
752.18        56.77494
752.60        56.68674
753.01        56.67933
753.43         56.7044
753.85        56.67775
754.27        56.59161
754.68         56.4769
755.10        56.39073
755.52        56.39761
755.93        56.50356
756.35        56.68013
756.77        56.88821
757.18        57.01627
757.60        57.03579
758.02        57.07479
758.43        57.16682
758.85        56.88594
759.26        57.18578
759.68        57.14796
760.10        56.42451
760.51        56.71549
760.93        57.35948
761.34        57.43888
761.76        57.55816
762.18        57.48648
762.59        57.43604
763.01        57.39721
763.42        56.71839
763.84        56.76876
764.26        56.91172
764.67        57.40821
765.09         57.9157
765.50        58.06317
765.92        57.88258
766.33        57.61851
766.75        57.31324
767.16        57.44366
767.58        57.01655
768.00        57.27062
768.41        57.78565
768.83        57.79974
769.24        57.30334
769.66        57.41417
770.07        57.13713
770.49        57.26752
770.90        57.42111
771.32        57.30652
771.73        56.98615
772.15        56.89585
772.56        57.07621
772.97        57.25992
773.39        57.35236
773.80        57.39354
774.22        57.33381
774.63        57.18636
775.05        57.00195
775.46         56.9104
775.88        56.92332
776.29        57.02836
776.70        57.15504
777.12        57.19764
777.53        57.14236
777.95        57.01601
778.36        56.87093
778.77        56.78464
779.19        56.79038
779.60        56.87745
780.02        57.00444
780.43        57.17634
780.84         57.3886
781.26        57.46426
781.67         57.4831
782.09        57.91103
782.50        58.54473
782.91        58.52494
783.33        57.93511
783.74        57.73849
784.15        57.98223
784.57        58.15252
784.98        58.19723
785.39        58.21185
785.81        58.19213
786.22        58.16846
786.63        58.16286
787.04        58.15667
787.46        58.16803
787.87         58.2057
788.28        58.25499
788.70        58.26397
789.11        58.20876
789.52        58.11704
789.93        58.02941
790.35        57.99825
790.76        58.04802
791.17        58.16981
791.58        58.31063
792.00        58.35947
792.41         58.3236
792.82        58.24688
793.23        58.22232
793.65        58.28877
794.06        58.47941
794.47        58.93768
794.88        59.55091
795.29        59.51092
795.71         59.6736
796.12        59.53532
796.53        59.38168
796.94        58.98326
797.35        58.48417
797.76        58.41877
798.18        58.72366
798.59        58.80004
799.00        58.59877
799.41        58.47872
799.82        58.46302
800.23         58.4194
800.64        58.35494
801.06        58.28001
801.47        58.25471
801.88        58.31961
802.29        58.47525
802.70        58.68349
803.11        58.90103
803.52        59.05874
803.93           59.14
804.34        59.17389
804.75        59.14933
805.17        59.09531
805.58        59.06283
805.99        58.87589
806.40        58.64988
806.81        58.95454
807.22        59.62375
807.63        59.75843
808.04        59.38395
808.45        59.29549
808.86        59.52526
809.27        59.57818
809.68        59.43762
810.09        59.33069
810.50         59.2746
810.91        59.21697
811.32        59.15971
811.73        59.10355
812.14        59.04918
812.55        59.00559
812.96        58.99576
813.37        59.04571
813.78        59.15401
814.19        59.30936
814.60        59.45465
815.01        59.50371
815.42        59.44125
815.83         59.2887
816.24        59.11487
816.65        59.04906
817.05        59.14015
817.46        59.33433
817.87        59.58281
818.28        59.77249
818.69        59.87817
819.10        59.92854
819.51        59.98592
819.92        60.15683
820.33         60.4505
820.74        60.80248
821.14        61.11873
821.55        61.28732
821.96        61.26606
822.37        61.09436
822.78        60.81073
823.19        60.48697
823.60        60.16954
824.00        59.86823
824.41        59.59369
824.82        59.41112
825.23        59.33694
825.64        59.37674
826.04        59.50735
826.45        59.64323
826.86        59.76957
827.27        59.89286
827.68        60.02491
828.08        60.21248
828.49         60.3881
828.90        60.57521
829.31        60.76249
829.72        60.82654
830.12        60.75541
830.53        61.01531
830.94        60.77518
831.35          60.676
831.75        60.49655
832.16         60.2451
832.57        60.03349
832.97        60.04445
833.38        60.29694
833.79        60.71439
834.20        61.14692
834.60        61.36883
835.01        61.32604
835.42        61.09153
835.82        60.76128
836.23        60.46674
836.64        60.28773
837.04        60.20061
837.45         60.1888
837.86        60.27691
838.26        60.45922
838.67         60.7156
839.08        60.99849
839.48        61.20926
839.89        61.31272
840.29        61.32804
840.70        61.28619
841.11        61.24262
841.51        61.23647
841.92        61.22361
842.33        61.22644
842.73        61.28107
843.14        61.34501
843.54        61.43449
843.95         61.5172
844.35        61.55464
844.76        61.53132
845.17        61.47295
845.57        61.39096
845.98        61.27438
846.38        61.16311
846.79        61.03727
847.19         60.9814
847.60         61.0573
848.00        61.29921
848.41         61.6493
848.81        62.04699
849.22        62.32078
849.62        62.45129
850.03        62.44277
850.43        62.37326
850.84        62.27108
851.24        62.21085
851.65        62.12287
852.05        62.08375
852.46        62.13855
852.86        62.28796
853.27         62.5546
853.67        62.78414
854.07        62.88896
854.48        62.82381
854.88        62.62665
855.29        62.36374
855.69        62.31562
856.10        62.46005
856.50        62.80699
856.90        63.13042
857.31        63.09521
857.71         62.6798
858.12        61.94665
858.52        61.13547
858.92        60.59372
859.33        60.42756
859.73        60.59433
860.13         60.9416
860.54        61.20359
860.94        61.35047
861.34        61.41369
861.75        61.44847
862.15        61.62079
862.55        61.91482
862.96        62.22703
863.36        62.48192
863.76        62.52786
864.17        62.33154
864.57        61.99236
864.97         61.5394
865.38        61.00378
865.78        60.46675
866.18         59.9141
866.58        59.52969
866.99        59.59405
867.39        60.16686
867.79        61.13203
868.19          62.126
868.60        62.55071
869.00        62.38241
869.40         61.9402
869.80        61.41199
870.21        60.96107
870.61        60.76983
871.01        60.86287
871.41        61.03152
871.81        60.86634
872.22         60.3298
872.62        59.57462
873.02        58.83509
873.42        58.72201
873.82        59.13706
874.22        59.32334
874.63         59.4232
875.03        59.77655
875.43        60.34227
875.83        61.96515
876.23        61.61479
876.63        60.91408
877.03        59.56721
877.44        56.89797
877.84        177.5661
878.24        57.45557
878.64        58.51128
879.04        60.62132
879.44        61.61948
879.84        58.14776
880.24        63.39635
880.64         63.1654
881.04        60.00952
881.44        57.76829
881.84        57.22709
882.24        58.40252
882.65         60.2859
883.05        60.85509
883.45        59.72956
883.85        58.01429
884.25        56.47845
884.65        55.89634
885.05        56.49707
885.45        57.88271
885.85        59.47147
886.25        60.46742
886.65        60.66291
887.05        60.33707
887.45        59.67644
887.85        58.99051
888.25        58.43722
888.65        57.89347
889.04        57.51586
889.44        57.58694
889.84         58.1058
890.24        59.00055
890.64        59.90602
891.04        60.25917
891.44        59.95667
891.84         59.1452
892.24        58.15722
892.64        57.58947
893.04        57.61913
893.44        58.07474
893.83        58.69324
894.23        59.03244
894.63        59.00382
895.03        58.77085
895.43        58.52189
895.83        58.54618
896.23        58.90858
896.63        59.45472
897.02        60.04467
897.42        60.55763
897.82        60.90752
898.22        61.12603
898.62        61.18712
899.01        61.04973
899.41        60.71385
899.81        60.23611
900.21        59.67528
900.61        59.13364
901.00        58.65696
901.40        58.30317
901.80        58.17499
902.20        58.24674
902.59        58.47902
902.99        59.17433
903.39        60.24329
903.79        59.68784
904.18        60.38033
904.58        60.03278
904.98        59.63081
905.38        59.28258
905.77        59.04927
906.17        58.89608
906.57        58.79778
906.96        58.82843
907.36        58.97861
907.76        59.25227
908.15        59.59518
908.55        59.76303
908.95        59.75019
909.34        59.56786
909.74        59.35476
910.14        59.29873
910.53        59.44656
910.93        59.73097
911.33         60.0132
911.72        60.07159
912.12        59.86248
912.52        59.45575
912.91        58.98667
913.31        58.74797
913.70        58.77847
914.10        58.99883
914.49        59.26781
914.89        59.27249
915.29        58.97044
915.68        58.45333
916.08        57.93303
916.47        57.68436
916.87        57.80639
917.26        58.20499
917.66        58.71227
918.05        59.07891
918.45        59.20444
918.84        59.15356
919.24        59.04131
919.64        59.11769
920.03        59.42929
920.42         59.8674
920.82        60.22908
921.21        60.21533
921.61        59.81091
922.00        59.21607
922.40        58.72903
922.79         58.6505
923.19        58.64172
923.58        59.60728
923.98        61.79752
924.37        62.20443
924.77        59.24886
925.16        68.27237
925.55        61.56892
925.95        62.23169
926.34        62.40541
926.74        61.89513
927.13         60.5722
927.52        59.53436
927.92        59.30666
928.31        59.25838
928.70        59.45621
929.10        59.88371
929.49        60.50332
929.89        61.36015
930.28        62.09497
930.67        61.98149
931.07        60.92454
931.46        59.02497
931.85        57.03196
932.24         56.7459
932.64        58.47601
933.03        60.93181
933.42        62.83717
933.82        66.06887
934.21        64.45743
934.60        62.88538
934.99        61.11221
935.39        60.56839
935.78        61.39988
936.17        63.88306
936.56        71.15714
936.96        63.58295
937.35        67.71236
937.74        63.93729
938.13        61.09707
938.53        58.82929
938.92        58.02731
939.31        59.26729
939.70        61.05418
940.09        61.86221
940.49        61.34993
940.88        60.03136
941.27        58.53445
941.66        58.01995
942.05        58.83833
942.44        60.48284
942.84        62.18081
943.23        62.98134
943.62        62.65854
944.01           61.52
944.40         60.1577
944.79        59.57187
945.18        60.03278
945.57        61.20211
945.97        62.47044
946.36        63.00946
946.75        62.55634
947.14        61.39634
947.53        59.99035
947.92        59.12099
948.31        59.03962
948.70        59.49461
949.09        60.13824
949.48        60.44311
949.87        60.27586
950.26        59.83969
950.65         59.3494
951.04        59.13063
951.43        59.28281
951.82        59.66296
952.21        60.16004
952.60        60.60952
952.99        60.91052
953.38        61.09318
953.77        61.14772
954.16        61.04586
954.55        60.81603
954.94        60.50675
955.33        60.14103
955.72        59.78563
956.11        59.49591
956.50         59.2414
956.89        59.20483
957.28        59.65019
957.66        60.59638
958.05        61.86939
958.44        63.02815
958.83         63.4077
959.22        62.87638
959.61        61.55975
960.00        59.96943
960.39        59.12973
960.78        59.36117
961.16        60.40052
961.55        61.53579
961.94        61.89228
962.33        61.29935
962.72        60.00334
963.11        58.52144
963.49        57.90276
963.88        58.48898
964.27        59.88169
964.66        61.43854
965.04        62.30769
965.43        62.25829
965.82        61.61868
966.21        60.74345
966.60        60.25357
966.98        60.35219
967.37        60.78804
967.76        61.39558
968.15         61.9227
968.53        62.27363
968.92         62.5522
969.31        62.65254
969.69        62.36757
970.08        61.67633
970.47        60.61298
970.86        59.57182
971.24        59.25515
971.63        59.78728
972.02        60.95925
972.40        62.25015
972.79         62.7794
973.17        62.43092
973.56        61.46476
973.95        60.33449
974.33        59.86628
974.72        60.28696
975.11        61.24781
975.49        62.49878
975.88        63.56148
976.26        64.31197
976.65        64.87244
977.04        65.07774
977.42        64.61219
977.81        63.43871
978.19        61.52564
978.58        59.71871
978.96         59.5594
979.35        61.29611
979.74        64.26351
980.12        67.22012
980.51        68.46331
980.89        67.88385
981.28        65.82629
981.66        62.95947
982.05        61.04923
982.43        60.84589
982.82        61.91385
983.20        63.54944
983.59        64.62739
983.97        64.86453
984.35        64.60562
984.74        64.05951
985.12        63.62997
985.51        63.44757
985.89        63.40213
986.28        63.41282
986.66         63.4882
987.04        63.66468
987.43         63.8819
987.81        63.86901
988.20        64.78413
988.58        66.76888
988.96        66.80146
989.35        64.12287
989.73        70.83511
990.12        66.87051
990.50        67.56005
990.88        67.47075
991.27        67.24237
991.65        66.76662
992.03        66.27065
992.42         65.9323
992.80        65.38209
993.18        64.64052
993.56        63.86328
993.95        63.22135
994.33        62.93216
994.71        63.05457
995.10        63.47693
995.48        64.09897
995.86        64.74097
996.24        65.30285
996.63         65.7433
997.01        66.07076
997.39        66.11682
997.77        65.86047
998.15        65.32092
998.54        64.73198
998.92        64.36086
999.30        64.34579
999.68        64.72097
1000.06        65.25914
1000.45        65.42763
1000.83         65.1783
1001.21        64.64278
1001.59        64.33156
1001.97        64.98845
1002.35        66.58266
1002.73        68.66906
1003.12        70.64172
1003.50        71.83089
1003.88        72.10752
1004.26        71.70493
1004.64        70.83932
1005.02        69.97947
1005.40        69.37492
1005.78        68.91045
1006.16        68.61386
1006.54        68.48683
1006.92        68.51722
1007.30        68.81184
1007.69        69.18295
1008.07        69.41225
1008.45        69.43179
1008.83        69.25333
1009.21         69.1523
1009.59        69.70287
1009.97        70.89251
1010.35        72.28407
1010.73        73.45985
1011.11        74.26563
1011.49          74.843
1011.86        74.98135
1012.24        74.37909
1012.62        75.93511
1013.00        76.43314
1013.38        75.72769
1013.76        72.50404
1014.14        77.06277
1014.52        84.37387
1014.90        76.61915
1015.28        79.02103
1015.66        81.22683
1016.04        77.95687
1016.41         78.1311
1016.79        76.87657
1017.17        75.97967
1017.55        74.92064
1017.93        73.83335
1018.31        73.29669
1018.69        73.63012
1019.06         74.9086
1019.44        76.96173
1019.82        78.74075
1020.20        78.78439
1020.58        76.76849
1020.95        72.47791
1021.33        67.20607
1021.71        65.19462
1022.09        68.24718
1022.46        74.19377
1022.84        79.65845
1023.22        82.12924
1023.60         81.7622
1023.97        79.44676
1024.35        76.26961
1024.73        74.45487
