SpectraSmart Spectrum 2.9.0.0
--------- Device Information -----------
Spectrum Name :  反射率_0
Saving Time :  2024/04/21 00:25:00
Spectro-Module Model Name : SE2030-DUVN
Spectro-Module Serial Number : OS361AC55029948
Wavelength Start : 200
Wavelength End : 1025
Wavelength Unit : Wavelength(nm)
Spectrum Unit : Reflectance(%)
-----------Spectrum Setting ------------
Integration Time : 20ms
Average : 10
Boxcar : 0
Background removal :  enabled
linearity correction :  enabled
SC :  disabled
Intensity correction :  disabled
DWT denoise :  enabled
savitzky-golay :  disabled
FFT :  disabled
Running average :  disabled
Kalman :  disabled
High pass :  disabled
---------------BEGIN--------------------
Wavelength(nm)             Reflectance(%)
200.29               0
200.75       -58.85734
201.21       -3.884667
201.67        26.10054
202.13        36.61332
202.58        35.42541
203.04         26.9652
203.50         14.0894
203.96        5.025721
204.42        4.014775
204.88        7.596539
205.34        11.38048
205.80         8.66491
206.26        -2.77919
206.72       -19.70134
207.18         -40.937
207.64       -62.30756
208.10       -76.18473
208.55       -83.41685
209.01       -68.94833
209.47       -26.03784
209.93        14.97141
210.39        43.58378
210.85         60.5562
211.31        68.08259
211.77        69.43657
212.23        65.65614
212.69        54.69017
213.14        35.22792
213.60        2.626281
214.06       -85.54459
214.52       -270.5516
214.98       -85.97161
215.44        14.43153
215.90        46.85903
216.36        56.12009
216.81         52.9637
217.27        35.70798
217.73       -43.53242
218.19        912.5514
218.65         420.377
219.11       -928.6518
219.57       -35.83481
220.02        22.20505
220.48        33.54568
220.94        30.25405
221.40        13.18443
221.86       -29.19057
222.32       -57.04076
222.77       -18.90869
223.23        13.84844
223.69        30.44044
224.15        36.56635
224.61        37.41245
225.06        36.10578
225.52        32.94635
225.98        27.63515
226.44        20.60482
226.90        10.92479
227.36         3.02223
227.81        5.469779
228.27        15.22279
228.73        26.27212
229.19        33.60295
229.65        34.50318
230.10        29.86868
230.56        21.29346
231.02        10.33353
231.48        3.306205
231.93        4.550622
232.39        11.42045
232.85        18.99883
233.31        23.21273
233.77        24.26907
234.22         23.9901
234.68        22.72432
235.14        21.03301
235.60        19.56686
236.05        17.18932
236.51        14.28973
236.97        18.20795
237.43        29.53003
237.88        37.09956
238.34        36.25592
238.80         58.7776
239.26        46.29578
239.71        41.12599
240.17          27.959
240.63         15.5797
241.08        10.85617
241.54        18.90025
242.00        37.07402
242.46        47.87476
242.91        46.41182
243.37        33.00965
243.83        11.89049
244.28        2.359458
244.74        14.79764
245.20        38.13369
245.66        59.60715
246.11        67.29999
246.57         60.2808
247.03        42.84209
247.48        18.31106
247.94       -8.796252
248.40        -42.2866
248.85       -112.6596
249.31       -318.5434
249.77       -486.5862
250.22       -175.5643
250.68       -42.82801
251.14        1.772899
251.59        17.33716
252.05        22.71219
252.51        23.74939
252.96        20.57385
253.42        15.64669
253.88        12.18906
254.33        10.40836
254.79        14.31891
255.25        24.35145
255.70        35.45937
256.16        44.80082
256.62        50.77158
257.07        52.59532
257.53        52.02773
257.99        50.36168
258.44         48.3733
258.90         47.3043
259.35        46.68536
259.81        46.37087
260.27        46.05133
260.72        45.51788
261.18        45.01331
261.63          44.435
262.09        43.78785
262.55        42.72775
263.00        41.25999
263.46        39.67544
263.91        38.17236
264.37        37.36404
264.83        37.17805
265.28        37.33743
265.74        37.55456
266.19        37.30593
266.65        36.56979
267.11        35.47766
267.56        34.22278
268.02        33.17762
268.47        32.39014
268.93        31.77697
269.38        31.17931
269.84        30.40943
270.30        29.42897
270.75        28.34619
271.21        27.31018
271.66        26.47631
272.12         25.9048
272.57        25.49936
273.03        25.21493
273.48        24.96698
273.94        24.72223
274.39        24.46888
274.85        24.16802
275.31        23.70332
275.76        23.07413
276.22         22.3606
276.67        21.66065
277.13        21.17599
277.58        20.90633
278.04        20.79716
278.49        20.74016
278.95        20.63763
279.40         20.4242
279.86        20.16277
280.31        19.83106
280.77        19.46175
281.22        19.05337
281.68        18.65696
282.13        18.28271
282.59         18.0099
283.04        17.83252
283.50         17.7402
283.95        17.73793
284.41        17.84688
284.86        18.04116
285.32        18.30953
285.77        18.55184
286.22        18.63189
286.68        18.55563
287.13        18.34083
287.59        18.14532
288.04        18.10822
288.50        18.23178
288.95        18.59811
289.41        19.14082
289.86        19.25355
290.32        18.82249
290.77        19.92272
291.22        19.16797
291.68        19.40991
292.13        19.66949
292.59        20.02707
293.04        20.47256
293.50        21.06561
293.95        21.83445
294.40        22.74415
294.86        23.77697
295.31        24.88892
295.77        26.05691
296.22        27.27054
296.68        28.52628
297.13        29.81845
297.58        31.15778
298.04        32.54288
298.49        33.97933
298.95        35.49654
299.40         37.0795
299.85        38.72877
300.31        40.40921
300.76        42.04633
301.21        43.63993
301.67        45.23582
302.12        46.87579
302.58        48.71812
303.03        50.75822
303.48        52.98628
303.94        55.32257
304.39        57.59241
304.84        59.75348
305.30        61.85749
305.75        63.91545
306.20        66.05162
306.66        68.28004
307.11        70.49841
307.57        72.67241
308.02        74.68826
308.47        76.54581
308.93        78.32287
309.38        79.99558
309.83        81.57503
310.29        83.14332
310.74         84.6144
311.19        86.05072
311.65         87.5095
312.10        88.97722
312.55         90.4426
313.00        91.83403
313.46        93.03714
313.91        94.01524
314.36        94.81818
314.82        95.53201
315.27        96.28661
315.72        97.12624
316.18        98.00964
316.63        98.89162
317.08        99.69956
317.53        100.4004
317.99        101.0148
318.44        101.5406
318.89        101.9569
319.35        102.2735
319.80        102.5122
320.25         102.715
320.70        102.9602
321.16        103.2596
321.61        103.6037
322.06         103.978
322.51        104.3613
322.97        104.7221
323.42        105.1069
323.87         105.445
324.32        105.6395
324.78        105.6615
325.23        105.5735
325.68        105.4813
326.13        105.5935
326.59        105.9322
327.04        106.4974
327.49        107.1269
327.94        107.5725
328.39        107.7699
328.85        107.7663
329.30          107.75
329.75        107.9067
330.20        108.2986
330.66        108.8079
331.11        109.4301
331.56        110.0221
332.01        110.5313
332.46        110.9979
332.92        111.3411
333.37        111.5688
333.82         111.647
334.27        111.6018
334.72        111.5642
335.17        111.7593
335.63         112.215
336.08        112.9368
336.53        113.7842
336.98         114.557
337.43        115.1771
337.88        115.6841
338.34        116.0835
338.79        116.4561
339.24        116.8048
339.69        117.1108
340.14        117.3858
340.59        117.6625
341.05        117.9576
341.50        118.2856
341.95        118.6633
342.40        119.1094
342.85        119.6173
343.30         120.173
343.75        120.7179
344.20        121.1664
344.66         121.502
345.11        121.7181
345.56        121.8708
346.01         122.052
346.46        122.2946
346.91        122.5663
347.36        122.7965
347.81        122.9495
348.26        123.0267
348.72        122.7862
349.17        122.8105
349.62        122.8992
350.07        123.2257
350.52        123.7201
350.97        124.2024
351.42        124.3727
351.87        124.1559
352.32        123.6381
352.77        123.0285
353.22        122.6489
353.67        122.5687
354.13        122.7093
354.58         122.836
355.03         122.629
355.48        122.0244
355.93        121.1411
356.38        120.2125
356.83        119.5841
357.28        119.3194
357.73        119.2932
358.18        119.2849
358.63        118.9475
359.08        118.2007
359.53        117.1741
359.98        116.0482
360.43        115.0897
360.88        114.3701
361.33        113.7991
361.78        113.2859
362.23        112.6952
362.68        111.9823
363.13        111.1975
363.58        110.3733
364.03        109.5472
364.48        108.7372
364.93        107.9341
365.38        107.1259
365.83        106.3049
366.28        105.4741
366.73        104.6335
367.18        103.8352
367.63        103.1569
368.08        102.6025
368.53         102.149
368.98        101.6747
369.43        100.9829
369.88        100.0307
370.33        98.86385
370.78        97.64004
371.23        96.65306
371.68        95.99497
372.13        95.59181
372.58        95.28538
373.03        94.80734
373.48        94.08154
373.93        93.18943
374.38        92.25023
374.83        91.46679
375.28        90.90265
375.72         90.4706
376.17        90.11086
376.62        89.66195
377.07        89.07638
377.52        88.39204
377.97        87.67799
378.42        87.06351
378.87        86.59199
379.32         86.2225
379.77        85.87864
380.22        85.43916
380.67        84.86805
381.11        84.20637
381.56        83.50347
382.01        82.86937
382.46         82.3514
382.91        81.92494
383.36        81.54605
383.81        81.14406
384.26        80.69415
384.71        80.21484
385.15        79.72569
385.60        79.31837
386.05        78.98161
386.50        78.69527
386.95        78.40253
387.40        78.02749
387.85        77.57137
388.29        77.02095
388.74        76.54829
389.19        76.19404
389.64        75.95184
390.09        75.76931
390.54        75.58633
390.98        75.29739
391.43        74.93726
391.88        74.54902
392.33         74.1513
392.78         73.8114
393.23        73.55531
393.67         73.1921
394.12        72.87453
394.57        72.95855
395.02        73.29076
395.47        73.12817
395.91        72.53007
396.36        72.21281
396.81        72.23148
397.26          72.195
397.71        72.02013
398.15          71.755
398.60        71.47173
399.05        71.01614
399.50        70.55231
399.95        70.47414
400.39        70.69241
400.84        70.77357
401.29        70.62545
401.74        70.10706
402.18        69.43024
402.63        69.38785
403.08        69.86104
403.53         69.8327
403.97        69.25208
404.42        68.77384
404.87        68.48341
405.32        68.27631
405.76        68.17027
406.21        68.11973
406.66        68.10826
407.11        68.26405
407.55        68.49841
408.00        68.46592
408.45        68.16771
408.90         67.7543
409.34        67.35953
409.79        67.25026
410.24        67.38491
410.68        67.41814
411.13        67.33184
411.58        67.36471
412.03        67.48706
412.47        67.52132
412.92        67.41988
413.37        67.25331
413.81        67.06482
414.26         66.9681
414.71        66.96813
415.15        67.05265
415.60        67.14783
416.05        67.18732
416.49        67.15252
416.94        67.05773
417.39        66.95619
417.83        66.92161
418.28        66.97005
418.73         67.0666
419.17         67.1614
419.62        67.18729
420.07        67.13158
420.51        67.02116
420.96        66.91217
421.41        66.85774
421.85        66.85498
422.30        66.86716
422.74        66.88005
423.19        67.13319
423.64        67.53307
424.08        67.72492
424.53        67.66221
424.98         67.7243
425.42        67.93343
425.87        68.05737
426.31        68.09465
426.76        68.09448
427.21        68.09163
427.65        68.24059
428.10         68.4475
428.54        68.48878
428.99        68.40086
429.44        68.25376
429.88        68.08675
430.33        68.14237
430.77        68.31491
431.22        68.33232
431.66        68.20921
432.11        68.42226
432.56         68.9176
433.00        68.87325
433.45        68.18584
433.89        68.04353
434.34        68.56977
434.78        67.97398
435.23        68.04741
435.67        68.63026
436.12        69.72362
436.57        69.81179
437.01        68.91995
437.46        68.69767
437.90        70.06563
438.35        68.99812
438.79        70.05369
439.24        69.91441
439.68        69.90436
440.13         69.7368
440.57        69.53657
441.02        69.80561
441.46        70.35811
441.91        70.38476
442.35        69.96434
442.80        70.24749
443.24        71.06349
443.69        71.30527
444.13        70.93032
444.58        70.72188
445.02        70.78294
445.47        70.85386
445.91        71.18744
446.36        71.45213
446.80         71.3323
447.24        71.26855
447.69        71.22534
448.13        71.43972
448.58        71.65564
449.02        71.69229
449.47         71.5207
449.91        71.47524
450.36        71.58972
450.80        71.58472
451.25        71.49954
451.69         71.5766
452.13        71.76196
452.58        71.68729
453.02        71.39451
453.47         71.2689
453.91        71.31645
454.36        71.35721
454.80        71.34103
455.24        71.21552
455.69        70.96479
456.13        70.71689
456.58        70.63022
457.02        70.21146
457.46        70.22728
457.91        70.64885
458.35        70.41982
458.79        70.44993
459.24        70.40034
459.68        70.24308
460.13        69.99893
460.57        69.82639
461.01        69.80851
461.46        69.45674
461.90        69.09898
462.34        69.53648
462.79        69.14758
463.23        69.11263
463.68        69.49257
464.12        69.16837
464.56        68.50603
465.01        68.58132
465.45        69.21047
465.89        69.32104
466.34        68.91929
466.78        68.77415
467.22        68.96521
467.67        68.52884
468.11        68.43538
468.55        68.33535
468.99        68.45838
469.44        68.43344
469.88        68.24857
470.32        68.05929
470.77        67.90875
471.21        67.81951
471.65        67.80097
472.10        67.84701
472.54        67.89321
472.98        67.86805
473.42        67.76176
473.87        67.59605
474.31        67.37161
474.75        67.28796
475.20        67.33333
475.64        67.23376
476.08        66.99219
476.52        67.21091
476.97        66.95184
477.41        67.12526
477.85        67.45705
478.29        67.02235
478.74        66.50348
479.18        67.21233
479.62        66.88284
480.06        67.05648
480.50         66.9875
480.95        67.07186
481.39        67.26122
481.83        67.06918
482.27        67.30604
482.72        67.14183
483.16        67.20418
483.60        67.15124
484.04        67.41253
484.48         67.2988
484.93        67.69227
485.37        66.79904
485.81        67.85914
486.25        66.72166
486.69        67.61752
487.14        67.64836
487.58        67.61236
488.02        67.00771
488.46        66.50455
488.90        67.07854
489.34         66.6797
489.79        66.12693
490.23        66.58223
490.67        66.72133
491.11         66.9842
491.55        66.93687
491.99        66.66595
492.43        66.56377
492.88        66.63976
493.32        66.68414
493.76        66.61474
494.20        66.55904
494.64        66.54698
495.08         66.1612
495.52        65.95789
495.96         66.1191
496.41        66.61632
496.85        66.49931
497.29        65.84577
497.73        65.85566
498.17        66.16171
498.61        66.38166
499.05        66.30999
499.49        66.17397
499.93        66.06076
500.37        65.99879
500.82        66.02003
501.26        66.25787
501.70        66.76451
502.14        66.38506
502.58        65.84657
503.02        65.56243
503.46         65.6883
503.90        65.79135
504.34        65.78279
504.78        65.77824
505.22        65.77557
505.66        65.68276
506.10        65.52756
506.54        65.55956
506.98        65.83067
507.42        65.39759
507.86        66.00856
508.30        65.79136
508.74        65.97409
509.18        65.93027
509.62        65.89324
510.06        65.87807
510.50        65.85893
510.94        65.76117
511.38        65.59509
511.82        65.47462
512.26        65.41454
512.70        65.35411
513.14        65.28402
513.58         65.2515
514.02        65.26556
514.46         65.1427
514.90        65.18176
515.34        65.18649
515.78        65.25874
516.22        65.28447
516.66        65.07854
517.10        65.54407
517.54        65.24036
517.98        65.30363
518.42        65.30913
518.86        65.29472
519.30        65.25943
519.74        65.16991
520.18        65.08607
520.62        65.16592
521.06        65.36944
521.50        65.44523
521.93        65.37243
522.37        65.32549
522.81        65.30827
523.25        65.20822
523.69        65.06009
524.13        64.97975
524.57         64.9826
525.01        65.03268
525.45        65.10928
525.89        65.17802
526.32        65.22147
526.76        65.25755
527.20        65.27595
527.64        65.26225
528.08        65.21746
528.52        65.14624
528.96        65.07476
529.40        65.03754
529.83        65.04006
530.27        65.10512
530.71        65.18725
531.15        65.21006
531.59        65.16025
532.03        65.06445
532.46        64.96103
532.90         64.9235
533.34        64.95699
533.78        65.04996
534.22        65.15765
534.66        65.17214
535.09        65.06291
535.53        65.03967
535.97        64.85585
536.41        64.79745
536.85        64.79879
537.28        64.84215
537.72        64.90411
538.16         64.9547
538.60        64.98077
539.04        64.99156
539.47        64.96731
539.91        64.93013
540.35        64.86936
540.79        64.79031
541.22        64.70802
541.66        64.66493
542.10        64.66234
542.54        64.68174
542.97        64.70912
543.41        64.75365
543.85         64.8053
544.29        64.88029
544.72        64.92708
545.16        64.92343
545.60         64.8563
546.04        64.65635
546.47        64.43807
546.91         64.5423
547.35        64.89816
547.79        65.12997
548.22        65.13949
548.66        64.99862
549.10        64.78472
549.53        64.69492
549.97         64.7457
550.41        64.71859
550.84        64.62847
551.28        64.61374
551.72        64.65589
552.15        64.73993
552.59        64.87715
553.03        64.63153
553.46        64.87762
553.90        64.76433
554.34        64.50703
554.77         64.7061
555.21        64.47932
555.65        64.32079
556.08        64.49122
556.52        64.58456
556.96        64.70335
557.39        64.78046
557.83        64.81842
558.27        64.77772
558.70        64.69291
559.14        64.64855
559.57        64.64007
560.01        64.73856
560.45         64.8616
560.88        64.73605
561.32        64.47871
561.75        64.39944
562.19        64.53654
562.63        64.67522
563.06        64.73763
563.50        64.67351
563.93        64.49932
564.37        64.35535
564.80        64.28266
565.24        64.40688
565.68        64.66431
566.11        64.78687
566.55        64.76501
566.98        64.79569
567.42        64.88849
567.85        64.76794
568.29        64.54814
568.72        64.57601
569.16        64.88094
569.60        64.91107
570.03        64.95558
570.47        65.05006
570.90        65.22725
571.34        65.09972
571.77        65.36778
572.21        65.15466
572.64         64.9389
573.08        65.00893
573.51        65.15682
573.95         65.6343
574.38         65.2948
574.82        65.60102
575.25        65.65637
575.69        65.38214
576.12        65.07706
576.56        65.49556
576.99        65.55387
577.42        65.60182
577.86        65.55967
578.29        65.83657
578.73        66.25272
579.16         65.7875
579.60        65.39206
580.03        65.35742
580.47        65.40103
580.90         65.6945
581.33        65.62832
581.77         65.7875
582.20        66.16357
582.64        66.39851
583.07        65.80466
583.51        65.46001
583.94        65.24137
584.37        65.52943
584.81        64.99082
585.24        65.01495
585.68        65.62867
586.11         65.2505
586.54        65.34508
586.98        65.49471
587.41        65.29017
587.85        65.72538
588.28        65.74701
588.71        65.42809
589.15        65.34054
589.58        65.35353
590.01        65.07071
590.45        64.64711
590.88        65.02666
591.31        64.66634
591.75        64.66114
592.18        64.68209
592.61        64.88982
593.05         65.4207
593.48        65.19987
593.91        65.38403
594.35        65.30127
594.78        65.09458
595.21        65.16679
595.65        65.21754
596.08        65.36677
596.51        65.19308
596.94        65.08597
597.38        64.97648
597.81         65.0186
598.24        65.19298
598.68        65.13147
599.11        65.23512
599.54        65.24792
599.97        65.20498
600.41        65.36179
600.84        65.60364
601.27        65.40526
601.70        65.39599
602.14        64.95513
602.57        64.87661
603.00        64.96234
603.43         65.2841
603.87        65.48582
604.30        65.30895
604.73        65.14573
605.16        65.35599
605.60        65.14857
606.03        65.30818
606.46        65.51732
606.89        65.22244
607.32        64.76316
607.76        65.31194
608.19        65.17957
608.62        65.02601
609.05        65.93308
609.48        65.24517
609.92         65.4915
610.35        65.37492
610.78        65.31501
611.21        65.09181
611.64        65.19521
612.07        65.09933
612.50        65.16617
612.94        65.20695
613.37        65.13895
613.80        65.15564
614.23          65.201
614.66        65.00577
615.09        64.98151
615.52        64.90527
615.96         64.7937
616.39         64.6784
616.82        64.49198
617.25        64.88841
617.68        64.73137
618.11        64.71273
618.54        64.68647
618.97        64.59496
619.40        64.55989
619.84        64.46433
620.27        64.70334
620.70        64.75395
621.13        64.81846
621.56        64.44471
621.99         64.5526
622.42         65.0929
622.85        64.94157
623.28        64.81897
623.71        64.83375
624.14        64.85675
624.57        64.91762
625.00        65.04189
625.43        64.66032
625.86        64.64381
626.29        64.83269
626.72        64.51923
627.15        64.47292
627.58        64.41061
628.01        64.56878
628.44        64.47064
628.87        64.37182
629.30        64.69311
629.73        64.35446
630.16        64.65379
630.59        64.22568
631.02        64.51997
631.45        64.29753
631.88        64.34845
632.31        64.41897
632.74         64.2015
633.17         64.3551
633.60         64.2998
634.03         64.2379
634.46        64.21696
634.89        64.14675
635.32        64.12601
635.75        64.12006
636.18        64.13197
636.61        64.15106
637.04        64.16344
637.47        64.16668
637.89        64.17196
638.32        64.16969
638.75        64.17075
639.18        64.17784
639.61        64.18736
640.04        64.20431
640.47        64.23823
640.90        64.28683
641.33        64.34321
641.76        64.39271
642.18        64.41872
642.61         64.4014
643.04        64.35597
643.47        64.29012
643.90        64.22134
644.33        64.15855
644.76         64.0878
645.18        64.02313
645.61        64.00506
646.04        64.02524
646.47        64.02624
646.90        64.00272
647.33        63.99828
647.75        64.00501
648.18        63.99997
648.61        64.00763
649.04        64.04787
649.47        64.07748
649.89        64.33083
650.32        64.12161
650.75        64.19104
651.18        64.29781
651.61        64.26175
652.03        64.12274
652.46        63.98785
652.89        63.91687
653.32        64.11105
653.74        64.39587
654.17        64.29286
654.60        64.17707
655.03        64.09958
655.46        64.29117
655.88        64.29417
656.31        65.31084
656.74        68.80326
657.16        67.74509
657.59        66.27122
658.02        64.26479
658.45        64.36134
658.87        64.11627
659.30        64.35587
659.73        64.39148
660.15        64.27274
660.58        64.42475
661.01        64.48029
661.44        64.52158
661.86        64.39741
662.29        64.14034
662.72        63.91508
663.14        63.79969
663.57        63.84832
664.00        64.02355
664.42        64.14933
664.85        64.20821
665.27        64.18106
665.70        64.27006
666.13        64.26671
666.55        64.23739
666.98        64.17252
667.41        64.09457
667.83        64.05386
668.26        64.07267
668.69        64.08741
669.11         64.0592
669.54        64.15044
669.96        64.40171
670.39        63.90939
670.82        64.24479
671.24         64.2131
671.67        64.25886
672.09        64.34647
672.52        64.46191
672.94        64.42828
673.37        64.27566
673.80        64.23381
674.22        64.31747
674.65        64.32846
675.07        64.28403
675.50        64.28819
675.92        64.33971
676.35        64.36004
676.77        64.34238
677.20        64.32301
677.62        64.33018
678.05        64.33255
678.47         64.3202
678.90        64.53942
679.32        64.51656
679.75        64.59306
680.17        64.62614
680.60          64.637
681.02        64.62553
681.45        64.60321
681.87        64.58611
682.30        64.52616
682.72         64.4662
683.15        64.51391
683.57        64.62296
684.00        64.71645
684.42        64.48692
684.85        64.45105
685.27        64.51325
685.70        64.54836
686.12        64.52905
686.54        64.54185
686.97         64.5965
687.39        64.62046
687.82        64.58347
688.24        64.75954
688.66        64.82919
689.09        64.71416
689.51        64.88052
689.94        64.91724
690.36        64.97559
690.78          65.004
691.21        65.00746
691.63        64.94349
692.06        64.85461
692.48        64.88249
692.90        65.00063
693.33        65.03955
693.75        64.99982
694.17        64.92592
694.60        64.82554
695.02        64.91395
695.44        64.89929
695.87        64.82668
696.29        64.68454
696.71        64.66028
697.14        64.76079
697.56        65.01852
697.98        65.35785
698.41        65.26791
698.83         65.3784
699.25        65.22144
699.68        65.03664
700.10        64.88409
700.52        64.79776
700.94        64.75537
701.37        64.73715
701.79        64.77179
702.21        64.83281
702.64        64.92662
703.06        65.02968
703.48        65.10911
703.90        65.15781
704.33        65.17337
704.75        65.16912
705.17        65.15195
705.59        65.12868
706.01        65.09587
706.44        65.06672
706.86        65.08176
707.28        65.13435
707.70        65.21941
708.12        65.31706
708.55        65.38349
708.97        65.40049
709.39         65.3862
709.81        65.35799
710.23         65.3512
710.66        65.37894
711.08        65.44395
711.50        65.50669
711.92        65.52458
712.34        65.49029
712.76        65.41273
713.19        65.32938
713.61        65.35041
714.03        65.46677
714.45        65.66264
714.87        65.86824
715.29        65.93097
715.71        65.81932
716.13        65.74691
716.56        65.46277
716.98        65.38158
717.40        65.43299
717.82        65.58434
718.24        65.77181
718.66         65.8948
719.08        65.92609
719.50        65.89726
719.92        65.84621
720.34        65.82939
720.76        65.86376
721.19        65.91726
721.61        65.99125
722.03        66.06158
722.45         66.1186
722.87        66.17023
723.29        66.21286
723.71        66.23808
724.13        66.24559
724.55         66.2347
724.97        66.21671
725.39         66.2123
725.81        66.22777
726.23         66.2605
726.65        66.29839
727.07        66.32485
727.49         66.3381
727.91        66.33241
728.33        66.32494
728.75        66.37539
729.17        66.47391
729.59        66.53718
730.01        66.56599
730.43        66.61997
730.85        66.69445
731.27        66.74731
731.69        66.77517
732.10        66.71974
732.52        66.79221
732.94         66.6138
733.36        66.31236
733.78        66.18439
734.20         66.2756
734.62        66.36275
735.04        66.37016
735.46        66.66682
735.88        66.53883
736.30        66.55776
736.72        66.53528
737.13         66.5406
737.55        66.54585
737.97        66.54354
738.39        66.55454
738.81        66.64816
739.23        66.80971
739.65        66.90428
740.06        66.87532
740.48        66.90855
740.90        66.98595
741.32        66.79675
741.74        66.80885
742.16        66.74303
742.57        66.76095
742.99        66.81261
743.41         66.8859
743.83        66.92819
744.25        66.92164
744.67        66.88053
745.08        66.85506
745.50         66.8821
745.92        66.98712
746.34        67.15758
746.75        67.32439
747.17        67.37428
747.59        67.28685
748.01        67.05872
748.42        66.80843
748.84        66.75323
749.26        66.89036
749.68        67.11221
750.09        67.29944
750.51        67.16123
750.93        66.78712
751.35        66.72089
751.76        66.94292
752.18        66.93797
752.60        66.69374
753.01        66.64197
753.43        66.58662
753.85        66.58608
754.27        66.58249
754.68         66.6035
755.10        66.65427
755.52        66.72092
755.93         66.8022
756.35        66.90504
756.77        67.01339
757.18        67.07977
757.60        67.09474
758.02        67.07962
758.43         67.1245
758.85        67.01077
759.26        67.53509
759.68        67.61604
760.10        67.31546
760.51        66.92303
760.93        67.23683
761.34        67.32005
761.76        67.38724
762.18        67.43546
762.59        67.41158
763.01        67.54221
763.42        66.98754
763.84         67.1163
764.26        67.34171
764.67        67.77121
765.09        68.16071
765.50        68.28211
765.92         68.1581
766.33         67.9381
766.75        67.69421
767.16        67.57294
767.58        67.56533
768.00        67.71912
768.41        67.98094
768.83        68.02267
769.24        67.80717
769.66        67.94704
770.07        67.65839
770.49        67.59573
770.90        67.53478
771.32        67.45695
771.73        67.39755
772.15        67.43646
772.56        67.59688
772.97        67.83652
773.39        68.06281
773.80        68.20927
774.22        68.21219
774.63        68.11111
775.05        67.95583
775.46        67.88301
775.88        67.90385
776.29        68.01085
776.70        68.11796
777.12        68.09519
777.53        67.93914
777.95        67.69507
778.36        67.45722
778.77        67.36292
779.19        67.44904
779.60        67.67518
780.02        67.97098
780.43        68.26108
780.84         68.5071
781.26        68.65623
781.67        68.75382
782.09        68.92104
782.50         69.1014
782.91        69.06792
783.33        68.82536
783.74        68.68216
784.15        68.63738
784.57        68.56123
784.98        68.48009
785.39        68.47388
785.81        68.54553
786.22        68.67014
786.63         68.8124
787.04        68.91507
787.46        68.97349
787.87        68.97832
788.28        68.96337
788.70        68.96872
789.11        68.98321
789.52        69.02009
789.93        69.07497
790.35        69.08666
790.76        69.09152
791.17        69.20724
791.58        69.39098
792.00         69.4847
792.41         69.5086
792.82        69.44543
793.23        69.39116
793.65        69.63778
794.06        70.14034
794.47        70.45893
794.88        70.51566
795.29        70.61124
795.71        70.59955
796.12        70.41056
796.53        70.05503
796.94          69.866
797.35        69.84361
797.76        69.67784
798.18         69.4094
798.59        69.32745
799.00         69.4408
799.41        69.60422
799.82        69.74516
800.23        69.81155
800.64         69.7752
801.06        69.62247
801.47         69.4612
801.88        69.39616
802.29        69.46273
802.70        69.63562
803.11        69.84945
803.52        69.98877
803.93        70.01891
804.34        69.96774
804.75        69.91154
805.17        69.95664
805.58         70.1506
805.99        70.45562
806.40        70.76774
806.81        70.86987
807.22        70.74236
807.63        70.54153
808.04        70.36502
808.45        70.28852
808.86        70.34984
809.27        70.54446
809.68        70.79502
810.09        70.93817
810.50        70.92815
810.91        70.82666
811.32        70.65765
811.73        70.45861
812.14        70.25798
812.55        70.03693
812.96        69.86244
813.37        69.85149
813.78        70.01773
814.19        70.33011
814.60        70.66143
815.01        70.80893
815.42        70.73137
815.83        70.48136
816.24        70.17783
816.65        70.05246
817.05        70.18159
817.46        70.45388
817.87        70.79651
818.28         71.0583
818.69         71.1938
819.10        71.25658
819.51        71.25548
819.92        71.20317
820.33        71.11784
820.74        70.98196
821.14        70.85007
821.55        70.83466
821.96        70.93996
822.37        71.14821
822.78        71.36301
823.19        71.40652
823.60        71.23349
824.00        70.91044
824.41        70.51873
824.82        70.27495
825.23        70.24226
825.64        70.37151
826.04         70.5951
826.45        70.76066
826.86        70.84125
827.27        70.88587
827.68        70.93833
828.08        71.09493
828.49        71.29881
828.90        71.53921
829.31         71.7999
829.72        71.98956
830.12        72.09154
830.53        72.41805
830.94        72.32121
831.35        72.14086
831.75        71.71876
832.16        71.09464
832.57        70.47714
832.97        70.20357
833.38        70.34653
833.79        70.79649
834.20        71.37101
834.60        71.78834
835.01        71.96368
835.42        71.97494
835.82        71.88236
836.23        71.74274
836.64        71.61656
837.04        71.48795
837.45        71.36822
837.86        71.34686
838.26        71.44766
838.67        71.64488
839.08        71.89478
839.48        72.09862
839.89        72.21629
840.29        72.26947
840.70        72.28616
841.11        72.32217
841.51        72.40601
841.92        72.47597
842.33        72.52172
842.73        72.52683
843.14        72.44341
843.54          72.328
843.95         72.1871
844.35        72.05115
844.76        71.93062
845.17        71.83021
845.57        71.79617
845.98        71.86328
846.38        72.06015
846.79        72.34174
847.19        72.67116
847.60        72.90784
848.00         73.0489
848.41        73.08019
848.81        73.08633
849.22        73.13984
849.62        73.29932
850.03        73.49294
850.43        73.68906
850.84        73.73463
851.24        73.65188
851.65         73.4147
852.05        73.15642
852.46        73.00095
852.86        72.99628
853.27        73.14828
853.67        73.27666
854.07        73.27435
854.48        73.08827
854.88         72.7831
855.29        72.44798
855.69        72.42547
856.10        72.69193
856.50        73.23722
856.90        73.79886
857.31        73.98892
857.71        73.76836
858.12        73.19739
858.52        72.48882
858.92        71.93401
859.33        71.63232
859.73        71.55372
860.13        71.63165
860.54        71.75105
860.94        71.91954
861.34        72.13129
861.75        72.32604
862.15        72.47379
862.55        72.51897
862.96        72.44037
863.36        72.27898
863.76        72.06721
864.17         71.8214
864.57         71.5715
864.97        71.31738
865.38        71.03849
865.78         70.7874
866.18         70.5755
866.58        70.45998
866.99        70.50748
867.39        70.75842
867.79        71.14931
868.19        71.57849
868.60        71.82526
869.00        71.90779
869.40        72.01517
869.80        72.10027
870.21         71.9232
870.61        71.54218
871.01        71.07732
871.41        70.60146
871.81        70.13527
872.22        69.71431
872.62        69.35562
873.02        69.11938
873.42        69.24594
873.82        69.58675
874.22        69.67316
874.63        69.63271
875.03        69.75395
875.43        70.03429
875.83        71.07533
876.23        70.67714
876.63        70.24185
877.03        69.57428
877.44        68.16857
877.84         156.257
878.24        69.22793
878.64        69.53282
879.04        70.28194
879.44        70.20972
879.84         67.0984
880.24        71.38492
880.64        71.72832
881.04        70.02146
881.44         68.8817
881.84          68.705
882.24        69.56251
882.65         70.7897
883.05        71.07499
883.45        70.16708
883.85        68.82035
884.25        67.57506
884.65        66.97173
885.05        67.19233
885.45        68.00151
885.85        69.00788
886.25        69.66035
886.65        69.81332
887.05        69.64802
887.45        69.31181
887.85        69.04494
888.25        68.95061
888.65        68.93463
889.04        69.01494
889.44        69.24435
889.84        69.59023
890.24        70.02168
890.64        70.43204
891.04        70.65692
891.44        70.66103
891.84        70.49216
892.24        70.18299
892.64        69.80656
893.04        69.42443
893.44        69.04868
893.83        68.77185
894.23        68.69117
894.63        68.83578
895.03         69.1952
895.43        69.67408
895.83        70.09862
896.23        70.39741
896.63         70.5646
897.02        70.66305
897.42        70.87416
897.82        71.18581
898.22        71.54493
898.62        71.78371
899.01        71.64524
899.41        71.08337
899.81        70.23459
900.21        69.34527
900.61        68.81129
901.00        68.72963
901.40        69.03614
901.80        69.57632
902.20        69.98902
902.59         70.1544
902.99        70.36996
903.39        70.72896
903.79        70.00951
904.18         70.4216
904.58        70.19645
904.98        69.96124
905.38        69.63722
905.77         69.2336
906.17         68.8058
906.57        68.44591
906.96        68.38575
907.36        68.65898
907.76        69.21902
908.15        69.90298
908.55        70.28437
908.95        70.30524
909.34        70.01463
909.74        69.66983
910.14        69.65298
910.53        70.04766
910.93         70.7253
911.33        71.38455
911.72        71.55428
912.12        71.14861
912.52        70.32125
912.91        69.40523
913.31        68.99747
913.70        69.21481
914.10        69.90417
914.49        70.73237
914.89        71.04601
915.29        70.71426
915.68        69.91579
916.08        69.08748
916.47        68.86581
916.87        69.41319
917.26        70.50067
917.66        71.68989
918.05        72.30779
918.45        72.15892
918.84        71.46616
919.24        70.58865
919.64        70.17231
920.03        70.38855
920.42        71.00918
920.82        71.69579
921.21        71.93442
921.61        71.61766
922.00        70.99239
922.40        70.37098
922.79        70.12072
923.19        70.03698
923.58        70.71056
923.98        72.27795
924.37        72.50519
924.77        70.21927
925.16        76.71301
925.55        71.68023
925.95        72.06453
926.34         72.1033
926.74        71.60811
927.13        70.58871
927.52        70.04542
927.92           70.37
928.31        71.02358
928.70        71.75733
929.10        72.13725
929.49        72.10372
929.89        71.80708
930.28        71.38652
930.67         70.9796
931.07        70.69399
931.46        70.39788
931.85        70.22691
932.24           70.77
932.64         72.0145
933.03         73.2957
933.42        73.96966
933.82        75.73598
934.21        74.32615
934.60        73.09732
934.99        71.76569
935.39        71.16768
935.78         71.3821
936.17        72.76377
936.56        77.92007
936.96        71.96622
937.35        75.29803
937.74        72.82565
938.13        71.21506
938.53        69.89589
938.92        69.38619
939.31        70.13317
939.70        71.24009
940.09        71.86526
940.49        71.80288
940.88        71.38725
941.27         70.8554
941.66        70.63506
942.05        70.88307
942.44        71.38634
942.84         71.9418
943.23        72.37117
943.62        72.59035
944.01        72.65099
944.40        72.64449
944.79        72.70853
945.18        72.87025
945.57        73.08308
945.97        73.16927
946.36        72.96685
946.75        72.41535
947.14        71.59742
947.53        70.76946
947.92        70.36593
948.31        70.50028
948.70        71.04037
949.09        71.71128
949.48        72.07939
949.87        72.03943
950.26        71.72881
950.65        71.32071
951.04        71.10341
951.43        71.16299
951.82        71.37793
952.21        71.67313
952.60        71.93762
952.99         72.0967
953.38        72.17915
953.77        72.14053
954.16        71.89504
954.55        71.45064
954.94        70.85625
955.33        70.19543
955.72        69.64443
956.11        69.30032
956.50        69.13505
956.89        69.21133
957.28        69.59592
957.66        70.28313
958.05         71.1614
958.44          72.013
958.83        72.51301
959.22        72.58345
959.61        72.25337
960.00        71.72691
960.39        71.42459
960.78        71.47616
961.16        71.80532
961.55         72.0855
961.94        71.92381
962.33        71.26049
962.72        70.22781
963.11        69.15116
963.49        68.70565
963.88        69.08794
964.27        70.03286
964.66        71.14559
965.04        71.90994
965.43        72.14087
965.82        72.04063
966.21        71.68837
966.60        71.23554
966.98        70.78722
967.37        70.27975
967.76        69.86544
968.15        69.79373
968.53        70.13013
968.92        70.82269
969.31        71.62194
969.69        72.08649
970.08        72.04756
970.47        71.55527
970.86        70.91582
971.24        70.68365
971.63        70.96848
972.02        71.63943
972.40        72.23354
972.79        71.97089
973.17        70.80173
973.56        68.97839
973.95        67.19847
974.33        66.68721
974.72        67.75102
975.11         69.9618
975.49        72.63091
975.88        74.53836
976.26        75.36351
976.65        75.37553
977.04        74.88708
977.42         74.3468
977.81        73.88315
978.19        73.29104
978.58        72.86584
978.96        73.08208
979.35        73.93964
979.74        75.27615
980.12        76.56966
980.51        76.96037
980.89         76.4464
981.28        75.12118
981.66        73.39446
982.05        72.33981
982.43        72.39342
982.82        73.31667
983.20        74.55851
983.59        75.21521
983.97        75.10481
984.35        74.44248
984.74        73.57835
985.12        73.21707
985.51         73.5022
985.89        74.23121
986.28        74.98331
986.66        75.23129
987.04        74.91322
987.43        74.13367
987.81          73.034
988.20        73.13839
988.58        74.77615
988.96        75.38364
989.35        74.17596
989.73        79.39115
990.12        76.62782
990.50        76.90348
990.88        76.50036
991.27        76.08841
991.65        75.69737
992.03        75.41523
992.42        75.31136
992.80        75.06354
993.18        74.64661
993.56        74.22642
993.95        73.94643
994.33        73.97445
994.71        74.36016
995.10        74.99806
995.48         75.8192
995.86        76.69757
996.24        77.53534
996.63        78.25163
997.01        78.84078
997.39        79.11682
997.77        79.03973
998.15        78.63855
998.54        78.08133
998.92        77.53513
999.30        77.11919
999.68        76.87593
1000.06        76.69917
1000.45        76.33561
1000.83         75.8576
1001.21        75.30653
1001.59        75.05925
1001.97        75.62376
1002.35        76.94131
1002.73        78.71629
1003.12        80.34284
1003.50        81.10113
1003.88        80.87527
1004.26        79.82018
1004.64        78.39155
1005.02        77.57786
1005.40        77.73655
1005.78        78.60493
1006.16        79.58411
1006.54         79.6174
1006.92        78.49702
1007.30        76.74229
1007.69        74.87491
1008.07        73.67213
1008.45        73.32071
1008.83        73.52693
1009.21        74.42419
1009.59        76.16795
1009.97        78.40485
1010.35        80.78902
1010.73        82.68822
1011.11        83.66568
1011.49        83.84055
1011.86        83.08319
1012.24        81.49876
1012.62        82.19344
1013.00        83.09676
1013.38        83.79306
1013.76        82.96586
1014.14         86.0932
1014.52        90.10067
1014.90        83.73639
1015.28        83.66963
1015.66         84.3882
1016.04        81.79966
1016.41        82.98525
1016.79        83.44236
1017.17        83.83746
1017.55        83.57628
1017.93        83.00877
1018.31        82.53439
1018.69        82.41574
1019.06        82.80419
1019.44        83.50544
1019.82        84.13433
1020.20        84.15102
1020.58        83.43777
1020.95        81.96761
1021.33        80.19814
1021.71        79.43208
1022.09        80.29301
1022.46         82.1088
1022.84        83.90654
1023.22        85.03003
1023.60        85.52274
1023.97        85.64397
1024.35        85.56306
1024.73        85.57007
