SpectraSmart Spectrum 2.9.0.0
--------- Device Information -----------
Spectrum Name :  反射率_0
Saving Time :  2024/04/21 00:42:34
Spectro-Module Model Name : SE2030-DUVN
Spectro-Module Serial Number : OS361AC55029948
Wavelength Start : 200
Wavelength End : 1025
Wavelength Unit : Wavelength(nm)
Spectrum Unit : Reflectance(%)
-----------Spectrum Setting ------------
Integration Time : 20ms
Average : 10
Boxcar : 0
Background removal :  enabled
linearity correction :  enabled
SC :  disabled
Intensity correction :  disabled
DWT denoise :  enabled
savitzky-golay :  disabled
FFT :  disabled
Running average :  disabled
Kalman :  disabled
High pass :  disabled
---------------BEGIN--------------------
Wavelength(nm)             Reflectance(%)
200.29               0
200.75       -16.63906
201.21        22.29258
201.67        43.48289
202.13         50.9464
202.58        50.24928
203.04        45.37741
203.50        36.93462
203.96        27.73777
204.42        20.54614
204.88        13.76045
205.34        9.636353
205.80        11.01249
206.26        18.99158
206.72         37.4567
207.18         59.1691
207.64        63.54438
208.10        42.18047
208.55        0.821132
209.01       -32.01187
209.47       -18.75333
209.93        15.06458
210.39        45.14111
210.85        64.84536
211.31        72.75597
211.77        71.55846
212.23        61.93855
212.69        40.84899
213.14        9.166256
213.60       -30.34124
214.06       -106.8599
214.52       -211.7435
214.98       -48.49179
215.44        14.49662
215.90        33.27379
216.36        38.26424
216.81        35.90574
217.27        24.90961
217.73       -27.49495
218.19        591.7855
218.65        252.8012
219.11       -432.3617
219.57        14.34397
220.02        41.58331
220.48         44.3186
220.94        37.36623
221.40        17.19098
221.86       -29.24671
222.32        -58.8333
222.77       -16.94533
223.23         19.6087
223.69        38.26623
224.15        45.06208
224.61        45.82376
225.06        43.81032
225.52        39.78275
225.98        34.30925
226.44        28.06158
226.90        19.94999
227.36        13.53048
227.81        15.66811
228.27        23.75479
228.73        32.94617
229.19        39.00646
229.65        39.54494
230.10        35.26534
230.56        27.53149
231.02        17.64701
231.48        11.08937
231.93        11.76716
232.39         17.5646
232.85        24.07206
233.31        27.54428
233.77        28.14383
234.22        27.49321
234.68        26.08732
235.14        24.79048
235.60        24.30358
236.05        23.55527
236.51        22.51533
236.97        26.97165
237.43         37.0942
237.88        43.13107
238.34        41.21155
238.80        61.80817
239.26          51.429
239.71        49.43069
240.17        41.65652
240.63         34.0266
241.08        30.57868
241.54        34.50817
242.00        45.68215
242.46        54.25187
242.91        58.19552
243.37        58.57998
243.83        56.74142
244.28        57.33067
244.74        62.10268
245.20        67.82797
245.66        71.32206
246.11        69.66249
246.57         62.7754
247.03        51.93628
247.48        38.64994
247.94        25.32943
248.40         10.3842
248.85       -18.35533
249.31       -95.52757
249.77       -144.0859
250.22       -23.59316
250.68        23.38612
251.14        37.79977
251.59        41.52805
252.05        40.98555
252.51        37.73459
252.96        31.23637
253.42        24.41299
253.88        21.27775
254.33         21.8801
254.79        27.69577
255.25        37.12847
255.70        46.24555
256.16        53.51204
256.62        58.14721
257.07        59.88486
257.53         59.9903
257.99        59.07664
258.44        57.42081
258.90        55.90558
259.35         54.1815
259.81        52.56063
260.27         50.9455
260.72        49.36354
261.18        48.14093
261.63        47.04665
262.09        46.09491
262.55        44.92683
263.00        43.48735
263.46         42.0414
263.91        40.67415
264.37        39.86965
264.83        39.54265
265.28          39.455
265.74        39.42116
266.19        39.04264
266.65        38.30814
267.11        37.30068
267.56          36.116
268.02        34.98129
268.47        33.92944
268.93        32.94672
269.38        31.98499
269.84        31.02597
270.30        30.06766
270.75        29.15182
271.21        28.35798
271.66         27.7305
272.12        27.29088
272.57        26.98063
273.03        26.74314
273.48        26.47564
273.94        26.15598
274.39        25.76534
274.85        25.34042
275.31        24.88198
275.76        24.39491
276.22        23.91863
276.67        23.43582
277.13        22.98511
277.58        22.55017
278.04         22.1507
278.49        21.78969
278.95        21.52892
279.40        21.32901
279.86        21.19348
280.31        21.02433
280.77        20.75024
281.22         20.3395
281.68        19.87655
282.13        19.40549
282.59        19.05632
283.04        18.83207
283.50        18.70455
283.95        18.65338
284.41        18.66561
284.86        18.72002
285.32        18.83798
285.77        18.95081
286.22        18.96525
286.68        18.89412
287.13         18.7283
287.59         18.6235
288.04        18.71591
288.50        18.99065
288.95        19.52179
289.41        20.18779
289.86          20.306
290.32        19.76449
290.77        20.65478
291.22        19.70437
291.68        19.86088
292.13        20.17854
292.59        20.69195
293.04        21.34552
293.50        22.12559
293.95        23.02603
294.40        24.02896
294.86        25.09971
295.31        26.16861
295.77        27.22033
296.22        28.25914
296.68        29.33087
297.13        30.50565
297.58        31.82182
298.04        33.27296
298.49         34.8464
298.95        36.53326
299.40        38.30301
299.85        40.15863
300.31        42.07348
300.76        43.98758
301.21        45.88821
301.67        47.79413
302.12        49.70842
302.58        51.74268
303.03        53.88662
303.48        56.15952
303.94        58.50364
304.39        60.77581
304.84        62.95113
305.30        65.07081
305.75          67.175
306.20        69.43391
306.66        71.85722
307.11        74.32269
307.57        76.72141
308.02        78.82066
308.47        80.60751
308.93        82.19878
309.38        83.65771
309.83        85.14396
310.29        86.76228
310.74        88.39129
311.19        90.01936
311.65        91.59023
312.10        93.05907
312.55        94.45127
313.00        95.74266
313.46        96.89406
313.91        97.88617
314.36        98.73764
314.82        99.50304
315.27        100.2639
315.72        101.0569
316.18        101.8705
316.63        102.6744
317.08        103.4167
317.53        104.0757
317.99        104.6581
318.44        105.1897
318.89        105.6946
319.35        106.1798
319.80        106.6518
320.25        107.0741
320.70        107.3971
321.16        107.6087
321.61        107.7397
322.06         107.872
322.51        108.1431
322.97         108.564
323.42        109.1392
323.87        109.7248
324.32        110.0977
324.78         110.187
325.23         110.094
325.68        109.9664
326.13         110.083
326.59        110.4843
327.04        111.1403
327.49        111.8579
327.94        112.3485
328.39        112.5293
328.85        112.4578
329.30        112.3389
329.75        112.3757
330.20        112.6444
330.66         113.036
331.11        113.5396
331.56         113.993
332.01        114.3495
332.46        114.6586
332.92        114.9001
333.37        115.1828
333.82        115.4841
334.27         115.794
334.72         116.131
335.17        116.5375
335.63        116.9848
336.08        117.5156
336.53        118.0878
336.98        118.6777
337.43        119.2627
337.88        119.8437
338.34        120.3384
338.79        120.6795
339.24        120.8407
339.69        120.8658
340.14        120.8775
340.59        121.0745
341.05        121.5018
341.50        122.1024
341.95        122.7884
342.40        123.4104
342.85        123.9099
343.30        124.3304
343.75        124.6541
344.20        124.8633
344.66        124.9778
345.11        124.9683
345.56        124.9348
346.01        125.0425
346.46        125.3247
346.91        125.7233
347.36        126.0794
347.81        126.2225
348.26        126.1298
348.72        125.5738
349.17        125.2727
349.62        125.0965
350.07        125.2735
350.52        125.6944
350.97        126.1675
351.42        126.3718
351.87        126.2111
352.32        125.7761
352.77        125.2332
353.22         124.836
353.67        124.6418
354.13        124.5858
354.58        124.4826
355.03        124.0999
355.48        123.3985
355.93         122.477
356.38         121.532
356.83        120.8477
357.28        120.4745
357.73        120.3124
358.18        120.1697
358.63        119.7459
359.08        118.9695
359.53        117.9426
359.98        116.8271
360.43        115.8654
360.88        115.1153
361.33        114.4964
361.78        113.9028
362.23        113.1707
362.68        112.2683
363.13         111.274
363.58        110.2622
364.03        109.3392
364.48        108.5319
364.93        107.7846
365.38        107.0832
365.83        106.4155
366.28        105.7555
366.73        105.1034
367.18        104.3895
367.63        103.5025
368.08        102.4404
368.53        101.2582
368.98         100.055
369.43        98.97197
369.88        98.04683
370.33        97.24168
370.78         96.5295
371.23        95.87283
371.68        95.25295
372.13        94.67596
372.58        94.12579
373.03        93.56255
373.48        92.96559
373.93        92.33687
374.38        91.65628
374.83         90.9146
375.28        90.13352
375.72        89.30978
376.17        88.54716
376.62        87.91525
377.07        87.40795
377.52        86.98795
377.97         86.5715
378.42        86.03209
378.87        85.35867
379.32        84.61457
379.77        83.86814
380.22        83.20081
380.67        82.62041
381.11        82.09084
381.56        81.59628
382.01         81.1385
382.46        80.71894
382.91        80.35251
383.36        79.98605
383.81        79.53092
384.26        78.97368
384.71        78.33354
385.15        77.69066
385.60        77.23859
386.05        76.98021
386.50        76.86012
386.95        76.75311
387.40        76.46761
387.85         75.9783
388.29        75.32123
388.74         74.7049
389.19        74.21848
389.64        73.87712
390.09        73.61768
390.54        73.39535
390.98         73.1312
391.43         72.8458
391.88        72.56134
392.33        72.26962
392.78        71.95956
393.23        71.63855
393.67        71.25099
394.12        70.92072
394.57        70.71002
395.02        70.59381
395.47        70.43346
395.91        70.21636
396.36        70.00117
396.81        69.79938
397.26        69.58485
397.71        69.34773
398.15        69.07025
398.60        68.83137
399.05        68.53651
399.50        68.25988
399.95        68.17634
400.39        68.23922
400.84        68.24746
401.29        68.14371
401.74        67.75685
402.18        67.22601
402.63        67.11395
403.08        67.33958
403.53        67.22038
403.97        66.72183
404.42        66.27328
404.87        65.96777
405.32        65.78376
405.76        65.73034
406.21         65.8218
406.66        65.95476
407.11        65.94284
407.55        65.76822
408.00        65.52267
408.45        65.26586
408.90        64.93056
409.34        64.59745
409.79        64.51707
410.24        64.61936
410.68        64.60233
411.13        64.43907
411.58        64.28452
412.03        64.16658
412.47        64.08421
412.92        64.02798
413.37        64.00723
413.81        63.99697
414.26         64.0138
414.71        64.03625
415.15        64.07618
415.60        64.10065
416.05        64.10976
416.49        64.10224
416.94        64.06795
417.39        64.01706
417.83        63.95776
418.28        63.89782
418.73        63.83607
419.17        63.76517
419.62        63.68343
420.07        63.58823
420.51        63.47502
420.96        63.38581
421.41        63.31397
421.85        63.23209
422.30         63.2435
422.74        63.28555
423.19        63.21659
423.64        63.08381
424.08        63.26573
424.53        63.63896
424.98        63.81432
425.42         63.7735
425.87        63.59566
426.31        63.41092
426.76        63.60493
427.21        64.07112
427.65        64.12039
428.10        63.76516
428.54        63.62301
428.99        63.73404
429.44        63.89525
429.88        63.99497
430.33        63.72866
430.77        63.24438
431.22        63.39886
431.66        64.05872
432.11        64.39444
432.56        64.35075
433.00        64.20606
433.45        63.84982
433.89         63.7797
434.34         64.1729
434.78        63.12806
435.23        63.20808
435.67        64.17286
436.12        64.24673
436.57        64.55959
437.01        64.44367
437.46         64.2663
437.90        64.69431
438.35        64.59705
438.79        64.53354
439.24        64.42919
439.68        64.41534
440.13        64.42741
440.57        64.45603
441.02        64.59853
441.46        64.80506
441.91        64.87116
442.35        64.80104
442.80        65.15726
443.24        65.77496
443.69        65.92239
444.13         65.5881
444.58        65.32923
445.02        65.22779
445.47        65.31326
445.91        65.51738
446.36        65.60091
446.80        65.53194
447.24        65.46627
447.69         65.4399
448.13         65.5284
448.58        65.53403
449.02        65.48643
449.47        65.34976
449.91        65.26062
450.36        65.24691
450.80        65.15472
451.25        65.03366
451.69        65.07353
452.13          65.227
452.58        65.17244
453.02        64.92459
453.47        64.79379
453.91        64.77658
454.36        64.72305
454.80        64.62543
455.24        64.49443
455.69        64.33794
456.13        64.30804
456.58        64.21909
457.02        64.04733
457.46        64.03069
457.91        64.02061
458.35        64.15238
458.79        64.13847
459.24         64.0137
459.68        63.85561
460.13        63.72091
460.57        63.55246
461.01        63.37294
461.46        63.51195
461.90        63.05893
462.34        63.42299
462.79        62.56327
463.23        62.67661
463.68        63.10217
464.12        62.93745
464.56        62.29769
465.01         62.4533
465.45        63.16719
465.89        63.12558
466.34        62.46475
466.78         62.3061
467.22        62.65335
467.67        62.60738
468.11        62.23224
468.55        62.03541
468.99         62.0523
469.44        61.99164
469.88        61.85031
470.32        61.74108
470.77        61.66574
471.21        61.58651
471.65        61.50465
472.10        61.43509
472.54        61.36213
472.98        61.30188
473.42        61.26558
473.87        61.20166
474.31        61.10322
474.75        61.20619
475.20        61.43621
475.64        61.32885
476.08        61.16402
476.52        61.04217
476.97        60.97455
477.41        61.14198
477.85        61.52494
478.29        60.86813
478.74        60.30957
479.18        61.03796
479.62        60.82346
480.06        61.09492
480.50        61.12298
480.95        61.10298
481.39        60.92214
481.83        61.42799
482.27         61.3921
482.72        61.04956
483.16        61.15526
483.60        61.40435
484.04        61.31325
484.48        60.99279
484.93        60.85612
485.37        60.91964
485.81        61.14874
486.25        61.39475
486.69        62.56657
487.14        62.52184
487.58        61.88406
488.02        61.25377
488.46        61.06876
488.90        60.88192
489.34        60.53169
489.79        60.10403
490.23        61.06552
490.67        61.14148
491.11        60.83506
491.55        60.70389
491.99        60.80109
492.43        60.79078
492.88        60.66669
493.32        60.62989
493.76        60.61427
494.20        60.57526
494.64        60.53788
495.08        60.11467
495.52        59.94608
495.96        60.06875
496.41        60.51451
496.85         60.5246
497.29        60.10292
497.73         60.1263
498.17        60.26428
498.61        60.34003
499.05        60.21359
499.49        60.06108
499.93        59.94946
500.37        59.90899
500.82        59.93386
501.26        60.08981
501.70        60.30982
502.14        60.07294
502.58        59.91464
503.02        59.79274
503.46        59.82322
503.90        59.84408
504.34        59.83139
504.78        59.86781
505.22        59.95363
505.66        60.02588
506.10        60.07101
506.54        60.13135
506.98        60.20727
507.42        59.86458
507.86        60.25137
508.30        59.65851
508.74         59.9009
509.18         59.7486
509.62        59.65351
510.06        59.60957
510.50        59.59937
510.94        59.54296
511.38        59.43748
511.82        59.38389
512.26        59.38143
512.70         59.3794
513.14        59.35794
513.58         59.3108
514.02        59.24442
514.46        59.13767
514.90        58.99387
515.34        58.95697
515.78        59.06401
516.22        58.87064
516.66        58.89494
517.10        59.19673
517.54        59.04285
517.98        59.13791
518.42        59.20171
518.86        59.23448
519.30        59.22343
519.74        59.14544
520.18        59.04578
520.62          59.068
521.06         59.1792
521.50        59.15381
521.93        58.99852
522.37        58.90974
522.81        58.89983
523.25         58.8604
523.69        58.79119
524.13        58.74511
524.57        58.72532
525.01        58.71302
525.45        58.72365
525.89        58.78197
526.32        58.88166
526.76        59.01635
527.20        59.13808
527.64         59.1736
528.08        59.11036
528.52        58.97625
528.96        58.82357
529.40        58.72669
529.83        58.70496
530.27        58.76503
530.71        58.86043
531.15        58.91428
531.59        58.90705
532.03        58.86381
532.46        58.80819
532.90         58.7893
533.34        58.81293
533.78        58.86467
534.22         58.9088
534.66        58.89346
535.09        58.80382
535.53        58.67869
535.97        58.55535
536.41        58.50724
536.85        58.54817
537.28        58.65259
537.72        58.77192
538.16        58.82911
538.60        58.80244
539.04        58.71841
539.47          58.599
539.91        58.52543
540.35        58.50039
540.79        58.51059
541.22        58.53519
541.66        58.55393
542.10        58.55694
542.54        58.55364
542.97         58.5549
543.41        58.60616
543.85        58.70177
544.29        58.82915
544.72        58.94534
545.16        59.02048
545.60        59.03114
546.04        58.97794
546.47        58.89965
546.91        58.87089
547.35        58.89209
547.79        58.94178
548.22        58.95885
548.66        58.85847
549.10        58.67546
549.53        58.56019
549.97        58.53943
550.41        58.50831
550.84        58.47432
551.28        58.49847
551.72        58.55289
552.15        58.60102
552.59        58.65411
553.03        58.51661
553.46        58.58309
553.90        58.53012
554.34        58.44994
554.77        58.44575
555.21        58.58627
555.65         58.2928
556.08        58.57357
556.52        58.67731
556.96        58.83005
557.39        58.76095
557.83        58.53259
558.27        58.48297
558.70        58.51858
559.14        58.51652
559.57        58.43875
560.01        58.46825
560.45        58.56124
560.88        58.56136
561.32         58.5223
561.75        58.45941
562.19        58.42668
562.63        58.54111
563.06        58.72099
563.50        58.58782
563.93        58.20871
564.37        58.11177
564.80        58.27186
565.24        58.35912
565.68        58.34674
566.11        58.38513
566.55        58.48311
566.98        58.56875
567.42        58.65472
567.85        58.68711
568.29        58.72254
568.72        58.82812
569.16        59.02502
569.60        59.13501
570.03         59.1734
570.47        59.24313
570.90        59.31457
571.34        59.28209
571.77        59.41623
572.21        59.37413
572.64        59.33778
573.08        59.39087
573.51        59.49819
573.95        59.65693
574.38        59.73336
574.82        60.04738
575.25        59.88109
575.69        59.69967
576.12        59.57182
576.56        59.52704
576.99        59.61905
577.42        59.72961
577.86        59.87011
578.29        60.34971
578.73        60.59288
579.16        60.26086
579.60        59.56943
580.03        59.60496
580.47        59.66056
580.90        59.86399
581.33        60.14727
581.77         60.1959
582.20        60.43537
582.64        60.46387
583.07        60.08064
583.51        59.81251
583.94        59.41902
584.37        59.33197
584.81        59.07274
585.24        59.14719
585.68        59.79541
586.11        59.38943
586.54        59.59982
586.98        59.59352
587.41        59.50673
587.85        59.38422
588.28        59.43204
588.71        59.88632
589.15        59.58384
589.58        59.16659
590.01        59.22321
590.45        59.26751
590.88         59.4527
591.31        59.14912
591.75        59.08078
592.18        58.83884
592.61        58.64163
593.05        59.51062
593.48        59.53652
593.91        59.91542
594.35        59.44363
594.78        59.55638
595.21        59.30898
595.65        59.28077
596.08        59.21861
596.51        59.36819
596.94        59.18399
597.38        59.12136
597.81        59.06788
598.24        59.28679
598.68        59.16294
599.11        59.27036
599.54        59.54576
599.97        59.29481
600.41        59.23744
600.84        59.56271
601.27        59.35314
601.70        59.11653
602.14        58.97849
602.57        58.97932
603.00        59.21692
603.43        59.31368
603.87        59.41692
604.30        59.53306
604.73        59.51181
605.16        59.40439
605.60        59.31177
606.03        59.21574
606.46        59.14987
606.89        59.26243
607.32        58.61898
607.76         59.3261
608.19        59.21021
608.62        59.03495
609.05        59.96423
609.48        59.41465
609.92        59.25884
610.35        59.18822
610.78        59.70708
611.21        58.98545
611.64        59.40637
612.07        59.24057
612.50        59.32902
612.94        59.29019
613.37        59.17044
613.80        59.37045
614.23        59.22429
614.66        59.12556
615.09        58.92484
615.52        58.88381
615.96        58.98473
616.39         58.9565
616.82        58.78396
617.25        58.82158
617.68        58.74334
618.11        58.65219
618.54        58.65006
618.97        58.64275
619.40        58.63444
619.84        58.82225
620.27        58.69038
620.70        58.65239
621.13         58.5687
621.56         58.5437
621.99        58.58602
622.42        58.57949
622.85        58.52869
623.28        58.70007
623.71        58.69182
624.14        58.96479
624.57        58.78083
625.00        58.83224
625.43        58.63876
625.86        58.67843
626.29        58.88901
626.72        58.47267
627.15        58.56697
627.58        58.46025
628.01        58.55875
628.44        58.23325
628.87        58.17801
629.30        58.68536
629.73        58.30721
630.16        58.54533
630.59        58.21906
631.02        58.46592
631.45        58.23661
631.88        58.26926
632.31        58.34097
632.74        58.15412
633.17        58.30492
633.60        58.24746
634.03        58.15759
634.46        58.16283
634.89        58.15717
635.32        58.01048
635.75        57.77374
636.18        57.86034
636.61        58.21014
637.04        58.37044
637.47        58.30675
637.89        58.27375
638.32        58.28019
638.75        58.25006
639.18        58.19213
639.61        58.13868
640.04        58.10216
640.47        58.07442
640.90         58.0715
641.33         58.1508
641.76        58.27394
642.18        58.32196
642.61        58.26474
643.04        58.16818
643.47        58.05536
643.90          57.952
644.33         57.8743
644.76        57.80039
645.18        57.74624
645.61        57.75946
646.04        57.82997
646.47        57.89445
646.90        57.92687
647.33        57.95482
647.75        57.96295
648.18        57.89294
648.61        57.81614
649.04        57.88624
649.47        58.04465
649.89        58.38386
650.32        58.22762
650.75        58.20823
651.18        58.15192
651.61        58.00413
652.03          57.827
652.46        57.78727
652.89        57.91497
653.32        58.00314
653.74         57.9685
654.17        58.00825
654.60        57.82747
655.03        57.29144
655.46        57.82308
655.88        58.60487
656.31        59.86389
656.74        63.67543
657.16        62.64336
657.59        61.24026
658.02        58.97741
658.45        58.45401
658.87        58.29932
659.30        58.23818
659.73        58.33683
660.15        57.71533
660.58        57.96191
661.01        58.09325
661.44        58.40657
661.86        58.36494
662.29        58.00293
662.72         57.8322
663.14        57.89685
663.57        57.94853
664.00        57.96421
664.42        58.00877
664.85        58.07972
665.27        58.05756
665.70        58.12783
666.13        58.13779
666.55        58.14847
666.98        58.15483
667.41        58.14774
667.83        58.11989
668.26        58.08042
668.69        57.98075
669.11        57.85521
669.54        57.93866
669.96        58.27841
670.39        58.09858
670.82        58.70849
671.24        58.65447
671.67        58.39249
672.09        58.35181
672.52        58.54335
672.94        58.49058
673.37        58.23266
673.80        58.18861
674.22        58.35505
674.65        58.40832
675.07        58.34924
675.50        58.31912
675.92        58.33234
676.35        58.33715
676.77        58.33176
677.20        58.33877
677.62        58.37608
678.05        58.39054
678.47        58.36651
678.90        58.60027
679.32        58.54489
679.75        58.60346
680.17        58.61229
680.60        58.59117
681.02        58.55254
681.45        58.52585
681.87        58.52895
682.30        58.52816
682.72        58.53162
683.15        58.56726
683.57        58.60025
684.00        58.64523
684.42        58.35363
684.85        58.43745
685.27        58.46735
685.70        58.60569
686.12        58.70447
686.54        58.76701
686.97        58.77135
687.39        58.75002
687.82        58.71991
688.24        58.67248
688.66        58.59829
689.09        58.73151
689.51        58.63098
689.94        58.68597
690.36        58.74759
690.78         58.7742
691.21        58.76734
691.63        58.71879
692.06        58.67844
692.48        58.75706
692.90        58.91543
693.33        58.97947
693.75           58.94
694.17        58.83542
694.60        58.71322
695.02        58.80556
695.44        58.85001
695.87        58.96022
696.29        59.04021
696.71        58.91697
697.14        58.68183
697.56        58.86573
697.98        59.44088
698.41        59.40936
698.83        59.35681
699.25        59.12847
699.68        58.97791
700.10        58.88136
700.52        58.87046
700.94        58.94508
701.37        59.03975
701.79        59.10187
702.21        59.09129
702.64        59.03389
703.06        58.96097
703.48        58.93018
703.90        58.95818
704.33        59.01874
704.75        59.08886
705.17        59.11609
705.59        59.08886
706.01        59.02267
706.44        58.95439
706.86        58.95794
707.28        59.03505
707.70        59.16802
708.12        59.31505
708.55        59.38968
708.97         59.3755
709.39        59.33546
709.81         59.2905
710.23        59.25121
710.66        59.23452
711.08        59.25733
711.50        59.29662
711.92        59.32399
712.34        59.33377
712.76        59.33402
713.19        59.32962
713.61        59.37107
714.03        59.43986
714.45        59.53431
714.87        59.63303
715.29        59.66358
715.71        59.61146
716.13        59.65296
716.56        59.51518
716.98        59.49738
717.40        59.51468
717.82        59.55784
718.24        59.61845
718.66        59.68697
719.08        59.75688
719.50        59.82881
719.92        59.88524
720.34        59.89548
720.76        59.85833
721.19        59.77787
721.61        59.70026
722.03        59.67514
722.45        59.71687
722.87        59.80857
723.29        59.93036
723.71        60.04722
724.13         60.1435
724.55        60.22659
724.97        60.28959
725.39        60.32304
725.81        60.32805
726.23        60.30434
726.65        60.27053
727.07         60.2638
727.49        60.29491
727.91        60.34452
728.33        60.39689
728.75        60.46124
729.17        60.51399
729.59        60.47506
730.01        60.37858
730.43        60.38932
730.85        60.52735
731.27        60.64394
731.69        60.67802
732.10        60.86281
732.52        60.80473
732.94        60.58019
733.36        60.19637
733.78        60.03776
734.20        60.15454
734.62        60.36637
735.04        60.58207
735.46        60.70894
735.88        60.71331
736.30        60.63039
736.72        60.49622
737.13        60.41959
737.55        60.39701
737.97         60.3243
738.39        60.23835
738.81        60.40369
739.23        60.76402
739.65        60.83027
740.06          60.567
740.48        60.56149
740.90        60.83316
741.32        60.42998
741.74        60.62279
742.16        60.59409
742.57        60.74176
742.99        60.96412
743.41         61.1885
743.83        61.25534
744.25        61.12466
744.67        60.85582
745.08        60.57837
745.50        60.46947
745.92        60.59018
746.34        60.88211
746.75        61.21627
747.17        61.38055
747.59        61.32635
748.01        61.08958
748.42        60.79356
748.84         60.6849
749.26        60.78475
749.68        60.90525
750.09          60.977
750.51        60.98164
750.93         60.9187
751.35        60.86274
751.76        60.83484
752.18        60.79269
752.60        60.74699
753.01        60.75324
753.43        60.77216
753.85        60.75938
754.27        60.70983
754.68        60.64516
755.10        60.60743
755.52        60.62349
755.93        60.71206
756.35        60.89225
756.77         61.1061
757.18        61.28041
757.60        61.39893
758.02        61.38599
758.43        61.26648
758.85        61.50234
759.26        61.61473
759.68        61.71975
760.10        60.94625
760.51        60.92746
760.93        61.48426
761.34        61.04892
761.76        61.66082
762.18        61.54128
762.59        61.35719
763.01        61.29382
763.42        61.14445
763.84        61.33508
764.26        61.35648
764.67        61.68851
765.09        62.08482
765.50        62.09566
765.92        61.79894
766.33        61.66238
766.75        61.69368
767.16         61.6275
767.58        61.42195
768.00        61.38915
768.41        61.55322
768.83        61.52493
769.24        61.30651
769.66        61.72215
770.07         61.7346
770.49        61.82679
770.90        61.71141
771.32        61.56801
771.73        61.46939
772.15        61.44907
772.56        61.54758
772.97        61.75696
773.39        61.98223
773.80        62.12226
774.22         62.1095
774.63        61.99798
775.05        61.82912
775.46        61.71557
775.88        61.67089
776.29        61.69407
776.70        61.72331
777.12        61.67166
777.53        61.54233
777.95        61.36158
778.36        61.20889
778.77        61.20034
779.19        61.35742
779.60        61.64235
780.02        61.96157
780.43        62.20043
780.84        62.32209
781.26        62.29816
781.67        62.21607
782.09        62.27383
782.50        62.44193
782.91        62.47483
783.33        62.35838
783.74        62.34113
784.15        62.39857
784.57        62.41771
784.98        62.40569
785.39        62.40511
785.81         62.4175
786.22        62.42619
786.63        62.43878
787.04        62.47145
787.46        62.53651
787.87        62.60791
788.28        62.67856
788.70        62.72746
789.11           62.73
789.52        62.70045
789.93        62.66523
790.35        62.65713
790.76        62.70229
791.17        62.80093
791.58        62.91277
792.00         62.9712
792.41        62.99327
792.82        62.93412
793.23         62.8957
793.65        63.08864
794.06        63.47352
794.47        63.84725
794.88        64.14755
795.29        63.93824
795.71        64.17215
796.12        63.93896
796.53        63.58222
796.94        63.39969
797.35        63.39397
797.76        63.22483
798.18        62.91427
798.59        62.77612
799.00        62.82269
799.41        62.90136
799.82        62.96704
800.23        63.01736
800.64        63.03419
801.06         62.9884
801.47        62.95798
801.88        63.00618
802.29        63.14588
802.70        63.34957
803.11        63.55825
803.52        63.67125
803.93        63.66465
804.34        63.57328
804.75        63.44952
805.17         63.3833
805.58        63.42836
805.99        63.49677
806.40        63.57537
806.81         63.7435
807.22        63.93065
807.63        63.91897
808.04        63.74589
808.45         63.6791
808.86        63.74354
809.27        63.77858
809.68        63.78452
810.09        63.83493
810.50        63.92736
810.91        64.04723
811.32         64.1464
811.73        64.14314
812.14        64.02346
812.55        63.81142
812.96        63.58777
813.37        63.49046
813.78        63.55531
814.19        63.74364
814.60        63.96815
815.01        64.09193
815.42        64.08131
815.83        63.97435
816.24        63.83777
816.65        63.79459
817.05        63.88957
817.46        64.05499
817.87        64.25344
818.28        64.39322
818.69        64.45207
819.10        64.45802
819.51        64.45522
819.92        64.51677
820.33        64.65649
820.74        64.83669
821.14         65.0052
821.55        65.10735
821.96        65.11733
822.37        65.06015
822.78         64.9539
823.19        64.83255
823.60        64.71291
824.00        64.59285
824.41        64.46648
824.82         64.3867
825.23        64.36061
825.64        64.39629
826.04        64.44862
826.45        64.39851
826.86        64.24424
827.27        64.01995
827.68        63.82631
828.08        63.86346
828.49        64.10257
828.90        64.51732
829.31        65.00881
829.72        65.32199
830.12        65.39561
830.53        65.66437
830.94        65.40203
831.35         65.1854
831.75         64.8475
832.16        64.39614
832.57        63.98755
832.97        63.87862
833.38        64.11514
833.79        64.61076
834.20        65.20705
834.60        65.65921
835.01        65.88983
835.42        65.95612
835.82        65.90618
836.23        65.78578
836.64         65.6485
837.04          65.492
837.45        65.31852
837.86        65.19685
838.26        65.15427
838.67        65.17255
839.08        65.25893
839.48        65.39489
839.89        65.55676
840.29        65.74631
840.70        65.91983
841.11        66.00602
841.51        66.00312
841.92        65.88743
842.33        65.73313
842.73        65.66855
843.14        65.68302
843.54        65.77917
843.95        65.88267
844.35        65.89046
844.76        65.77578
845.17        65.58619
845.57         65.4118
845.98         65.3617
846.38        65.49139
846.79          65.733
847.19        66.04447
847.60        66.28416
848.00        66.43959
848.41        66.50564
848.81        66.54572
849.22        66.60059
849.62        66.71813
850.03        66.83713
850.43        66.94325
850.84        66.91573
851.24        66.78477
851.65        66.52359
852.05        66.25903
852.46        66.11738
852.86        66.13935
853.27        66.32489
853.67        66.49277
854.07        66.52291
854.48        66.36039
854.88        66.06507
855.29        65.72331
855.69        65.65623
856.10        65.85089
856.50        66.30479
856.90        66.77428
857.31        66.89931
857.71        66.64455
858.12        66.06473
858.52        65.38696
858.92        64.93461
859.33        64.80607
859.73        64.96349
860.13        65.26177
860.54        65.45562
860.94        65.52531
861.34         65.4949
861.75        65.43409
862.15        65.53019
862.55        65.77483
862.96        66.07823
863.36        66.32767
863.76         66.3037
864.17        65.96445
864.57        65.42472
864.97        64.80811
865.38        64.30478
865.78        64.03136
866.18        63.92935
866.58        64.02844
866.99        64.33044
867.39        64.82082
867.79        65.46577
868.19         66.0817
868.60        66.32387
869.00        66.21342
869.40        65.98314
869.80        65.71909
870.21        65.41031
870.61        65.18245
871.01        65.11618
871.41        65.09637
871.81          64.854
872.22        64.37321
872.62        63.74293
873.02        63.16642
873.42        63.17768
873.82        63.66915
874.22        63.98916
874.63        64.18339
875.03        64.41437
875.43        64.63652
875.83        65.65692
876.23        64.92997
876.63        64.18707
877.03        63.23345
877.44        61.43324
877.84        168.1654
878.24        62.89983
878.64        63.60987
879.04        64.91618
879.44         65.2013
879.84        61.76519
880.24        66.71761
880.64        66.94686
881.04        64.64665
881.44        62.90617
881.84        62.26702
882.24        62.85618
882.65        64.03381
883.05        64.37032
883.45        63.58456
883.85        62.53861
884.25        61.70789
884.65         61.4432
885.05        61.87022
885.45        62.78801
885.85         63.7963
886.25        64.34795
886.65        64.31894
887.05        63.88507
887.45        63.28475
887.85        62.91859
888.25        62.92094
888.65        63.15686
889.04        63.52056
889.44        63.84832
889.84        64.05794
890.24        64.20169
890.64        64.27383
891.04        64.25712
891.44        64.15939
891.84        63.97692
892.24        63.73431
892.64        63.49175
893.04        63.28607
893.44        63.13092
893.83        63.05643
894.23        63.06165
894.63        63.15678
895.03        63.34365
895.43        63.60244
895.83        63.89081
896.23        64.17953
896.63        64.44833
897.02        64.67922
897.42        64.91847
897.82        65.14192
898.22        65.33526
898.62        65.45705
899.01        65.45732
899.41        65.30785
899.81        65.04156
900.21        64.72118
900.61        64.44296
901.00         64.2325
901.40        64.15443
901.80        64.16908
902.20        64.06705
902.59        63.80762
902.99        63.70587
903.39        63.98658
903.79         63.3193
904.18        64.38868
904.58        64.94112
904.98        65.49046
905.38        65.55901
905.77        65.07617
906.17        64.20939
906.57        63.21238
906.96         62.6011
907.36        62.52366
907.76         62.8744
908.15        63.48433
908.55        63.91205
908.95        64.07668
909.34         64.0419
909.74         64.0196
910.14        64.30421
910.53        64.92942
910.93        65.73996
911.33        66.42612
911.72        66.52186
912.12        65.95983
912.52        64.93166
912.91        63.75523
913.31        63.00321
913.70        62.80772
914.10         63.0137
914.49        63.46052
914.89        63.77935
915.29        63.87178
915.68        63.83783
916.08         63.7589
916.47        63.70671
916.87        63.74136
917.26        63.80284
917.66         63.8854
918.05        64.02097
918.45        64.18707
918.84        64.39374
919.24        64.60742
919.64        64.82483
920.03        65.03508
920.42        65.20865
920.82        65.30921
921.21        65.30075
921.61        65.20837
922.00        65.11456
922.40        65.10517
922.79        65.18053
923.19        64.98712
923.58        65.37035
923.98        66.71461
924.37        66.63029
924.77        63.73813
925.16        71.67907
925.55         65.6572
925.95        66.12572
926.34        66.04607
926.74          65.284
927.13        63.87207
927.52        63.07597
927.92        63.40885
928.31        64.16315
928.70        65.11674
929.10        65.88187
929.49        66.37083
929.89        66.72739
930.28        66.86908
930.67        66.55366
931.07        65.81081
931.46        64.59941
931.85        63.39001
932.24        63.43182
932.64        64.89089
933.03        66.79585
933.42        68.12769
933.82         70.6022
934.21        68.94215
934.60        67.33221
934.99        65.60844
935.39        65.10155
935.78        65.93816
936.17        68.32329
936.56         74.9065
936.96        68.54652
937.35         72.2643
937.74        69.15467
938.13        66.78376
938.53        64.75745
938.92        63.82721
939.31        64.50102
939.70        65.69537
940.09        66.34084
940.49        66.15895
940.88        65.56949
941.27        64.85662
941.66         64.5138
942.05        64.73253
942.44        65.26649
942.84        65.85601
943.23        66.26933
943.62        66.41238
944.01         66.3504
944.40        66.26946
944.79        66.46499
945.18        66.97762
945.57        67.68826
945.97        68.25755
946.36        68.27708
946.75        67.62899
947.14        66.47069
947.53        65.17715
947.92        64.40022
948.31        64.33678
948.70        64.79336
949.09        65.46375
949.48        65.86086
949.87        65.84795
950.26        65.59007
950.65        65.21922
951.04        64.94097
951.43        64.83891
951.82        64.82551
952.21        64.90243
952.60        65.09876
952.99        65.38155
953.38        65.72766
953.77        66.06564
954.16         66.2783
954.55        66.35226
954.94        66.34431
955.33        66.24906
955.72        66.07597
956.11        65.85546
956.50        65.56347
956.89        65.37826
957.28        65.57585
957.66        66.20406
958.05        67.10738
958.44        67.93432
958.83        68.14212
959.22         67.6125
959.61        66.44099
960.00        65.03323
960.39        64.20455
960.78        64.22625
961.16        64.92293
961.55        65.69634
961.94         65.7999
962.33        65.09769
962.72        63.79668
963.11        62.42071
963.49        62.02883
963.88        62.91594
964.27        64.64161
964.66        66.49874
965.04        67.55973
965.43         67.5732
965.82        66.88012
966.21        65.81075
966.60        64.95661
966.98        64.56297
967.37        64.43535
967.76        64.53381
968.15        64.79651
968.53        65.17759
968.92          65.718
969.31        66.26054
969.69        66.49856
970.08        66.33723
970.47        65.81853
970.86        65.19194
971.24        64.93214
971.63        65.13667
972.02        65.67074
972.40        66.26093
972.79        66.40066
973.17        66.05663
973.56        65.41155
973.95        64.74301
974.33        64.53385
974.72        64.91446
975.11        65.66488
975.49         66.6933
975.88        67.78419
976.26        68.85658
976.65        69.86386
977.04        70.56873
977.42        70.58043
977.81        69.82449
978.19        68.36535
978.58        66.81226
978.96        66.29076
979.35        67.06441
979.74        68.68157
980.12        70.48586
980.51        71.48328
980.89        71.63529
981.28        71.16774
981.66        70.26091
982.05         69.4373
982.43        68.94977
982.82        68.68257
983.20        68.67747
983.59        68.94813
983.97        69.49194
984.35        70.29379
984.74        71.12516
985.12        71.62689
985.51         71.6499
985.89        71.35603
986.28        70.88024
986.66        70.48623
987.04        70.30001
987.43        70.15891
987.81        69.87611
988.20        70.51891
988.58        72.22915
988.96        72.47187
989.35        70.53087
989.73        76.14831
990.12        72.84249
990.50         73.2052
990.88        72.89004
991.27         72.6309
991.65        72.40465
992.03        72.32771
992.42        72.40185
992.80        72.10122
993.18         71.3652
993.56        70.41435
993.95        69.48273
994.33         68.8945
994.71         68.7691
995.10        68.97214
995.48        69.47368
995.86        70.20615
996.24        71.06055
996.63        71.93709
997.01        72.71178
997.39        73.00014
997.77        72.72496
998.15        71.97651
998.54        71.03142
998.92        70.23274
999.30        69.76096
999.68        69.62342
1000.06        69.70966
1000.45        69.71992
1000.83        69.67804
1001.21        69.65054
1001.59         69.9284
1001.97        70.91555
1002.35        72.51162
1002.73        74.37508
1003.12        76.05209
1003.50        77.05789
1003.88         77.3201
1004.26        77.02869
1004.64        76.32486
1005.02        75.53841
1005.40          74.854
1005.78        74.16087
1006.16        73.63062
1006.54        73.49639
1006.92        73.77888
1007.30        74.52972
1007.69        75.25652
1008.07        75.27775
1008.45        74.46675
1008.83          72.961
1009.21        71.50586
1009.59        71.65218
1009.97        73.61575
1010.35        76.50101
1010.73        79.27139
1011.11        81.10681
1011.49        82.03505
1011.86        82.14884
1012.24        81.33543
1012.62        82.06715
1013.00        82.18393
1013.38        81.42487
1013.76        78.74016
1014.14        82.08912
1014.52        87.67112
1014.90        81.43692
1015.28        83.27613
1015.66        84.92513
1016.04        82.10192
1016.41        81.95466
1016.79        80.76447
1017.17        80.36073
1017.55        80.36137
1017.93        80.84477
1018.31        81.67495
1018.69         82.1095
1019.06        82.04943
1019.44        81.71471
1019.82        81.22594
1020.20        80.62767
1020.58        79.94434
1020.95        79.01272
1021.33        78.20338
1021.71        78.27233
1022.09        79.43394
1022.46        81.21091
1022.84        82.84989
1023.22        83.92091
1023.60        84.50851
1023.97        84.76256
1024.35        84.86817
1024.73        85.15509
