SpectraSmart Spectrum 2.9.0.0
--------- Device Information -----------
Spectrum Name :  反射率_0
Saving Time :  2024/04/21 00:57:15
Spectro-Module Model Name : SE2030-DUVN
Spectro-Module Serial Number : OS361AC55029948
Wavelength Start : 200
Wavelength End : 1025
Wavelength Unit : Wavelength(nm)
Spectrum Unit : Reflectance(%)
-----------Spectrum Setting ------------
Integration Time : 20ms
Average : 10
Boxcar : 0
Background removal :  enabled
linearity correction :  enabled
SC :  disabled
Intensity correction :  disabled
DWT denoise :  enabled
savitzky-golay :  disabled
FFT :  disabled
Running average :  disabled
Kalman :  disabled
High pass :  disabled
---------------BEGIN--------------------
Wavelength(nm)             Reflectance(%)
200.29               0
200.75         6.43419
201.21        33.82064
201.67        46.93375
202.13        49.59576
202.58        45.65392
203.04         36.8562
203.50        24.77899
203.96        15.89187
204.42        13.77175
204.88         15.5653
205.34        18.90701
205.80        20.17168
206.26        18.09912
206.72        15.48649
207.18         9.28731
207.64       -7.170638
208.10       -32.22599
208.55       -62.12499
209.01       -73.79765
209.47       -44.38211
209.93       -4.519675
210.39        26.60579
210.85        46.49399
211.31        56.20971
211.77        59.22882
212.23        57.61743
212.69        48.50178
213.14        24.66125
213.60       -32.28868
214.06       -220.7203
214.52       -707.2828
214.98       -347.4212
215.44       -97.50403
215.90       -9.207233
216.36        21.04126
216.81        24.74331
217.27        7.136378
217.73       -87.52621
218.19        1052.786
218.65         437.666
219.11       -900.5173
219.57       -25.96283
220.02        28.62553
220.48        37.40824
220.94        30.39806
221.40         5.39158
221.86       -54.78018
222.32        -96.4918
222.77       -45.56579
223.23       0.2230055
223.69        23.66339
224.15        31.80905
224.61        32.00147
225.06        28.81091
225.52          22.966
225.98        14.90928
226.44        5.609576
226.90       -6.392408
227.36       -15.22874
227.81       -10.03948
228.27        4.333658
228.73        19.81401
229.19        30.07368
229.65        32.05721
230.10        27.08001
230.56        16.90225
231.02        3.391234
231.48       -5.566004
231.93       -4.500094
232.39        3.469959
232.85        12.25994
233.31        16.71012
233.77        17.04742
234.22         15.4645
234.68        12.96047
235.14        11.29599
235.60        11.55249
236.05        12.24422
236.51        12.94718
236.97        19.27072
237.43        30.88976
237.88        37.27889
238.34         34.3868
238.80        56.81627
239.26        44.53427
239.71        41.73029
240.17        32.03625
240.63        21.45875
241.08        14.02934
241.54        14.06707
242.00        22.77209
242.46        28.62981
242.91        28.81025
243.37        24.76555
243.83        19.09283
244.28        20.43513
244.74        31.57563
245.20        45.70341
245.66        55.98353
246.11        56.45386
246.57        46.93506
247.03        29.66595
247.48        6.872598
247.94        -18.4538
248.40       -50.72901
248.85       -118.4443
249.31       -313.4799
249.77       -462.8309
250.22       -164.2479
250.68       -40.55222
251.14       0.3359017
251.59        14.81578
252.05        20.21731
252.51        21.79118
252.96        19.25748
253.42        13.87155
253.88         8.34378
254.33        4.043498
254.79        5.993704
255.25        15.10229
255.70        26.22609
256.16         36.0789
256.62        42.73857
257.07        45.29038
257.53        45.38318
257.99        44.26583
258.44        42.91487
258.90        42.70048
259.35        43.06054
259.81        43.70982
260.27        43.98857
260.72         43.3279
261.18        42.15192
261.63        40.68492
262.09        39.31199
262.55        38.06671
263.00        36.90408
263.46        35.90965
263.91        34.99976
264.37        34.40285
264.83        34.02708
265.28        33.74771
265.74        33.53487
266.19        33.21358
266.65        32.77768
267.11        32.23372
267.56        31.50888
268.02        30.57041
268.47        29.41709
268.93        28.13183
269.38        26.85173
269.84        25.83916
270.30        25.14689
270.75        24.70185
271.21         24.4268
271.66        24.13565
272.12        23.77749
272.57        23.37353
273.03        22.93165
273.48        22.44443
273.94        21.93675
274.39        21.39115
274.85        20.84975
275.31        20.32936
275.76        19.84801
276.22        19.44177
276.67        19.12996
277.13        18.98306
277.58        18.96295
278.04        19.03389
278.49        19.10288
278.95        19.09655
279.40        18.95561
279.86        18.72092
280.31         18.3735
280.77        17.95079
281.22        17.46198
281.68        16.97586
282.13        16.49774
282.59        16.09026
283.04        15.75549
283.50        15.48637
283.95        15.34294
284.41        15.42062
284.86        15.70046
285.32         16.1454
285.77         16.5676
286.22        16.69719
286.68        16.52496
287.13        16.11616
287.59        15.73562
288.04        15.68986
288.50         16.0034
288.95        16.69721
289.41        17.59507
289.86        17.92619
290.32         17.5406
290.77        18.59986
291.22        17.72811
291.68        17.92308
292.13        18.21748
292.59         18.6581
293.04        19.20239
293.50        19.86314
293.95        20.65383
294.40        21.55616
294.86        22.57163
295.31         23.6822
295.77        24.87176
296.22        26.12403
296.68         27.4166
297.13        28.71467
297.58         30.0329
298.04        31.39325
298.49        32.83437
298.95        34.43557
299.40        36.18682
299.85        38.05344
300.31        39.98265
300.76        41.87607
301.21        43.70953
301.67        45.52827
302.12        47.32119
302.58        49.17112
303.03        51.07456
303.48        53.05333
303.94        55.11987
304.39        57.24375
304.84        59.41091
305.30        61.62613
305.75        63.82135
306.20        65.99706
306.66        68.13753
307.11        70.18335
307.57        72.14026
308.02        73.95432
308.47        75.64044
308.93        77.24813
309.38         78.7461
309.83        80.13563
310.29        81.49786
310.74        82.75475
311.19        83.95415
311.65        85.12303
312.10        86.25008
312.55        87.33703
313.00        88.35524
313.46        89.25924
313.91        90.02791
314.36        90.69041
314.82        91.29028
315.27        91.88902
315.72        92.51138
316.18        93.13795
316.63         93.7488
317.08        94.31366
317.53        94.81615
317.99        95.26452
318.44        95.64848
318.89        95.93697
319.35        96.13062
319.80        96.24609
320.25        96.32867
320.70        96.45954
321.16        96.64947
321.61        96.89359
322.06        97.14532
322.51        97.33236
322.97        97.42337
323.42          97.478
323.87        97.50963
324.32        97.55976
324.78        97.62834
325.23          97.734
325.68        97.87222
326.13         98.0643
326.59        98.28451
327.04        98.58025
327.49        98.88117
327.94        99.10136
328.39        99.22083
328.85        99.22684
329.30        99.24776
329.75        99.38008
330.20        99.65336
330.66        100.0018
331.11        100.4023
331.56        100.6845
332.01         100.812
332.46        100.8315
332.92        100.7798
333.37        100.8562
333.82        101.0652
334.27        101.3687
334.72         101.733
335.17        102.1014
335.63        102.4193
336.08        102.7616
336.53        103.0946
336.98        103.4044
337.43        103.6896
337.88        103.9436
338.34        104.1666
338.79        104.4192
339.24        104.6922
339.69        104.9801
340.14         105.266
340.59        105.5258
341.05        105.7533
341.50        105.9563
341.95        106.1546
342.40        106.3842
342.85        106.6528
343.30        106.9569
343.75        107.2437
344.20        107.4329
344.66        107.5231
345.11         107.522
345.56        107.5275
346.01        107.6894
346.46        108.0315
346.91        108.4949
347.36        108.9449
347.81        109.2045
348.26        109.2409
348.72         109.016
349.17        108.8268
349.62         108.736
350.07        108.8442
350.52        109.0689
350.97        109.2968
351.42        109.3422
351.87        109.1521
352.32        108.7988
352.77        108.3514
353.22        107.9068
353.67        107.5064
354.13        107.1428
354.58        106.7938
355.03        106.4794
355.48        106.1978
355.93         105.945
356.38        105.7148
356.83        105.4908
357.28        105.2487
357.73        104.9709
358.18        104.6136
358.63        104.1179
359.08        103.4862
359.53         102.757
359.98        101.9794
360.43        101.2247
360.88        100.5169
361.33        99.83464
361.78        99.20042
362.23        98.64557
362.68        98.16315
363.13        97.74674
363.58        97.30453
364.03        96.68778
364.48        95.87151
364.93        94.89671
365.38         93.8884
365.83        93.05775
366.28        92.45149
366.73        91.99857
367.18        91.58907
367.63        91.04388
368.08        90.32034
368.53        89.49598
368.98        88.61938
369.43        87.75113
369.88        86.91851
370.33        86.09179
370.78        85.32079
371.23        84.71036
371.68        84.27729
372.13         83.9912
372.58        83.74826
373.03        83.36871
373.48        82.80132
373.93        82.09361
374.38        81.30964
374.83        80.57282
375.28        79.93967
375.72        79.36909
376.17        78.88171
376.62        78.44171
377.07         78.0239
377.52        77.62713
377.97        77.23749
378.42        76.83873
378.87        76.43259
379.32        76.02589
379.77        75.60748
380.22        75.15365
380.67        74.65543
381.11        74.11977
381.56        73.57426
382.01        73.08867
382.46        72.69088
382.91        72.36971
383.36        72.08075
383.81        71.75051
384.26         71.3559
384.71        70.91149
385.15        70.44533
385.60        70.06122
386.05        69.75433
386.50        69.50565
386.95        69.25322
387.40        68.90927
387.85        68.47447
388.29        67.94822
388.74         67.5023
389.19        67.19936
389.64        67.03685
390.09        66.95842
390.54        66.88844
390.98         66.6954
391.43        66.39658
391.88        66.04052
392.33        65.66171
392.78        65.33376
393.23         65.0824
393.67        64.76929
394.12        64.51291
394.57        64.51547
395.02        64.67958
395.47        64.56292
395.91        64.17875
396.36        63.90518
396.81        63.77841
397.26        63.59895
397.71        63.34263
398.15        63.06089
398.60        62.82467
399.05        62.50645
399.50        62.22327
399.95        62.23075
400.39         62.4674
400.84        62.69147
401.29         62.7686
401.74        62.36479
402.18        61.64779
402.63        61.41723
403.08        61.65226
403.53        61.56325
403.97        61.13847
404.42        60.92301
404.87        60.89898
405.32        60.83056
405.76        60.70049
406.21         60.4959
406.66        60.28725
407.11         60.3486
407.55         60.6086
408.00           60.67
408.45        60.48736
408.90        60.08298
409.34        59.61914
409.79        59.59039
410.24        59.90677
410.68        59.96066
411.13        59.72393
411.58        59.57475
412.03        59.54842
412.47        59.52222
412.92        59.47969
413.37        59.46997
413.81        59.46919
414.26        59.48494
414.71        59.49773
415.15        59.51666
415.60        59.51108
416.05        59.48488
416.49        59.44244
416.94         59.3763
417.39        59.30184
417.83        59.23896
418.28        59.19118
418.73        59.14162
419.17        59.08961
419.62        59.04617
420.07        59.01638
420.51        59.00189
420.96        58.98796
421.41         58.9473
421.85        58.86192
422.30        58.66618
422.74        58.43349
423.19        58.61789
423.64         59.1104
424.08        59.29459
424.53        59.08947
424.98        59.08438
425.42        59.31466
425.87        59.25531
426.31        59.00568
426.76        59.23415
427.21        59.81429
427.65        59.87484
428.10        59.42401
428.54        59.23559
428.99         59.3729
429.44        59.43164
429.88        59.35849
430.33        59.32969
430.77        59.31621
431.22        59.31799
431.66        59.35327
432.11        59.66798
432.56        60.14708
433.00        60.08764
433.45        59.37436
433.89        58.99349
434.34        59.15575
434.78        58.65857
435.23        58.66701
435.67         59.4701
436.12        59.93445
436.57        60.09354
437.01        59.65152
437.46        59.46753
437.90         60.2377
438.35        59.88911
438.79        60.23848
439.24        60.18178
439.68        60.23279
440.13        60.29121
440.57        60.30843
441.02         60.3868
441.46        60.47314
441.91        60.15556
442.35        59.64183
442.80         60.1636
443.24        61.41978
443.69        61.62686
444.13        60.76806
444.58        60.61259
445.02        60.60067
445.47        60.77434
445.91        60.88893
446.36        60.89347
446.80        60.74372
447.24         60.7233
447.69        60.94527
448.13        60.52722
448.58        61.06964
449.02        60.97336
449.47        60.75393
449.91        60.65125
450.36        60.70707
450.80        60.66056
451.25        60.54346
451.69        60.60558
452.13        60.79868
452.58        60.80196
453.02        60.61429
453.47        60.50293
453.91        60.46869
454.36        60.38679
454.80        60.27816
455.24        60.16365
455.69        60.05315
456.13        60.03307
456.58        60.21438
457.02        59.82465
457.46        60.49049
457.91         60.3709
458.35        60.10756
458.79        59.96492
459.24        60.00816
459.68        59.97514
460.13        59.88982
460.57        59.79979
461.01        59.62154
461.46        59.72446
461.90        59.68612
462.34        59.43529
462.79        59.39111
463.23        59.30316
463.68        59.31918
464.12        59.22864
464.56        59.07255
465.01        59.28025
465.45        59.62743
465.89        59.57541
466.34        59.23488
466.78        58.97392
467.22        58.85566
467.67        59.26344
468.11        59.24442
468.55        59.14994
468.99        58.78281
469.44        58.63768
469.88        58.73247
470.32        58.76656
470.77        58.71987
471.21        58.68931
471.65        58.67448
472.10        58.65639
472.54        58.61114
472.98         58.5611
473.42        58.52312
473.87        58.39465
474.31        58.21079
474.75        58.39462
475.20          58.811
475.64         58.7007
476.08        58.31672
476.52         58.1665
476.97        58.29157
477.41        58.57005
477.85        58.93472
478.29        58.41749
478.74        58.52562
479.18        58.35939
479.62        58.76976
480.06        58.87818
480.50        58.84592
480.95        58.82265
481.39        58.73567
481.83        59.01883
482.27        59.26915
482.72        58.74535
483.16         59.0378
483.60        59.25789
484.04        59.19183
484.48        58.97633
484.93        59.12589
485.37        58.66143
485.81        59.16962
486.25        58.87537
486.69        59.99383
487.14        60.27791
487.58        59.63208
488.02         59.5052
488.46        59.11419
488.90        59.84827
489.34        58.90282
489.79         58.8709
490.23        59.00214
490.67        59.32078
491.11          59.685
491.55        59.60991
491.99        59.20761
492.43        59.08282
492.88        59.27907
493.32        59.42712
493.76        59.44163
494.20        59.50568
494.64        59.63987
495.08        59.39641
495.52        59.37646
495.96        59.52704
496.41        59.87648
496.85        59.71701
497.29        59.14952
497.73        59.13391
498.17        59.34624
498.61        59.64205
499.05         59.7827
499.49        59.58049
499.93        59.19318
500.37        59.21987
500.82        59.60997
501.26        59.89665
501.70        59.97725
502.14        59.60444
502.58        59.37039
503.02        59.22049
503.46        59.28414
503.90        59.39127
504.34        59.46826
504.78        59.52596
505.22        59.55153
505.66        59.50121
506.10        59.40352
506.54        59.41587
506.98        59.56803
507.42        59.29942
507.86        59.73677
508.30        59.47176
508.74        59.67391
509.18        59.63492
509.62        59.60674
510.06        59.57944
510.50        59.53329
510.94        59.40023
511.38         59.2197
511.82        59.14344
512.26        59.18626
512.70        59.28731
513.14        59.39391
513.58        59.43859
514.02        59.39967
514.46        59.29352
514.90        59.16051
515.34        59.10854
515.78        59.16245
516.22        59.25461
516.66         59.1819
517.10        59.47131
517.54        59.18623
517.98        59.07095
518.42        58.91178
518.86        58.82506
519.30        58.83199
519.74        58.87183
520.18        58.92311
520.62        59.02232
521.06        59.11087
521.50        58.99567
521.93        58.73914
522.37        58.62783
522.81         58.6924
523.25         58.7852
523.69        58.85763
524.13        58.89125
524.57        58.87155
525.01         58.8105
525.45        58.74226
525.89        58.72009
526.32        58.75216
526.76        58.81878
527.20        58.89413
527.64        58.94154
528.08        58.94727
528.52        58.92867
528.96        58.88211
529.40        58.79342
529.83        58.66727
530.27        58.53788
530.71        58.42452
531.15         58.3559
531.59        58.34158
532.03        58.38019
532.46         58.4406
532.90        58.48381
533.34         58.4917
533.78        58.47268
534.22        58.44348
534.66        58.43103
535.09        58.43373
535.53        58.46354
535.97        58.48834
536.41         58.4761
536.85        58.42268
537.28        58.33798
537.72        58.26156
538.16        58.25727
538.60         58.3323
539.04        58.46339
539.47        58.58057
539.91        58.62705
540.35        58.57437
540.79          58.454
541.22        58.31107
541.66        58.23138
542.10        58.23358
542.54        58.28941
542.97        58.36924
543.41        58.45554
543.85        58.53005
544.29        58.61475
544.72        58.68298
545.16        58.72855
545.60         58.7359
546.04        58.67797
546.47         58.6179
546.91        58.68008
547.35        58.84278
547.79        59.06973
548.22        59.24483
548.66        59.10869
549.10        58.76355
549.53        58.68677
549.97        58.88391
550.41        58.93089
550.84        58.82428
551.28        58.82281
551.72        58.91192
552.15        58.98516
552.59         59.0563
553.03        58.93876
553.46        59.02813
553.90        59.02765
554.34        59.04259
554.77        59.09905
555.21          59.121
555.65        59.19123
556.08         59.2646
556.52        59.37148
556.96        59.46673
557.39          59.476
557.83        59.39909
558.27        59.31141
558.70        59.13061
559.14         59.0857
559.57        59.13777
560.01        59.34779
560.45         59.5911
560.88        59.55494
561.32        59.33304
561.75         59.1831
562.19        59.19207
562.63        59.33931
563.06        59.52746
563.50        59.47774
563.93        59.21567
564.37        59.06412
564.80         59.0638
565.24        59.22129
565.68        59.47091
566.11        59.61028
566.55         59.6281
566.98          59.675
567.42        59.76653
567.85        59.69197
568.29        59.54168
568.72        59.57236
569.16        59.81931
569.60        59.81511
570.03        59.83416
570.47        59.90379
570.90         60.0885
571.34        59.87397
571.77        60.45078
572.21         60.1587
572.64        60.10265
573.08        60.19153
573.51        60.33423
573.95        60.76793
574.38        60.53561
574.82        60.64324
575.25        60.50491
575.69         60.7004
576.12        60.23943
576.56        60.34545
576.99        60.71132
577.42         60.7087
577.86        60.72666
578.29        61.00191
578.73        61.39104
579.16        60.91952
579.60        60.24687
580.03        60.55004
580.47        60.49049
580.90        60.52258
581.33        60.86637
581.77        60.70902
582.20        60.90375
582.64        60.99178
583.07        60.63567
583.51        60.44999
583.94        60.40023
584.37         60.3631
584.81        60.11075
585.24        60.08722
585.68        60.62963
586.11         60.2739
586.54         60.5238
586.98        60.53858
587.41         60.0076
587.85        60.52534
588.28        60.51673
588.71        60.08578
589.15        60.27929
589.58        60.18285
590.01         60.2435
590.45        59.90958
590.88        60.00738
591.31        59.74542
591.75        59.80901
592.18        59.86744
592.61        60.02586
593.05        60.06009
593.48        60.42348
593.91        60.27212
594.35        60.19986
594.78         60.3642
595.21         60.1116
595.65        60.11086
596.08         60.1591
596.51          60.221
596.94          60.326
597.38        60.39434
597.81        60.48874
598.24        60.21186
598.68        60.25426
599.11        60.35673
599.54        60.23228
599.97        60.48669
600.41         60.6575
600.84        60.62629
601.27        60.87903
601.70        60.76382
602.14        60.43625
602.57        60.42089
603.00         60.7223
603.43        60.82041
603.87        61.22376
604.30         61.0493
604.73        60.99039
605.16        60.62391
605.60         60.7496
606.03        60.89605
606.46        61.17809
606.89        61.01867
607.32        60.74417
607.76         61.1254
608.19        61.28709
608.62        60.99874
609.05        61.75492
609.48        61.24278
609.92        61.27852
610.35        61.11356
610.78        61.26425
611.21        60.99088
611.64        61.09328
612.07        61.08407
612.50        61.16854
612.94        61.21038
613.37         61.2151
613.80        61.33096
614.23        61.28529
614.66        61.29543
615.09        61.27355
615.52        61.21557
615.96        61.14427
616.39        61.07372
616.82        61.00507
617.25        61.12189
617.68        61.06351
618.11        61.02555
618.54        61.06719
618.97        60.95628
619.40         60.7699
619.84        60.74218
620.27        60.84159
620.70        60.82053
621.13        60.68845
621.56        60.73478
621.99        60.94901
622.42        61.04757
622.85        60.97713
623.28        61.00518
623.71        61.01154
624.14        61.07734
624.57        61.01638
625.00        61.49201
625.43        60.80304
625.86        60.75604
626.29        60.95354
626.72        60.48752
627.15        60.76205
627.58        60.85206
628.01        61.18255
628.44        60.97667
628.87        60.94858
629.30        61.11919
629.73        60.95078
630.16         60.6586
630.59        60.55707
631.02        60.78205
631.45        60.59151
631.88        60.65825
632.31        60.73671
632.74        60.54084
633.17        60.66924
633.60        60.57693
634.03        60.45294
634.46        60.34125
634.89        60.18219
635.32        60.11084
635.75        60.10329
636.18        60.15251
636.61        60.21763
637.04        60.23438
637.47        60.18801
637.89        60.10307
638.32        60.00212
638.75        59.94738
639.18        59.95451
639.61        60.00502
640.04        60.07192
640.47        60.11339
640.90        60.11608
641.33        60.09116
641.76        60.05811
642.18        60.05427
642.61        60.07395
643.04        60.11274
643.47        60.14771
643.90        60.14798
644.33         60.1075
644.76        60.02552
645.18         59.9338
645.61        59.90446
646.04        59.93682
646.47        59.95544
646.90        59.94872
647.33        59.96027
647.75        59.97913
648.18        59.97548
648.61        59.97575
649.04        60.02207
649.47        60.07836
649.89        60.32175
650.32        60.10108
650.75         60.2061
651.18        60.38359
651.61        60.23433
652.03        59.87987
652.46        59.83351
652.89         60.0447
653.32        60.36101
653.74         60.6988
654.17        60.27675
654.60        60.68413
655.03         60.2061
655.46        60.08443
655.88        60.96452
656.31        61.73811
656.74        64.70709
657.16        63.75328
657.59        62.28045
658.02        60.93194
658.45        60.73874
658.87        60.19407
659.30        60.72424
659.73        60.56327
660.15        60.43449
660.58        60.79895
661.01        60.91706
661.44        60.99432
661.86        60.83797
662.29        60.54521
662.72        60.47091
663.14        60.62557
663.57        60.69804
664.00        60.65902
664.42        60.67361
664.85        60.74255
665.27        60.65535
665.70        60.63198
666.13         60.6137
666.55        60.67292
666.98        60.76166
667.41         60.8502
667.83         60.9011
668.26        60.91267
668.69         60.8503
669.11        60.72295
669.54        60.75864
669.96        61.01554
670.39         60.6138
670.82        61.00744
671.24        61.00575
671.67        61.01615
672.09        61.02908
672.52        61.05902
672.94        60.97455
673.37         60.8172
673.80         60.7974
674.22        60.91288
674.65        60.94322
675.07        60.89642
675.50        60.88552
675.92        60.91722
676.35        60.92585
676.77        60.90868
677.20        60.89935
677.62        60.92529
678.05        60.94872
678.47        60.95735
678.90        61.22162
679.32        61.22432
679.75        61.33737
680.17        61.40334
680.60        61.44297
681.02         61.4542
681.45         61.4467
681.87        61.43613
682.30        61.37972
682.72        61.31963
683.15        61.35439
683.57        61.43941
684.00        61.52615
684.42        61.28337
684.85         61.2485
685.27        61.31853
685.70        61.37521
686.12        61.37413
686.54        61.37576
686.97        61.37556
687.39        61.32373
687.82        61.22735
688.24        61.40655
688.66        61.31134
689.09        61.60936
689.51        61.63625
689.94        61.74079
690.36        61.75367
690.78        61.66917
691.21        61.53764
691.63        61.41291
692.06        61.36773
692.48        61.49556
692.90        61.73664
693.33        61.87483
693.75        61.88798
694.17        61.83316
694.60         61.7375
695.02        61.81856
695.44        61.80144
695.87        61.77758
696.29        61.71286
696.71        61.60915
697.14        61.53672
697.56        61.86663
697.98        62.46161
698.41        62.45467
698.83         62.4279
699.25        62.12778
699.68         61.8489
700.10        61.66806
700.52        61.63865
700.94        61.73613
701.37        61.86748
701.79        61.93725
702.21        61.89357
702.64        61.77753
703.06        61.65847
703.48        61.64978
703.90        61.77627
704.33        61.99249
704.75        62.21853
705.17         62.3108
705.59        62.23928
706.01        62.04773
706.44        61.83857
706.86        61.79876
707.28        61.95504
707.70        62.24243
708.12        62.56071
708.55        62.75161
708.97        62.76781
709.39        62.66793
709.81        62.50528
710.23        62.37593
710.66        62.32262
711.08         62.3311
711.50        62.36584
711.92        62.39019
712.34        62.39264
712.76        62.38335
713.19        62.38191
713.61        62.46145
714.03        62.60017
714.45        62.78461
714.87        62.95357
715.29        62.97346
715.71          62.821
716.13        62.70096
716.56        62.37448
716.98        62.23927
717.40         62.2313
717.82        62.31888
718.24         62.4584
718.66        62.57823
719.08        62.65355
719.50         62.7086
719.92        62.73749
720.34         62.7279
720.76          62.685
721.19        62.59656
721.61        62.52377
722.03        62.54259
722.45        62.66854
722.87        62.88361
723.29        63.11919
723.71        63.25915
724.13        63.27385
724.55        63.19054
724.97        63.08255
725.39        63.07362
725.81        63.19189
726.23        63.39562
726.65        63.60477
727.07        63.70016
727.49        63.65519
727.91        63.49774
728.33        63.30235
728.75        63.22379
729.17        63.28245
729.59        63.36679
730.01        63.44107
730.43        63.51204
730.85        63.55954
731.27        63.55301
731.69        63.52651
732.10        63.49427
732.52         63.6585
732.94        63.61425
733.36        63.45049
733.78         63.3744
734.20        63.40483
734.62        63.42165
735.04        63.41919
735.46        63.44642
735.88        63.50269
736.30        63.57852
736.72        63.65866
737.13        63.74246
737.55        63.78868
737.97         63.7836
738.39        63.75769
738.81         63.8442
739.23        64.01576
739.65        64.07115
740.06        63.97672
740.48        63.95139
740.90        63.96929
741.32        63.93431
741.74        63.86755
742.16        63.86197
742.57        63.93899
742.99        64.05145
743.41        64.17281
743.83        64.24022
744.25        64.23761
744.67        64.18018
745.08         64.1229
745.50        64.11279
745.92        64.18241
746.34        64.32051
746.75        64.47159
747.17        64.54223
747.59        64.51392
748.01        64.37807
748.42        64.23266
748.84        64.25804
749.26        64.44243
749.68        64.69321
750.09        64.90734
750.51        64.78992
750.93        64.42461
751.35        64.39046
751.76        64.69621
752.18        64.53978
752.60        64.51318
753.01        64.44678
753.43        64.47974
753.85        64.42041
754.27        64.26459
754.68        64.08704
755.10        63.97213
755.52        63.88335
755.93        64.08757
756.35        64.34765
756.77        64.65548
757.18        64.80157
757.60        64.73063
758.02         64.6339
758.43        64.62955
758.85        64.19204
759.26         64.4669
759.68        64.75153
760.10        64.47627
760.51        64.45902
760.93        65.17575
761.34         64.2354
761.76        64.86827
762.18        64.77447
762.59        64.78658
763.01        64.84859
763.42        64.16644
763.84         64.1996
764.26         64.3214
764.67        64.64502
765.09        64.94099
765.50        65.02508
765.92        64.93415
766.33        64.86065
766.75        64.84077
767.16        64.84873
767.58        64.83011
768.00        64.99446
768.41        65.29838
768.83         65.1388
769.24        64.59547
769.66         64.9366
770.07         65.1707
770.49        65.15273
770.90        64.69781
771.32        64.64494
771.73        64.99372
772.15        65.16097
772.56        65.14479
772.97        65.23374
773.39        65.38805
773.80        65.47746
774.22         65.4564
774.63        65.38407
775.05        65.27213
775.46        65.19207
775.88         65.1463
776.29        65.14582
776.70        65.15549
777.12        65.13441
777.53        65.09319
777.95         65.0339
778.36        65.00227
778.77        65.06348
779.19        65.22561
779.60         65.4678
780.02        65.71442
780.43        65.88625
780.84        65.95829
781.26        65.87397
781.67        65.72864
782.09        65.76637
782.50        65.94233
782.91        65.94081
783.33        65.73512
783.74        65.62858
784.15        65.60327
784.57        65.50855
784.98        65.39192
785.39        65.38717
785.81        65.50491
786.22        65.69463
786.63        65.90666
787.04         66.0657
787.46        66.16042
787.87        66.19238
788.28        66.19029
788.70        66.19112
789.11         66.1879
789.52        66.17464
789.93        66.17182
790.35        66.20427
790.76        66.29189
791.17         66.4398
791.58         66.5927
792.00        66.65985
792.41        66.65919
792.82        66.53791
793.23        66.41956
793.65        66.59568
794.06        67.01298
794.47        67.35551
794.88        67.59798
795.29        67.39661
795.71        67.75601
796.12        67.71381
796.53        67.56702
796.94        67.39098
797.35         67.2201
797.76        67.05405
798.18        66.90995
798.59        66.80333
799.00        66.73763
799.41        66.74181
799.82        66.78944
800.23        66.81297
800.64        66.79713
801.06        66.74064
801.47        66.70478
801.88        66.71374
802.29        66.78053
802.70        66.89321
803.11        67.02989
803.52        67.15282
803.93         67.2416
804.34        67.30032
804.75        67.35316
805.17        67.38799
805.58        67.42458
805.99        67.57056
806.40        67.77617
806.81        67.63851
807.22        67.29267
807.63        67.47635
808.04        68.09428
808.45        68.32393
808.86         68.0919
809.27        67.85175
809.68        67.71104
810.09        67.64321
810.50        67.68472
810.91        67.84325
811.32        68.02268
811.73        68.06113
812.14        67.92136
812.55        67.65124
812.96        67.34757
813.37        67.18087
813.78        67.19992
814.19        67.34509
814.60        67.54363
815.01        67.68817
815.42         67.7436
815.83        67.74272
816.24        67.70629
816.65        67.66879
817.05        67.65745
817.46        67.63871
817.87        67.64076
818.28        67.66813
818.69        67.72465
819.10        67.80949
819.51        67.94486
819.92        68.16008
820.33        68.43759
820.74        68.74205
821.14        68.99792
821.55        69.11683
821.96        69.06966
822.37        68.88943
822.78        68.61922
823.19        68.34394
823.60        68.10748
824.00        67.90822
824.41        67.74924
824.82        67.69444
825.23        67.74648
825.64        67.90688
826.04        68.10448
826.45        68.17827
826.86        68.10879
827.27        67.92885
827.68        67.73923
828.08        67.74861
828.49        67.93609
828.90        68.28347
829.31        68.69565
829.72        68.93227
830.12        68.94509
830.53        69.12668
830.94        68.86441
831.35        68.73478
831.75        68.59476
832.16        68.41855
832.57        68.28213
832.97        68.30618
833.38        68.49844
833.79        68.81547
834.20        69.16363
834.60         69.3983
835.01        69.47773
835.42        69.43655
835.82        69.31928
836.23        69.16055
836.64        69.00842
837.04        68.87002
837.45        68.73681
837.86        68.65434
838.26         68.6414
838.67        68.67902
839.08        68.77077
839.48         68.8992
839.89        69.04178
840.29        69.19889
840.70        69.34395
841.11        69.43537
841.51        69.48222
841.92        69.46283
842.33        69.42393
842.73        69.44367
843.14        69.49985
843.54        69.60411
843.95        69.73337
844.35        69.87331
844.76        70.00256
845.17        70.12684
845.57        70.24601
845.98        70.32526
846.38        70.38251
846.79        70.39022
847.19        70.38232
847.60        70.33691
848.00        70.29191
848.41        70.22689
848.81         70.1807
849.22         70.1405
849.62         70.1488
850.03        70.16999
850.43        70.24303
850.84        70.32055
851.24        70.44127
851.65        70.54156
852.05        70.65646
852.46        70.74133
852.86        70.78173
853.27        70.82191
853.67         70.7732
854.07        70.65751
854.48         70.4515
854.88        70.18417
855.29        69.88345
855.69        69.77663
856.10        69.82133
856.50         70.0584
856.90        70.31612
857.31        70.34705
857.71        70.15084
858.12        69.74823
858.52        69.29071
858.92        68.96742
859.33        68.83328
859.73        68.88184
860.13        69.04165
860.54        69.19349
860.94        69.35172
861.34        69.50189
861.75        69.62833
862.15        69.78217
862.55        69.92351
862.96        70.01042
863.36        70.02611
863.76        69.90275
864.17        69.63282
864.57        69.27917
864.97        68.88344
865.38        68.49673
865.78         68.1971
866.18        67.97474
866.58        67.88834
866.99        68.00388
867.39        68.34456
867.79        68.84344
868.19        69.36476
868.60        69.63467
869.00        69.67237
869.40        69.70047
869.80        69.68917
870.21        69.42529
870.61        68.98746
871.01        68.49442
871.41        68.05356
871.81        67.73032
872.22        67.56342
872.62        67.56097
873.02        67.68154
873.42         67.9856
873.82        68.26823
874.22         68.0868
874.63        67.71408
875.03        67.69833
875.43        68.10272
875.83        69.49405
876.23        69.40145
876.63        69.09313
877.03        68.30151
877.44        66.53519
877.84        159.7613
878.24        67.20653
878.64        67.71992
879.04        68.86477
879.44        69.12268
879.84        65.98087
880.24         70.2083
880.64         70.1851
881.04        67.91525
881.44        66.34405
881.84        66.01912
882.24        66.98589
882.65        68.49449
883.05        69.06014
883.45        68.38873
883.85        67.29806
884.25        66.31852
884.65        65.95844
885.05        66.37695
885.45        67.30887
885.85        68.34753
886.25        68.93774
886.65        68.93687
887.05        68.53844
887.45        67.90309
887.85        67.29127
888.25        66.83581
888.65        66.46855
889.04        66.24696
889.44        66.27937
889.84        66.54748
890.24        67.00201
890.64        67.52181
891.04        67.91353
891.44        68.12681
891.84         68.2224
892.24        68.17283
892.64        67.95309
893.04        67.60239
893.44        67.13438
893.83        66.76598
894.23        66.79942
894.63        67.28198
895.03        68.12748
895.43        69.04299
895.83        69.52607
896.23        69.45737
896.63        68.98849
897.02        68.38714
897.42        68.12212
897.82        68.26467
898.22        68.66692
898.62        69.12746
899.01        69.33386
899.41        69.17877
899.81        68.79649
900.21         68.3178
900.61        67.94431
901.00        67.73509
901.40        67.68256
901.80        67.75313
902.20        67.78003
902.59        67.71624
902.99        67.85037
903.39        68.28156
903.79         67.6703
904.18        68.36877
904.58        68.45396
904.98        68.55091
905.38        68.49718
905.77         68.2746
906.17        67.94934
906.57        67.58855
906.96        67.39954
907.36        67.42913
907.76        67.64155
908.15        67.97825
908.55        68.18866
908.95        68.25656
909.34        68.19226
909.74        68.12204
910.14        68.20797
910.53        68.47501
910.93        68.85133
911.33        69.15517
911.72        69.10308
912.12        68.66354
912.52        67.94897
912.91        67.17408
913.31        66.75755
913.70        66.77049
914.10         67.0872
914.49        67.55074
914.89        67.80099
915.29        67.76081
915.68        67.53333
916.08        67.23907
916.47        67.01677
916.87        66.95226
917.26        66.98156
917.66        67.10089
918.05        67.33542
918.45        67.64275
918.84        68.01987
919.24         68.3953
919.64        68.70209
920.03        68.92064
920.42         69.0566
920.82        69.07898
921.21        68.96778
921.61        68.76478
922.00        68.53232
922.40        68.45043
922.79        68.68216
923.19        68.91473
923.58        69.83831
923.98        71.54429
924.37        71.66268
924.77        68.96301
925.16        75.30869
925.55        69.40504
925.95        69.42232
926.34        69.30182
926.74        68.81604
927.13        67.89964
927.52        67.49389
927.92        67.95838
928.31        68.71828
928.70        69.59953
929.10        70.28851
929.49        70.71986
929.89         70.9858
930.28        71.02305
930.67        70.63132
931.07        69.85467
931.46        68.68891
931.85        67.54311
932.24        67.50643
932.64        68.72739
933.03        70.33755
933.42        71.49762
933.82         73.8506
934.21        72.69749
934.60        71.72974
934.99        70.62138
935.39        70.21652
935.78         70.5861
936.17        72.07287
936.56        77.36062
936.96        71.22628
937.35        74.60387
937.74        71.98329
938.13        70.25748
938.53        68.93044
938.92        68.55003
939.31        69.54698
939.70        70.83874
940.09        71.35087
940.49        70.85101
940.88        69.73589
941.27        68.43092
941.66        67.74949
942.05        67.99492
942.44        68.84453
942.84        69.89594
943.23         70.6872
943.62        71.05476
944.01         71.1172
944.40         71.0771
944.79        71.25708
945.18        71.72052
945.57        72.34213
945.97        72.78873
946.36        72.67485
946.75        71.89713
947.14        70.61099
947.53        69.25949
947.92        68.59286
948.31        68.81232
948.70        69.69383
949.09        70.77096
949.48        71.31307
949.87        71.13967
950.26        70.47299
950.65        69.63783
951.04        69.16995
951.43        69.22648
951.82        69.61525
952.21        70.12516
952.60          70.416
952.99        70.36576
953.38         70.1028
953.77        69.73787
954.16        69.39946
954.55         69.1435
954.94        68.95027
955.33          68.795
955.72        68.65267
956.11         68.5335
956.50        68.45142
956.89        68.52371
957.28        68.91653
957.66        69.64948
958.05        70.56023
958.44        71.40307
958.83        71.81824
959.22        71.71989
959.61        71.16991
960.00        70.38344
960.39        69.80178
960.78        69.60231
961.16        69.73642
961.55        69.90847
961.94        69.76638
962.33        69.23844
962.72        68.41785
963.11          67.612
963.49        67.43543
963.88         68.0369
964.27        69.17587
964.66        70.35199
965.04        70.90739
965.43        70.66619
965.82        69.85892
966.21        68.84457
966.60        68.27002
966.98        68.34474
967.37        68.86201
967.76         69.5602
968.15         70.0015
968.53        70.07533
968.92        69.92486
969.31        69.68179
969.69        69.53604
970.08        69.52427
970.47        69.53789
970.86        69.62658
971.24        69.90243
971.63         70.3217
972.02        70.86569
972.40        71.29536
972.79        71.15679
973.17        70.45241
973.56        69.31921
973.95        68.14192
974.33        67.61758
974.72        67.93855
975.11        68.87511
975.49        70.17609
975.88        71.32857
976.26        72.19933
976.65        72.84441
977.04        73.22483
977.42         73.2578
977.81        72.92638
978.19        72.18157
978.58        71.45983
978.96        71.51712
979.35        72.45366
979.74        73.95629
980.12        75.44749
980.51        76.03172
980.89         75.6993
981.28        74.60091
981.66        73.07191
982.05        72.00381
982.43        71.77668
982.82        72.17873
983.20        72.88437
983.59        73.32665
983.97         73.3857
984.35        73.22266
984.74        72.91085
985.12        72.64871
985.51        72.49731
985.89        72.46062
986.28        72.50298
986.66        72.65642
987.04        72.95355
987.43        73.27702
987.81        73.48696
988.20        74.51359
988.58        76.38891
988.96        76.90476
989.35        75.36701
989.73        79.79416
990.12        76.29299
990.50        75.60674
990.88        74.24446
991.27         73.2995
991.65        72.93364
992.03        73.21536
992.42        73.93778
992.80         74.1763
993.18        73.71058
993.56        72.81718
993.95        71.88792
994.33        71.52636
994.71        71.90493
995.10        72.78313
995.48        73.86726
995.86        74.68278
996.24        75.06189
996.63        75.06775
997.01        74.95576
997.39        74.92707
997.77        75.02656
998.15        75.15498
998.54        75.23368
998.92         75.0443
999.30        74.59291
999.68        74.01057
1000.06        73.39471
1000.45        72.89185
1000.83        72.72443
1001.21        72.82966
1001.59        73.31648
1001.97        74.32385
1002.35        75.70487
1002.73        77.23574
1003.12        78.60532
1003.50        79.49303
1003.88        79.84029
1004.26        79.75878
1004.64        79.25884
1005.02        78.41566
1005.40        77.34544
1005.78        76.07181
1006.16         74.9005
1006.54        74.27759
1006.92        74.32362
1007.30        75.02176
1007.69        75.96669
1008.07        76.61443
1008.45        76.82455
1008.83        76.71941
1009.21        76.67637
1009.59        77.43602
1009.97        78.98882
1010.35        80.75018
1010.73        82.26788
1011.11        83.33248
1011.49        84.03615
1011.86         84.3586
1012.24         83.9461
1012.62        84.39176
1013.00        83.77086
1013.38        82.07325
1013.76        78.50085
1014.14        81.58224
1014.52        87.48412
1014.90        81.83697
1015.28        84.49112
1015.66        86.52842
1016.04        83.96468
1016.41        83.37732
1016.79        81.59168
1017.17        80.53806
1017.55        79.95889
1017.93        79.82774
1018.31        80.27594
1018.69        81.00201
1019.06        81.89212
1019.44        82.94255
1019.82        83.73725
1020.20         83.6503
1020.58        82.54943
1020.95        80.28259
1021.33        77.36889
1021.71        75.67502
1022.09        76.25098
1022.46        78.33282
1022.84        80.58246
1023.22        81.99298
1023.60        82.58463
1023.97        82.73445
1024.35        82.71724
1024.73        82.98815
