SpectraSmart Spectrum 2.9.0.0
--------- Device Information -----------
Spectrum Name :  反射率_0
Saving Time :  2024/04/21 00:00:51
Spectro-Module Model Name : SE2030-DUVN
Spectro-Module Serial Number : OS361AC55029948
Wavelength Start : 200
Wavelength End : 1025
Wavelength Unit : Wavelength(nm)
Spectrum Unit : Reflectance(%)
-----------Spectrum Setting ------------
Integration Time : 20ms
Average : 10
Boxcar : 0
Background removal :  enabled
linearity correction :  enabled
SC :  disabled
Intensity correction :  disabled
DWT denoise :  enabled
savitzky-golay :  disabled
FFT :  disabled
Running average :  disabled
Kalman :  disabled
High pass :  disabled
---------------BEGIN--------------------
Wavelength(nm)             Reflectance(%)
200.29               0
200.75       -55.63935
201.21        2.221562
201.67        35.10022
202.13        49.61643
202.58        54.10389
203.04        53.98317
203.50        49.57121
203.96        41.50084
204.42        31.55706
204.88        19.29374
205.34        7.969629
205.80        1.084501
206.26      -0.7852357
206.72        5.621921
207.18        15.38707
207.64         13.4247
208.10       -4.578609
208.55       -33.49994
209.01       -49.97518
209.47       -27.28453
209.93         7.97068
210.39        35.91638
210.85        53.86103
211.31         62.6433
211.77        65.36744
212.23        64.42602
212.69         57.2239
213.14        35.98914
213.60       -17.93375
214.06       -197.9404
214.52       -650.0016
214.98       -287.1391
215.44       -49.93872
215.90        29.68366
216.36         57.7177
216.81         66.1223
217.27         63.9045
217.73        36.52893
218.19        419.1956
218.65        250.4756
219.11       -546.9504
219.57        -9.53342
220.02        26.00672
220.48        31.11741
220.94        24.97823
221.40        5.915804
221.86       -36.95166
222.32       -59.27757
222.77       -14.97138
223.23        20.34298
223.69        37.43386
224.15        43.08171
224.61        42.84264
225.06        39.63658
225.52        34.33438
225.98        27.84884
226.44         21.0099
226.90        12.69113
227.36        6.463979
227.81        9.031255
228.27        17.51145
228.73        27.06234
229.19        33.38653
229.65        34.07243
230.10        29.90537
230.56        22.37013
231.02        12.82481
231.48         6.67181
231.93        7.690728
232.39         13.7078
232.85        20.36154
233.31        23.97932
233.77        24.77577
234.22        24.42723
234.68        23.32301
235.14        22.11501
235.60        21.46784
236.05        20.31263
236.51        18.95405
236.97        24.07126
237.43        35.83526
237.88        43.94804
238.34        44.59722
238.80        65.19229
239.26        55.94098
239.71        52.90099
240.17        43.26677
240.63        33.95701
241.08        30.26478
241.54        35.69535
242.00        49.06178
242.46        58.24945
242.91        60.15033
243.37        55.48132
243.83        45.99949
244.28        40.12964
244.74        43.04895
245.20        50.30693
245.66         56.2182
246.11        55.16789
246.57        46.58353
247.03        32.54768
247.48        15.48168
247.94      -0.5679129
248.40       -16.28172
248.85       -43.07042
249.31       -104.5745
249.77        -114.345
250.22       -7.756895
250.68        25.99109
251.14        35.57528
251.59        39.71715
252.05        43.01233
252.51        46.33005
252.96        49.53215
253.42        52.00459
253.88        52.48648
254.33        51.78391
254.79        52.07836
255.25        53.34873
255.70        54.83612
256.16        56.28561
256.62        57.57833
257.07        58.73402
257.53         60.0129
257.99        61.06451
258.44        61.32214
258.90        60.95478
259.35        59.68511
259.81         58.2575
260.27        56.81135
260.72         55.6002
261.18        54.93287
261.63        54.34351
262.09        53.86858
262.55        53.13858
263.00        52.07611
263.46        51.00693
263.91        49.88518
264.37         49.0704
264.83        48.49626
265.28        48.00339
265.74        47.60866
266.19        47.13126
266.65        46.58733
267.11        45.95562
267.56        45.16752
268.02        44.21646
268.47         43.0657
268.93        41.77232
269.38        40.39319
269.84        39.08322
270.30        37.88862
270.75        36.81082
271.21        35.84804
271.66        34.91302
272.12        34.02746
272.57        33.19963
273.03        32.51262
273.48        32.04123
273.94        31.78803
274.39        31.65166
274.85        31.53828
275.31        31.24426
275.76        30.73109
276.22        30.12048
276.67        29.47029
277.13        28.94826
277.58        28.55057
278.04        28.23766
278.49        27.98168
278.95        27.83049
279.40        27.71164
279.86        27.64353
280.31        27.46509
280.77        27.02738
281.22         26.3001
281.68        25.42355
282.13          24.532
282.59        23.89848
283.04         23.5527
283.50        23.43406
283.95        23.46399
284.41        23.54825
284.86        23.63401
285.32        23.76714
285.77        23.89554
286.22        23.96029
286.68        23.97724
287.13        23.91286
287.59        23.89478
288.04        24.01602
288.50        24.26491
288.95        24.72171
289.41        25.30119
289.86        25.39556
290.32        24.91087
290.77        25.78502
291.22        24.95118
291.68          25.154
292.13        25.50362
292.59        26.05107
293.04        26.72898
293.50         27.5012
293.95        28.36587
294.40        29.31616
294.86        30.37283
295.31        31.55361
295.77        32.84976
296.22        34.22054
296.68        35.62888
297.13        37.01834
297.58        38.38712
298.04        39.74861
298.49        41.13183
298.95        42.60381
299.40        44.15984
299.85         45.7948
300.31        47.44958
300.76        49.00793
301.21        50.46463
301.67         51.8755
302.12        53.32064
302.58        55.02555
303.03        56.98396
303.48        59.16208
303.94        61.40847
304.39        63.43729
304.84        65.19324
305.30         66.7718
305.75        68.27055
306.20        69.94771
306.66        71.85147
307.11         73.8457
307.57        75.82471
308.02        77.55863
308.47        79.02712
308.93        80.34394
309.38        81.56561
309.83        82.83163
310.29        84.24285
310.74        85.67219
311.19        87.08668
311.65        88.39697
312.10        89.55992
312.55        90.61624
313.00        91.58909
313.46        92.51435
313.91        93.39198
314.36        94.21836
314.82        95.00576
315.27        95.77055
315.72        96.52205
316.18        97.25453
316.63        97.95625
317.08        98.60738
317.53         99.1956
317.99        99.72403
318.44        100.1803
318.89        100.5313
319.35        100.7815
319.80         100.957
320.25        101.1112
320.70        101.3362
321.16        101.6438
321.61          102.02
322.06        102.4205
322.51        102.7774
322.97        103.0545
323.42        103.3147
323.87        103.5349
324.32        103.6986
324.78        103.7947
325.23        103.8552
325.68        103.9411
326.13        104.1863
326.59        104.5859
327.04        105.1581
327.49        105.7459
327.94        106.1154
328.39        106.2108
328.85        106.0691
329.30        105.9033
329.75        105.9451
330.20        106.2706
330.66        106.7697
331.11        107.3946
331.56        107.9219
332.01        108.2876
332.46        108.5572
332.92        108.7327
333.37        108.9611
333.82         109.235
334.27        109.5226
334.72        109.8516
335.17        110.2783
335.63        110.7747
336.08        111.3919
336.53         112.033
336.98        112.5766
337.43        112.9877
337.88        113.2901
338.34        113.5234
338.79        113.8223
339.24        114.1975
339.69        114.6219
340.14        115.0578
340.59        115.4482
341.05        115.7858
341.50        116.1083
341.95        116.4485
342.40        116.8601
342.85        117.3475
343.30        117.8709
343.75        118.3929
344.20        118.8667
344.66        119.2716
345.11        119.5924
345.56        119.8104
346.01        119.8964
346.46        119.8716
346.91        119.7565
347.36        119.5911
347.81        119.4961
348.26        119.5115
348.72         119.393
349.17        119.5651
349.62        119.7544
350.07        120.0656
350.52        120.4495
350.97        120.7867
351.42        120.8765
351.87          120.67
352.32        120.2376
352.77        119.6808
353.22        119.1598
353.67        118.7336
354.13        118.3813
354.58        118.0749
355.03        117.8209
355.48        117.6008
355.93        117.4081
356.38        117.2086
356.83         116.939
357.28        116.5752
357.73        116.1264
358.18        115.5729
358.63        114.9031
359.08        114.1346
359.53        113.2758
359.98        112.4144
360.43        111.6762
360.88        111.0791
361.33        110.5971
361.78        110.1119
362.23        109.4303
362.68        108.5209
363.13        107.4485
363.58        106.3574
364.03        105.4742
364.48        104.8471
364.93        104.4021
365.38        104.0071
365.83        103.4521
366.28        102.6814
366.73        101.7595
367.18        100.7875
367.63        99.92846
368.08        99.22461
368.53        98.61941
368.98        98.03034
369.43        97.32188
369.88        96.45938
370.33        95.49667
370.78        94.49815
371.23        93.58749
371.68        92.81912
372.13        92.15422
372.58        91.59313
373.03        91.12038
373.48        90.70789
373.93        90.36675
374.38        90.00552
374.83        89.48158
375.28        88.78408
375.72        87.93554
376.17        87.11996
376.62        86.54155
377.07        86.21858
377.52        86.06655
377.97        85.92377
378.42        85.53101
378.87        84.84335
379.32        83.97861
379.77        83.06924
380.22        82.28421
380.67        81.65938
381.11        81.13393
381.56        80.68118
382.01        80.28463
382.46        79.93352
382.91        79.64893
383.36         79.3696
383.81        78.99106
384.26         78.4959
384.71         77.9039
385.15        77.29582
385.60           76.87
386.05        76.63465
386.50         76.5358
386.95        76.45853
387.40        76.22677
387.85        75.81272
388.29        75.24086
388.74        74.71013
389.19        74.29624
389.64        74.01455
390.09        73.81525
390.54         73.6395
390.98        73.38464
391.43        73.06895
391.88        72.71833
392.33        72.37782
392.78        72.09257
393.23        71.87025
393.67        71.69093
394.12        71.58859
394.57        71.36707
395.02        71.04312
395.47        70.81056
395.91        70.68732
396.36        70.50373
396.81         70.2831
397.26        70.16378
397.71        70.07789
398.15        69.86024
398.60        69.58112
399.05        69.14239
399.50        68.72047
399.95        68.72029
400.39        69.06989
400.84        69.33447
401.29        69.35248
401.74        68.93744
402.18        68.22651
402.63        67.81518
403.08        67.73817
403.53        67.49363
403.97         67.0908
404.42        66.90642
404.87        66.93555
405.32        66.97223
405.76         66.9774
406.21        67.06158
406.66        67.12061
407.11        66.91804
407.55        66.48871
408.00         66.0033
408.45        65.60555
408.90        65.37149
409.34        65.33076
409.79        65.48453
410.24         65.7081
410.68        65.81291
411.13        65.74966
411.58        65.55332
412.03        65.29967
412.47        65.15715
412.92        65.14893
413.37        65.23147
413.81        65.32843
414.26        65.38529
414.71        65.36421
415.15        65.30405
415.60        65.21557
416.05        65.17105
416.49        65.18633
416.94        65.22229
417.39        65.23868
417.83         65.1694
418.28        65.00516
418.73        64.77167
419.17        64.50284
419.62        64.26373
420.07        64.08162
420.51        63.93975
420.96        63.86221
421.41        63.83114
421.85        63.81293
422.30        63.85778
422.74        63.92155
423.19        64.02331
423.64        64.14799
424.08        64.34762
424.53        64.52686
424.98        64.63497
425.42        64.67336
425.87        64.56884
426.31        64.40678
426.76        64.48779
427.21        64.75363
427.65        64.77644
428.10         64.5489
428.54        64.47393
428.99         64.5935
429.44        64.68138
429.88        64.68591
430.33        64.67773
430.77        64.61031
431.22         64.6156
431.66        64.67103
432.11        64.73082
432.56        64.85579
433.00        64.87595
433.45        64.58833
433.89        64.73896
434.34        65.47124
434.78        64.07051
435.23        64.11337
435.67        65.16755
436.12        65.07161
436.57        65.24517
437.01        64.92932
437.46        64.65842
437.90        65.07726
438.35        65.58319
438.79        65.52687
439.24        65.60235
439.68        65.57468
440.13        65.45088
440.57        65.27882
441.02        65.23258
441.46         65.3196
441.91        65.41215
442.35        65.45313
442.80        65.77174
443.24        66.23507
443.69        66.41628
444.13        66.27248
444.58        66.07051
445.02        65.88284
445.47        65.88671
445.91        66.03893
446.36         66.0759
446.80        65.97962
447.24        65.91357
447.69        65.90218
448.13        66.02286
448.58        66.06225
449.02        66.00089
449.47        65.84264
449.91        65.83102
450.36        65.99514
450.80        66.12399
451.25        66.18747
451.69        66.27046
452.13        66.30813
452.58        66.01802
453.02        65.50182
453.47        65.21025
453.91        65.18103
454.36         65.2049
454.80        65.22168
455.24        65.24506
455.69        65.26818
456.13         65.2019
456.58        65.06767
457.02        65.09309
457.46        64.90076
457.91        64.67434
458.35        64.46159
458.79        64.28936
459.24          64.215
459.68        64.20226
460.13        64.26493
460.57        64.19103
461.01        63.95967
461.46        64.07898
461.90        63.89351
462.34         63.6452
462.79        63.66615
463.23         63.7339
463.68        64.01993
464.12        63.89518
464.56        63.48798
465.01        63.53569
465.45        63.85589
465.89        63.85831
466.34        63.59607
466.78        63.33009
467.22         63.0491
467.67        63.38132
468.11        62.63264
468.55        62.65001
468.99        62.79678
469.44        62.81771
469.88        62.66005
470.32        62.51716
470.77        62.43794
471.21        62.37418
471.65        62.33543
472.10        62.33018
472.54        62.32387
472.98         62.2895
473.42        62.22404
473.87         62.1386
474.31        62.02621
474.75        62.00187
475.20        62.03861
475.64        62.00916
476.08        61.94846
476.52        61.90526
476.97         61.8279
477.41        61.96202
477.85        62.32694
478.29        61.66805
478.74        61.62202
479.18        61.90256
479.62        61.55709
480.06         61.6078
480.50        61.64037
480.95        61.76765
481.39        61.89289
481.83        61.89912
482.27        62.19823
482.72        61.78533
483.16        61.98863
483.60        61.90371
484.04        62.07892
484.48        61.75998
484.93        61.80948
485.37        61.46731
485.81         61.9456
486.25        61.58804
486.69        62.64606
487.14        62.14561
487.58        61.90628
488.02        61.38711
488.46        61.41814
488.90        61.61189
489.34        61.48537
489.79        61.03846
490.23        61.43633
490.67        61.45301
491.11        61.46038
491.55        61.35794
491.99        61.20217
492.43        61.12167
492.88          61.122
493.32        61.16224
493.76        61.16515
494.20        61.15775
494.64        61.15252
495.08        60.78035
495.52        60.66835
495.96        60.73377
496.41        61.04425
496.85        61.15205
497.29        60.97927
497.73        60.93261
498.17        60.71802
498.61        60.67961
499.05        60.69968
499.49        60.53159
499.93        60.27417
500.37        60.32547
500.82        60.61909
501.26        60.86636
501.70         60.9776
502.14        60.61687
502.58        60.37827
503.02        60.20935
503.46        60.24699
503.90        60.34548
504.34        60.41848
504.78        60.46452
505.22        60.48679
505.66        60.35066
506.10        60.10654
506.54        60.24636
506.98        60.76788
507.42         60.1875
507.86        60.51679
508.30        60.27204
508.74        60.45668
509.18        60.48418
509.62        60.45847
510.06        60.43191
510.50        60.36885
510.94        60.20369
511.38        59.98442
511.82         59.8667
512.26        59.86971
512.70        59.92834
513.14        60.00573
513.58        60.05716
514.02        60.06266
514.46        60.03739
514.90        59.97989
515.34        59.92726
515.78        59.89483
516.22        59.83991
516.66        59.62545
517.10        59.88171
517.54        59.70228
517.98        59.78991
518.42        59.86071
518.86        59.91072
519.30        59.92935
519.74         59.8907
520.18        59.83143
520.62        59.88229
521.06        60.00592
521.50        59.97065
521.93        59.79964
522.37         59.7225
522.81        59.75309
523.25        59.76866
523.69        59.73909
524.13        59.67036
524.57        59.56244
525.01        59.42375
525.45        59.30044
525.89        59.26528
526.32        59.32906
526.76        59.46655
527.20         59.6369
527.64        59.77962
528.08        59.86946
528.52        59.91603
528.96        59.91512
529.40        59.87429
529.83        59.79097
530.27        59.65582
530.71        59.50111
531.15        59.41747
531.59        59.41919
532.03        59.47037
532.46        59.53747
532.90        59.58826
533.34        59.60061
533.78        59.58549
534.22        59.53945
534.66        59.45705
535.09         59.3386
535.53        59.21177
535.97        59.09151
536.41         59.0186
536.85        59.00407
537.28         59.0366
537.72        59.10808
538.16        59.20303
538.60        59.30489
539.04        59.40998
539.47        59.48195
539.91        59.51813
540.35        59.50097
540.79        59.44134
541.22        59.35551
541.66        59.28551
542.10        59.24159
542.54        59.21562
542.97        59.20358
543.41         59.2264
543.85        59.27441
544.29        59.35298
544.72        59.42485
545.16        59.46544
545.60        59.45213
546.04        59.37532
546.47        59.28592
546.91        59.27382
547.35        59.33222
547.79        59.45827
548.22        59.55765
548.66        59.41754
549.10        59.11483
549.53        59.01488
549.97        59.13534
550.41        59.16506
550.84        59.08668
551.28        59.12904
551.72        59.27914
552.15        59.30769
552.59        59.19213
553.03        59.39174
553.46        59.17472
553.90        59.15645
554.34        59.11976
554.77        59.07238
555.21        59.03763
555.65        59.05421
556.08        59.12128
556.52        59.22391
556.96         59.3226
557.39        59.39083
557.83        59.41216
558.27         59.3292
558.70        59.17854
559.14        59.05245
559.57         58.9711
560.01        59.02569
560.45        59.14285
560.88        59.06793
561.32        58.88101
561.75        58.80866
562.19         58.8926
562.63        59.00465
563.06        59.10205
563.50        59.09652
563.93        58.99443
564.37        59.02203
564.80        59.13024
565.24        59.12185
565.68        59.01316
566.11        58.96638
566.55        59.00367
566.98        59.07976
567.42        59.17165
567.85        59.08024
568.29        58.89825
568.72        58.91175
569.16        59.13444
569.60        59.16377
570.03        59.28773
570.47         59.3117
570.90        59.18966
571.34        59.58732
571.77        59.71073
572.21        59.44865
572.64        59.51244
573.08         59.4302
573.51        59.40441
573.95        59.75411
574.38        59.56668
574.82        59.82073
575.25        60.10006
575.69        59.86127
576.12        59.43258
576.56        59.33079
576.99        59.80296
577.42        59.55814
577.86        59.39841
578.29        60.06217
578.73        60.52491
579.16        59.90734
579.60        59.52264
580.03        59.74878
580.47        59.89772
580.90        59.79122
581.33        60.00416
581.77        60.00182
582.20        60.34951
582.64         60.3493
583.07        60.01072
583.51         59.7877
583.94        59.63173
584.37        59.37544
584.81        59.10207
585.24        59.20456
585.68        59.94146
586.11        59.88894
586.54        59.40155
586.98        59.62036
587.41        59.49635
587.85         59.8084
588.28        59.86975
588.71        59.81197
589.15        59.82122
589.58        59.41936
590.01         59.2822
590.45        59.21185
590.88          59.408
591.31        59.24146
591.75        59.41009
592.18        59.20034
592.61        59.17031
593.05        59.69438
593.48        59.75416
593.91        59.78657
594.35        59.58997
594.78        59.63345
595.21        59.43959
595.65        59.39331
596.08        59.34603
596.51        59.51333
596.94        59.30719
597.38         59.3159
597.81        59.45255
598.24        59.17431
598.68        59.08194
599.11        59.25931
599.54        59.98626
599.97        59.55891
600.41        59.34004
600.84         59.3426
601.27        59.38422
601.70        59.64565
602.14        59.28473
602.57        59.19514
603.00         59.2301
603.43        59.13872
603.87        59.47621
604.30        59.38144
604.73        59.51012
605.16        59.01558
605.60        59.28975
606.03         59.3496
606.46        59.51332
606.89        59.36227
607.32          58.838
607.76         59.4611
608.19        59.30855
608.62        59.31699
609.05        60.15721
609.48        59.54575
609.92         59.2787
610.35         59.2096
610.78        59.43767
611.21        59.51623
611.64        59.24805
612.07        59.13531
612.50        59.18451
612.94        59.15652
613.37        59.04262
613.80        59.38435
614.23        59.32106
614.66        59.25772
615.09        59.01217
615.52        58.93392
615.96        59.00279
616.39        58.99018
616.82        58.91462
617.25        58.73311
617.68        58.73223
618.11        58.80842
618.54        59.13214
618.97        59.07709
619.40        58.69824
619.84        58.76027
620.27        58.71712
620.70        58.70984
621.13        58.57297
621.56        58.50953
621.99         58.5407
622.42        58.63556
622.85        58.74018
623.28        58.84798
623.71         58.9056
624.14        59.06043
624.57        58.74321
625.00        59.38579
625.43         58.7777
625.86        58.85616
626.29        59.01169
626.72        58.78714
627.15        58.77151
627.58        58.66856
628.01         58.7362
628.44        58.55646
628.87        58.33636
629.30        58.88356
629.73        58.66363
630.16        58.56905
630.59        58.60993
631.02        58.80026
631.45        58.46976
631.88        58.47415
632.31        58.61081
632.74        58.49129
633.17        58.67596
633.60        58.64639
634.03        58.57637
634.46        58.52465
634.89        58.43757
635.32        58.41673
635.75        58.45286
636.18         58.6055
636.61        58.81214
637.04        58.90653
637.47        58.86105
637.89        58.76377
638.32        58.64503
638.75          58.529
639.18         58.4341
639.61        58.45918
640.04        58.42698
640.47        58.44481
640.90        58.50998
641.33         58.5781
641.76        58.64915
642.18        58.70039
642.61        58.71259
643.04        58.69643
643.47        58.65286
643.90        58.59377
644.33        58.52788
644.76        58.44119
645.18        58.36295
645.61        58.36082
646.04        58.42889
646.47        58.49681
646.90        58.53941
647.33        58.56849
647.75        58.56441
648.18        58.52221
648.61        58.49249
649.04        58.48833
649.47        58.49298
649.89        58.84624
650.32         58.8595
650.75        58.90609
651.18        58.80759
651.61        58.77584
652.03        58.83318
652.46        58.77956
652.89        58.57898
653.32        58.67201
653.74         58.4627
654.17        58.28256
654.60        58.27048
655.03        58.56634
655.46        58.31148
655.88        58.90737
656.31        59.68578
656.74         62.7569
657.16        61.58511
657.59        59.59967
658.02        58.61104
658.45        58.67663
658.87        58.78963
659.30        58.49191
659.73         59.1132
660.15         58.4445
660.58        58.77949
661.01        58.80844
661.44        59.00668
661.86        58.91673
662.29        58.58762
662.72        58.55513
663.14        58.78183
663.57        58.77358
664.00        58.53875
664.42        58.45068
664.85        58.52983
665.27        58.47125
665.70        58.47034
666.13        58.47807
666.55        58.55678
666.98        58.66714
667.41        58.77013
667.83        58.81007
668.26        58.77969
668.69        58.64331
669.11        58.44878
669.54        58.45922
669.96        58.73834
670.39        58.49159
670.82        59.04271
671.24        58.97984
671.67        58.75119
672.09        58.67466
672.52        58.78818
672.94        58.80693
673.37         58.7259
673.80        58.70264
674.22         58.7369
674.65        58.72121
675.07        58.66799
675.50        58.59385
675.92        58.52695
676.35        58.49644
676.77         58.5102
677.20        58.57485
677.62        58.68848
678.05        58.76333
678.47        58.77311
678.90        59.01896
679.32        58.98287
679.75        59.08937
680.17         59.1748
680.60        59.27246
681.02         59.3569
681.45        59.29246
681.87        59.17235
682.30        59.08372
682.72        59.07333
683.15        58.97326
683.57        58.80344
684.00        58.91289
684.42        58.90241
684.85        58.94991
685.27        58.92089
685.70        58.89864
686.12        58.87133
686.54        58.83145
686.97        58.77676
687.39        58.73294
687.82        58.70864
688.24        58.69177
688.66        58.66588
689.09        58.86733
689.51        58.83795
689.94          58.942
690.36        59.02339
690.78        59.04033
691.21         59.0143
691.63        58.97423
692.06        58.97493
692.48         59.1138
692.90        59.32362
693.33        59.38414
693.75        59.27984
694.17        59.07031
694.60        58.82936
695.02        58.83939
695.44        58.85484
695.87        58.95272
696.29        59.03867
696.71        58.99559
697.14        58.87447
697.56        59.09686
697.98        59.57933
698.41        59.53271
698.83        59.52805
699.25        59.32047
699.68        59.15491
700.10        59.03724
700.52        59.00053
700.94        59.04186
701.37        59.09849
701.79        59.12119
702.21        59.07374
702.64        58.98281
703.06        58.89306
703.48        58.88053
703.90        58.96238
704.33        59.10666
704.75        59.26272
705.17        59.33167
705.59        59.29029
706.01         59.1716
706.44        59.05883
706.86        59.03586
707.28         59.1044
707.70        59.35424
708.12        59.74387
708.55        59.54723
708.97        59.78335
709.39        59.65066
709.81        59.50429
710.23        59.39599
710.66        59.36486
711.08         59.3884
711.50        59.41877
711.92        59.42756
712.34         59.4034
712.76        59.36092
713.19        59.32016
713.61        59.35385
714.03        59.44823
714.45        59.59219
714.87        59.74941
715.29        59.82568
715.71        59.79994
716.13        59.85412
716.56         59.7204
716.98        59.71005
717.40        59.74049
717.82        59.79654
718.24        59.86703
718.66        59.93837
719.08        60.00397
719.50        60.07056
719.92        60.11808
720.34        60.11081
720.76        60.04818
721.19        59.93298
721.61        59.82787
722.03        59.80959
722.45        59.89483
722.87        60.05819
723.29        60.24574
723.71         60.3667
724.13        60.39437
724.55        60.35357
724.97        60.27872
725.39        60.22951
725.81        60.22569
726.23         60.2465
726.65        60.27879
727.07        60.30791
727.49        60.33028
727.91        60.34544
728.33        60.35422
728.75        60.39104
729.17        60.44159
729.59        60.41848
730.01        60.36123
730.43        60.40995
730.85        60.57136
731.27        60.76132
731.69        60.92907
732.10        60.97157
732.52        61.05156
732.94        60.80561
733.36        60.39663
733.78        60.18036
734.20        60.21709
734.62        60.32655
735.04        60.45057
735.46        60.58335
735.88        60.65987
736.30        60.72603
736.72        60.75936
737.13        60.76123
737.55        60.70164
737.97        60.57188
738.39        60.43221
738.81        60.43947
739.23        60.58712
739.65        60.72063
740.06        60.75768
740.48        60.80047
740.90         60.8105
741.32        60.70442
741.74        60.58469
742.16        60.54057
742.57        60.62392
742.99        60.77182
743.41        60.93745
743.83        61.02827
744.25        61.01887
744.67        60.93612
745.08        60.84044
745.50        60.78947
745.92         60.8178
746.34        60.90776
746.75        61.00863
747.17        61.02766
747.59        60.94712
748.01        60.78881
748.42        60.63456
748.84        60.58177
749.26        60.64616
749.68        60.86559
750.09        61.13656
750.51        61.08934
750.93        60.78619
751.35        60.81364
751.76        61.16092
752.18         61.2012
752.60        60.88575
753.01        61.17934
753.43        60.91873
753.85        60.88382
754.27         60.7393
754.68        60.55178
755.10        60.39165
755.52        60.36499
755.93        60.50117
756.35        60.76756
756.77        61.07793
757.18        61.24347
757.60        61.20924
758.02        61.09389
758.43         61.0507
758.85        60.75186
759.26         61.1884
759.68        61.46925
760.10        61.08342
760.51        60.76384
760.93        61.15789
761.34        60.74069
761.76        61.24018
762.18        61.29977
762.59        61.38276
763.01         61.1978
763.42        61.04037
763.84        61.17154
764.26        61.26474
764.67        61.43237
765.09        61.55379
765.50        61.80816
765.92        62.10851
766.33        62.07359
766.75        61.72133
767.16        61.49051
767.58        61.43578
768.00        61.54283
768.41         61.8044
768.83        61.96627
769.24        61.92426
769.66        62.22557
770.07        61.91729
770.49        61.76617
770.90        61.55508
771.32        61.44281
771.73        61.44173
772.15        61.42035
772.56        61.39798
772.97        61.47622
773.39        61.61344
773.80        61.73513
774.22         61.7925
774.63        61.83281
775.05        61.85026
775.46        61.88319
775.88        61.91968
776.29        61.96454
776.70        61.99343
777.12        61.98566
777.53        61.95481
777.95        61.90516
778.36        61.84698
778.77        61.78893
779.19        61.74056
779.60        61.70981
780.02        61.70736
780.43        61.78264
780.84        61.94258
781.26        62.10362
781.67        62.26677
782.09        62.50591
782.50        62.72204
782.91        62.64692
783.33        62.34835
783.74        62.25298
784.15        62.37049
784.57        62.57823
784.98         62.7815
785.39        62.70507
785.81        62.40814
786.22        62.32342
786.63        62.47284
787.04        62.53998
787.46        62.53759
787.87        62.64734
788.28        62.83737
788.70        62.94287
789.11        62.92969
789.52        62.85975
789.93        62.78193
790.35        62.76398
790.76        62.83468
791.17        62.96724
791.58        63.12313
792.00        63.20927
792.41        63.23308
792.82        63.26384
793.23        63.33926
793.65        63.33921
794.06        63.31704
794.47        63.60336
794.88        64.14743
795.29        64.05812
795.71        64.27394
796.12        64.29264
796.53        64.36027
796.94        64.09601
797.35        63.60469
797.76        63.45472
798.18        63.64345
798.59        63.68645
799.00        63.56085
799.41        63.57635
799.82        63.71478
800.23        63.78435
800.64        63.76468
801.06        63.68465
801.47        63.60171
801.88        63.54422
802.29        63.52448
802.70         63.5161
803.11         63.5168
803.52        63.53058
803.93        63.56493
804.34        63.62918
804.75        63.69713
805.17        63.77608
805.58        63.89915
805.99        63.85899
806.40        63.73005
806.81        64.10322
807.22        64.76589
807.63        64.64331
808.04        63.88015
808.45         63.6669
808.86        64.09776
809.27        64.49828
809.68        64.73779
810.09        64.90054
810.50        64.93616
810.91        64.82732
811.32        64.63077
811.73        64.44233
812.14        64.30103
812.55        64.19107
812.96        64.12187
813.37        64.10166
813.78        64.12586
814.19        64.19904
814.60        64.28764
815.01        64.32938
815.42        64.31145
815.83        64.25061
816.24        64.16678
816.65        64.10371
817.05        64.08991
817.46        64.09035
817.87        64.14134
818.28        64.25793
818.69        64.43832
819.10        64.67608
819.51        64.94099
819.92        65.17226
820.33        65.33655
820.74         65.4302
821.14        65.45932
821.55         65.4631
821.96         65.4439
822.37        65.40052
822.78        65.31976
823.19        65.18166
823.60        64.99187
824.00        64.77897
824.41        64.57114
824.82        64.47121
825.23         64.4996
825.64        64.63929
826.04        64.82658
826.45        64.91828
826.86        64.89548
827.27        64.79282
827.68         64.6857
828.08        64.73164
828.49        64.89665
828.90        65.17209
829.31        65.49696
829.72        65.67932
830.12        65.67979
830.53        65.91695
830.94        65.67095
831.35        65.50864
831.75        65.25301
832.16        64.91031
832.57        64.60001
832.97        64.51714
833.38        64.69365
833.79        65.05907
834.20        65.49667
834.60        65.82743
835.01        65.99307
835.42        66.03766
835.82        65.98906
836.23         65.8573
836.64        65.68451
837.04        65.47855
837.45        65.26416
837.86        65.14188
838.26        65.14671
838.67        65.25493
839.08        65.43483
839.48        65.60785
839.89        65.74015
840.29        65.84688
840.70        65.95208
841.11        66.09662
841.51        66.29826
841.92        66.49691
842.33        66.66623
842.73        66.76758
843.14        66.74899
843.54        66.66364
843.95        66.53413
844.35        66.42028
844.76        66.33598
845.17        66.26939
845.57        66.24902
845.98        66.28127
846.38        66.39034
846.79         66.5586
847.19         66.7469
847.60        66.81147
848.00        66.75834
848.41        66.57635
848.81        66.41386
849.22        66.45969
849.62        66.78322
850.03        67.27647
850.43        67.78184
850.84        67.95187
851.24        67.75974
851.65        67.23199
852.05        66.61073
852.46        66.24144
852.86        66.24162
853.27        66.54728
853.67        66.88599
854.07        67.01123
854.48        66.83676
854.88        66.46063
855.29        66.02526
855.69        65.94651
856.10        66.23483
856.50        66.85081
856.90        67.46969
857.31        67.60322
857.71        67.18604
858.12        66.31601
858.52        65.31388
858.92        64.65845
859.33          64.501
859.73         64.7663
860.13        65.24313
860.54        65.57345
860.94        65.69498
861.34        65.65309
861.75        65.55518
862.15        65.65246
862.55        65.94825
862.96        66.32573
863.36        66.61234
863.76        66.49834
864.17        65.93043
864.57        65.06506
864.97        64.11605
865.38        63.41739
865.78        63.13329
866.18        63.17634
866.58        63.51537
866.99        64.03133
867.39        64.65095
867.79        65.35365
868.19        65.99581
868.60        66.29368
869.00        66.29039
869.40        66.21902
869.80        66.09498
870.21        65.78511
870.61         65.3935
871.01        65.03058
871.41        64.76237
871.81        64.58344
872.22        64.51004
872.62         64.5571
873.02         64.6651
873.42        64.88052
873.82        64.99347
874.22        64.53978
874.63        63.83804
875.03        63.53942
875.43        63.74387
875.83        65.09892
876.23        64.83971
876.63        64.48845
877.03        63.75705
877.44        62.11268
877.84        166.9617
878.24        63.36734
878.64        63.72861
879.04        64.57079
879.44        64.43846
879.84        60.77493
880.24        66.01426
880.64        66.62213
881.04        64.76234
881.44        63.28234
881.84        62.59355
882.24        62.90464
882.65        63.71243
883.05        63.77941
883.45        62.87821
883.85        61.82099
884.25        61.07463
884.65        60.96836
885.05        61.59478
885.45        62.74971
885.85        63.97645
886.25        64.63892
886.65        64.59751
887.05        64.05013
887.45        63.26673
887.85        62.71313
888.25        62.55497
888.65        62.64561
889.04        62.90664
889.44        63.21247
889.84        63.48446
890.24        63.77444
890.64        64.02071
891.04        64.11552
891.44        64.05617
891.84        63.86692
892.24        63.63373
892.64        63.52356
893.04        63.58744
893.44        63.77877
893.83        64.06788
894.23         64.3742
894.63        64.67571
895.03        64.99319
895.43        65.28012
895.83        65.45864
896.23        65.50887
896.63        65.42677
897.02        65.28164
897.42        65.24387
897.82        65.31708
898.22        65.47679
898.62        65.59781
899.01        65.48163
899.41        65.07977
899.81        64.47806
900.21        63.86832
900.61        63.55954
901.00        63.60859
901.40        63.97918
901.80        64.48188
902.20        64.68569
902.59        64.48203
902.99        64.24615
903.39        64.25034
903.79        63.25026
904.18        63.99291
904.58        64.23034
904.98        64.54578
905.38        64.55202
905.77        64.19652
906.17        63.62554
906.57        63.04508
906.96        62.88755
907.36        63.24268
907.76        63.97501
908.15        64.88512
908.55         65.4966
908.95        65.70963
909.34        65.60078
909.74        65.34557
910.14        65.18713
910.53        65.21043
910.93        65.34207
911.33        65.45616
911.72        65.36046
912.12        65.03009
912.52        64.53796
912.91        64.06094
913.31        63.94559
913.70        64.22572
914.10        64.79725
914.49        65.41373
914.89        65.57868
915.29        65.20765
915.68        64.44114
916.08        63.60722
916.47        63.17695
916.87        63.29742
917.26         63.8092
917.66        64.47162
918.05        64.91489
918.45         65.0022
918.84        64.85728
919.24        64.60648
919.64        64.51055
920.03        64.64467
920.42        64.90109
920.82        65.14228
921.21        65.18042
921.61        65.00211
922.00        64.74511
922.40        64.60416
922.79        64.73875
923.19        64.81564
923.58        65.61787
923.98        67.35682
924.37        67.46671
924.77        64.57345
925.16        72.11533
925.55        65.86609
925.95        66.18102
926.34         66.1716
926.74        65.62029
927.13        64.49483
927.52        63.91605
927.92        64.32101
928.31        65.06598
928.70        65.91669
929.10        66.46202
929.49        66.62737
929.89        66.55232
930.28        66.26352
930.67         65.7164
931.07        64.99833
931.46        64.03909
931.85        63.16074
932.24        63.34651
932.64        64.70082
933.03         66.3286
933.42        67.37454
933.82        69.88338
934.21        68.49631
934.60        67.40667
934.99        66.23971
935.39        65.96664
935.78         66.6247
936.17         68.5671
936.56        74.68837
936.96        67.86625
937.35        71.48325
937.74        68.20504
938.13        65.78804
938.53        63.81429
938.92         63.0311
939.31        63.99398
939.70        65.44961
940.09        66.11607
940.49        65.70617
940.88        64.66705
941.27        63.52378
941.66        63.24342
942.05        64.10385
942.44        65.65619
942.84        67.26547
943.23        68.16919
943.62         68.1758
944.01        67.53205
944.40        66.65717
944.79        66.25842
945.18        66.54068
945.57        67.26884
945.97        68.05137
946.36        68.39641
946.75        68.12778
947.14        67.43402
947.53         66.6009
947.92         66.1058
948.31        66.09177
948.70        66.38419
949.09         66.7598
949.48        66.88353
949.87        66.67206
950.26        66.26981
950.65        65.78445
951.04        65.37357
951.43        65.11024
951.82         64.9275
952.21        64.87532
952.60        65.05456
952.99         65.4323
953.38        65.94359
953.77        66.41732
954.16        66.59451
954.55          66.436
954.94        66.04276
955.33        65.49873
955.72        64.98763
956.11        64.61325
956.50        64.31061
956.89        64.21974
957.28        64.54729
957.66        65.29978
958.05        66.33096
958.44        67.27227
958.83        67.54997
959.22        67.05139
959.61        65.89798
960.00        64.48935
960.39        63.64132
960.78        63.64045
961.16        64.29709
961.55        65.11996
961.94        65.52517
962.33           65.39
962.72         64.8914
963.11        64.32188
963.49         64.2563
963.88        64.83842
964.27        65.79252
964.66        66.75294
965.04        67.27187
965.43        67.20364
965.82        66.75865
966.21        66.09119
966.60        65.47488
966.98        65.04884
967.37         64.7315
967.76        64.59119
968.15        64.72752
968.53         65.1543
968.92        65.85342
969.31        66.61575
969.69        67.07015
970.08        67.08804
970.47        66.71431
970.86        66.23177
971.24        66.16304
971.63         66.5952
972.02        67.36447
972.40        68.09007
972.79        68.11539
973.17        67.39542
973.56        66.16553
973.95        64.86687
974.33         64.2795
974.72        64.62618
975.11        65.60773
975.49        66.98927
975.88        68.29821
976.26        69.38406
976.65         70.3033
977.04        70.87341
977.42        70.78697
977.81         69.9989
978.19        68.50149
978.58        66.98749
978.96        66.74107
979.35        67.99477
979.74        70.21389
980.12        72.48052
980.51        73.48267
980.89        73.15606
981.28        71.79432
981.66        69.82407
982.05        68.38072
982.43        67.98612
982.82         68.3512
983.20        69.20722
983.59        70.09186
983.97        70.85048
984.35        71.59879
984.74        72.15339
985.12        72.24349
985.51        71.80998
985.89        71.01399
986.28        70.07423
986.66        69.37781
987.04        69.07145
987.43        68.96236
987.81        68.85721
988.20        69.82203
988.58        71.90135
988.96        72.48678
989.35        70.79391
989.73        76.31976
990.12        72.69437
990.50        72.47624
990.88        71.44062
991.27        70.56607
991.65        69.93479
992.03        69.64513
992.42        69.70298
992.80        69.48127
993.18        68.88028
993.56        68.15742
993.95        67.49239
994.33        67.10763
994.71        67.10027
995.10        67.34302
995.48          67.853
995.86        68.66596
996.24        69.69601
996.63        70.79919
997.01        71.83477
997.39         72.3906
997.77        72.36922
998.15        71.87366
998.54        71.13501
998.92         70.4231
999.30        69.90584
999.68        69.59352
1000.06        69.45959
1000.45        69.38031
1000.83        69.43639
1001.21        69.65315
1001.59        70.18743
1001.97        71.24094
1002.35        72.68739
1002.73        74.26196
1003.12        75.63827
1003.50        76.49683
1003.88        76.78641
1004.26        76.64654
1004.64        76.12184
1005.02        75.34327
1005.40        74.44418
1005.78        73.41512
1006.16        72.55146
1006.54        72.28069
1006.92        72.68784
1007.30        73.73197
1007.69        74.90314
1008.07        75.53337
1008.45        75.44153
1008.83         74.7242
1009.21         73.9046
1009.59        74.07236
1009.97        75.38474
1010.35         77.2469
1010.73        78.87317
1011.11        79.63108
1011.49        79.57328
1011.86        78.63785
1012.24        76.87867
1012.62         77.8401
1013.00         78.8457
1013.38        79.40815
1013.76        78.01231
1014.14        82.08191
1014.52        87.53238
1014.90        80.25225
1015.28        80.87368
1015.66        81.94452
1016.04        78.60753
1016.41        79.25797
1016.79        78.91738
1017.17        78.82153
1017.55        78.38074
1017.93        77.95753
1018.31        78.01364
1018.69        78.73618
1019.06        80.16516
1019.44        82.00243
1019.82        83.71568
1020.20        84.68473
1020.58        84.81686
1020.95        84.11066
1021.33        82.83273
1021.71         81.8278
1022.09        81.66884
1022.46        82.12077
1022.84        82.63842
1023.22        82.73533
1023.60        82.39321
1023.97        81.80277
1024.35        81.21062
1024.73        81.09604
