SpectraSmart Spectrum 2.9.0.0
--------- Device Information -----------
Spectrum Name :  反射率_0
Saving Time :  2024/04/21 00:20:18
Spectro-Module Model Name : SE2030-DUVN
Spectro-Module Serial Number : OS361AC55029948
Wavelength Start : 200
Wavelength End : 1025
Wavelength Unit : Wavelength(nm)
Spectrum Unit : Reflectance(%)
-----------Spectrum Setting ------------
Integration Time : 20ms
Average : 10
Boxcar : 0
Background removal :  enabled
linearity correction :  enabled
SC :  disabled
Intensity correction :  disabled
DWT denoise :  enabled
savitzky-golay :  disabled
FFT :  disabled
Running average :  disabled
Kalman :  disabled
High pass :  disabled
---------------BEGIN--------------------
Wavelength(nm)             Reflectance(%)
200.29               0
200.75        -36.9602
201.21      -0.6082926
201.67        18.19491
202.13        24.06295
202.58        22.22078
203.04        15.39174
203.50        6.670495
203.96        4.224697
204.42        10.92961
204.88        22.64816
205.34        34.39451
205.80        39.68472
206.26        37.02636
206.72         28.9668
207.18        14.89269
207.64       -4.212836
208.10       -23.18101
208.55       -41.47935
209.01         -41.557
209.47       -9.508555
209.93         26.8915
210.39        54.23625
210.85        70.68996
211.31        76.70347
211.77        74.79887
212.23         64.9144
212.69        42.63583
213.14        4.143258
213.60       -58.47206
214.06       -220.0787
214.52       -549.2625
214.98       -215.9792
215.44       -36.62584
215.90        21.77488
216.36        39.65049
216.81        37.76938
217.27        16.47104
217.73        -85.9026
218.19        1133.913
218.65        478.8434
219.11       -984.5529
219.57       -26.44177
220.02        34.44249
220.48        46.58064
220.94        43.68887
221.40        26.54829
221.86       -17.94107
222.32       -52.83581
222.77       -18.92359
223.23        13.74102
223.69        30.91289
224.15         37.1115
224.61        37.60459
225.06        35.77808
225.52        32.38574
225.98        27.88363
226.44        22.84833
226.90        16.13306
227.36        10.97527
227.81        13.50815
228.27        21.18621
228.73        29.73397
229.19        35.26528
229.65        35.49764
230.10         31.1235
230.56        23.55193
231.02        14.25202
231.48        8.776003
231.93        10.72888
232.39        17.64449
232.85        24.97999
233.31        29.08758
233.77        30.23943
234.22        30.08936
234.68        29.01193
235.14        27.62551
235.60        26.60148
236.05        25.00265
236.51        23.16185
236.97        27.55049
237.43        38.47451
237.88        46.03621
238.34        46.70294
238.80        67.04179
239.26        59.73242
239.71        59.18666
240.17        53.30659
240.63        46.86671
241.08        43.06976
241.54        44.12484
242.00        50.57128
242.46        54.97512
242.91        55.60461
243.37        53.19314
243.83        49.70006
244.28         50.7976
244.74        58.18779
245.20        67.96514
245.66        74.30769
246.11        71.41005
246.57        59.18991
247.03          39.458
247.48        15.86175
247.94       -5.158663
248.40       -23.31346
248.85        -49.1345
249.31       -94.40907
249.77       -59.92672
250.22        31.36081
250.68         49.7802
251.14        52.25859
251.59        52.89335
252.05        53.88028
252.51        54.86018
252.96        55.26115
253.42        55.04358
253.88        54.54073
254.33        54.75262
254.79        58.21763
255.25        64.34254
255.70        70.41219
256.16        75.44902
256.62        78.69064
257.07        79.89515
257.53        80.12631
257.99        79.50729
258.44        78.08167
258.90        76.71933
259.35        74.90866
259.81        73.16775
260.27         71.2524
260.72         69.0589
261.18         67.1497
261.63        65.29807
262.09        63.77866
262.55        62.30865
263.00        60.75703
263.46        59.35682
263.91        58.03541
264.37        57.20001
264.83        56.72752
265.28        56.41832
265.74        56.16608
266.19        55.57871
266.65        54.68552
267.11        53.53556
267.56        52.22575
268.02        51.01479
268.47        49.91713
268.93         48.9102
269.38        47.90297
269.84        46.83208
270.30        45.66784
270.75        44.44566
271.21        43.26425
271.66        42.18785
272.12        41.26602
272.57         40.4527
273.03        39.69336
273.48         38.8456
273.94        37.92561
274.39        36.95162
274.85        36.05657
275.31        35.35964
275.76        34.86378
276.22        34.53856
276.67        34.27831
277.13        34.03168
277.58        33.71738
278.04        33.38749
278.49        32.97828
278.95        32.50112
279.40          31.918
279.86        31.28032
280.31        30.59776
280.77        29.98798
281.22         29.4408
281.68        29.00307
282.13        28.60317
282.59        28.21952
283.04        27.81782
283.50        27.43588
283.95        27.13338
284.41        27.03459
284.86         27.1324
285.32        27.39918
285.77        27.68108
286.22        27.78392
286.68        27.69813
287.13        27.44182
287.59        27.22306
288.04        27.24715
288.50        27.52622
288.95        28.08341
289.41        28.76632
289.86        28.88461
290.32        28.33819
290.77        29.03255
291.22        28.09201
291.68        28.21751
292.13        28.58235
292.59        29.20793
293.04        30.04202
293.50          31.072
293.95        32.28222
294.40        33.65797
294.86        35.14191
295.31        36.62484
295.77        38.07665
296.22        39.49069
296.68        40.92736
297.13        42.48335
297.58        44.19532
298.04        46.03179
298.49        47.94052
298.95        49.85986
299.40        51.74299
299.85        53.61861
300.31        55.48672
300.76        57.31335
301.21        59.11394
301.67        60.91953
302.12        62.74758
302.58        64.74805
303.03        66.90527
303.48        69.22982
303.94        71.64557
304.39        73.96937
304.84        76.15666
305.30        78.24522
305.75        80.25572
306.20        82.35133
306.66        84.55149
307.11        86.74159
307.57        88.82435
308.02        90.56184
308.47        91.96186
308.93        93.14769
309.38        94.23126
309.83        95.47452
310.29        96.95992
310.74        98.56003
311.19        100.1774
311.65        101.6321
312.10        102.8463
312.55        103.8807
313.00        104.7744
313.46        105.5928
313.91        106.3494
314.36        107.0393
314.82        107.6775
315.27        108.2791
315.72        108.8664
316.18        109.4486
316.63        110.0391
317.08        110.6535
317.53        111.2776
317.99        111.8837
318.44        112.4349
318.89        112.8596
319.35         113.139
319.80        113.3107
320.25        113.3866
320.70        113.3972
321.16        113.3624
321.61        113.3015
322.06        113.2783
322.51        113.3978
322.97        113.6618
323.42        114.0899
323.87        114.5635
324.32        114.8968
324.78        115.0217
325.23        115.0215
325.68        114.9962
326.13        115.1525
326.59        115.5122
327.04        116.0659
327.49          116.66
327.94        117.0844
328.39        117.2784
328.85        117.2462
329.30        117.2133
329.75        117.3071
330.20        117.5973
330.66        117.9864
331.11        118.4529
331.56        118.8083
332.01        119.0085
332.46        119.1118
332.92        119.1432
333.37        119.2954
333.82        119.5697
334.27        119.9425
334.72        120.3916
335.17         120.884
335.63        121.3637
336.08         121.889
336.53        122.4427
336.98         123.048
337.43        123.6914
337.88        124.3519
338.34         124.907
338.79        125.2342
339.24        125.2921
339.69        125.1428
340.14        124.9569
340.59        125.0029
341.05        125.3492
341.50        125.9357
341.95        126.6283
342.40        127.1998
342.85        127.5788
343.30        127.8282
343.75        128.0186
344.20        128.2708
344.66        128.6192
345.11        128.9801
345.56        129.3112
346.01        129.5566
346.46         129.709
346.91        129.7818
347.36         129.757
347.81        129.6954
348.26        129.6257
348.72        129.1991
349.17        129.1155
349.62        129.0345
350.07        129.1603
350.52        129.4316
350.97        129.6906
351.42        129.6663
351.87         129.293
352.32        128.6558
352.77        127.9289
353.22        127.3791
353.67         127.067
354.13        126.9263
354.58        126.7836
355.03        126.4211
355.48        125.7871
355.93        124.9598
356.38        124.0817
356.83        123.3588
357.28        122.8271
357.73         122.412
358.18        121.9735
358.63        121.2971
359.08        120.3494
359.53        119.2259
359.98        118.0702
360.43        117.0904
360.88        116.3314
361.33        115.7137
361.78        115.1536
362.23        114.5233
362.68        113.7776
363.13        112.9607
363.58        112.0721
364.03        111.1069
364.48        110.0778
364.93        108.9821
365.38        107.8811
365.83        106.8821
366.28        106.0106
366.73        105.2438
367.18        104.5206
367.63        103.7353
368.08         102.863
368.53        101.9408
368.98        101.0019
369.43        100.0866
369.88        99.20238
370.33        98.32719
370.78        97.45956
371.23        96.62076
371.68        95.82507
372.13        95.07564
372.58        94.37409
373.03         93.7021
373.48         93.0424
373.93        92.39656
374.38        91.73752
374.83        91.03435
375.28        90.29665
375.72        89.52293
376.17        88.79205
376.62        88.14177
377.07        87.56118
377.52          87.012
377.97        86.45726
378.42        85.85412
378.87        85.20689
379.32        84.55712
379.77        83.90081
380.22        83.20795
380.67         82.4762
381.11        81.71701
381.56        80.99793
382.01        80.46114
382.46        80.14104
382.91         79.9906
383.36        79.89935
383.81         79.6943
384.26        79.32375
384.71        78.82825
385.15        78.25755
385.60        77.75921
386.05        77.34476
386.50        76.97908
386.95        76.61768
387.40        76.20403
387.85        75.73928
388.29        75.21272
388.74        74.76716
389.19        74.39555
389.64        74.09125
390.09        73.82903
390.54        73.56869
390.98        73.23702
391.43        72.86617
391.88        72.47626
392.33        72.10742
392.78        71.79078
393.23        71.53122
393.67         71.3388
394.12        71.25825
394.57        71.04403
395.02        70.74266
395.47        70.68781
395.91        70.81724
396.36        70.69964
396.81        70.32755
397.26        69.96114
397.71         69.6264
398.15         69.2532
398.60        68.94038
399.05        68.57431
399.50        68.25333
399.95        68.25702
400.39        68.50201
400.84        68.60497
401.29        68.47607
401.74        68.06061
402.18        67.48878
402.63        67.20944
403.08        67.18716
403.53        66.91616
403.97        66.38758
404.42        65.95002
404.87        65.69553
405.32        65.59317
405.76        65.63787
406.21        65.91628
406.66        66.23363
407.11        66.15285
407.55        65.71456
408.00        65.24458
408.45        64.89804
408.90        64.77859
409.34        64.82491
409.79        64.71533
410.24        64.44361
410.68        64.32048
411.13        64.33885
411.58        64.27003
412.03        64.11977
412.47        64.04923
412.92        64.04524
413.37        64.06168
413.81        64.06339
414.26        64.05777
414.71        64.02089
415.15        63.97533
415.60        63.89911
416.05        63.80821
416.49        63.71472
416.94        63.61329
417.39        63.51725
417.83        63.43567
418.28        63.37405
418.73        63.32876
419.17        63.29368
419.62        63.26747
420.07        63.24776
420.51        63.22774
420.96        63.22489
421.41        63.22678
421.85        63.20225
422.30        63.16977
422.74        63.12106
423.19        63.15987
423.64        63.25564
424.08        63.38416
424.53        63.44555
424.98         63.3081
425.42        63.28022
425.87        62.96288
426.31        62.61071
426.76        62.73689
427.21        63.27629
427.65        63.57293
428.10        63.49884
428.54         63.5672
428.99        63.63272
429.44        63.50998
429.88        63.21095
430.33        63.14511
430.77        63.23158
431.22        63.28062
431.66        63.27249
432.11        63.33009
432.56        63.47494
433.00        63.56967
433.45         63.4606
433.89        63.36032
434.34        63.37946
434.78        62.66512
435.23        63.04826
435.67        62.99198
436.12         63.6326
436.57        63.68016
437.01        63.40489
437.46        63.21467
437.90        63.83963
438.35        63.36935
438.79        63.59158
439.24        63.56851
439.68        63.73324
440.13        63.67942
440.57         63.4527
441.02         63.5301
441.46        63.84352
441.91        63.88205
442.35        63.65792
442.80        63.93605
443.24        64.54923
443.69         64.6115
444.13        64.15723
444.58        63.97721
445.02        64.09081
445.47        64.18893
445.91        64.20187
446.36        64.18097
446.80        64.09782
447.24        63.92958
447.69        63.78084
448.13        63.89022
448.58        64.01551
449.02        64.37627
449.47        64.14585
449.91        64.12181
450.36        64.09682
450.80        63.87096
451.25        63.54528
451.69        63.44807
452.13        63.56456
452.58         63.5306
453.02        63.32923
453.47        63.21574
453.91        63.17715
454.36        63.07725
454.80        62.90254
455.24        62.73365
455.69        62.58655
456.13        62.39137
456.58        62.21817
457.02        62.23071
457.46        62.01639
457.91        62.32299
458.35        61.96363
458.79        61.93334
459.24        61.93787
459.68        61.81008
460.13        61.56997
460.57        61.67375
461.01        61.24603
461.46        61.27945
461.90         61.1771
462.34        60.85342
462.79        60.94897
463.23        60.73684
463.68        60.69156
464.12        60.70659
464.56        60.80105
465.01        60.83226
465.45        60.70969
465.89        60.67123
466.34        60.75141
466.78        60.62342
467.22        60.23056
467.67        60.68079
468.11        59.85681
468.55        59.79297
468.99        59.82589
469.44         59.7009
469.88        59.38832
470.32        59.14828
470.77        59.06727
471.21        58.75141
471.65        58.82585
472.10        58.81863
472.54        58.85176
472.98        58.85637
473.42        58.82553
473.87        58.71239
474.31        58.54541
474.75         58.6236
475.20        58.86776
475.64        58.86612
476.08        58.66327
476.52        58.54139
476.97        58.46004
477.41        58.54485
477.85        58.83933
478.29        58.13008
478.74        58.19055
479.18        58.56053
479.62        58.67009
480.06        58.81253
480.50        58.68465
480.95        58.56586
481.39        58.46011
481.83        58.20901
482.27        58.72301
482.72        58.06058
483.16        58.55513
483.60        58.54291
484.04        58.55296
484.48        58.23423
484.93        58.29486
485.37        57.79271
485.81        58.42643
486.25        58.28328
486.69        59.88002
487.14         60.3726
487.58        59.20982
488.02        58.20736
488.46         58.1929
488.90        57.79131
489.34        57.84246
489.79        57.29602
490.23        57.87654
490.67        57.91464
491.11        57.85188
491.55        57.69598
491.99        57.51364
492.43         57.4026
492.88        57.37506
493.32         57.4202
493.76        57.45552
494.20        57.47588
494.64        57.49161
495.08        57.13372
495.52        57.05045
495.96        57.07784
496.41        57.30561
496.85        57.26472
497.29        56.95414
497.73        56.97049
498.17        56.99161
498.61        57.04193
499.05        57.00495
499.49        56.83492
499.93         56.6296
500.37        56.80378
500.82         57.2405
501.26        57.31414
501.70        56.97998
502.14        56.72054
502.58        56.48304
503.02        56.30159
503.46        56.27004
503.90        56.33678
504.34        56.46624
504.78        56.54697
505.22        56.57138
505.66        56.48545
506.10        56.32738
506.54        56.35364
506.98        56.60187
507.42        56.11213
507.86        56.75832
508.30        56.19162
508.74        56.49096
509.18         56.3406
509.62        56.23114
510.06        56.18642
510.50        56.19111
510.94        56.16875
511.38        56.08668
511.82        56.00042
512.26        55.90711
512.70        55.77558
513.14         55.6439
513.58        55.58997
514.02          55.625
514.46        55.72373
514.90        55.82321
515.34        55.86726
515.78        55.84319
516.22        55.72492
516.66        55.41468
517.10         55.6408
517.54        55.42331
517.98        55.51673
518.42        55.59983
518.86        55.65769
519.30        55.67277
519.74        55.63285
520.18        55.56805
520.62        55.58608
521.06        55.65313
521.50        55.55719
521.93        55.34087
522.37        55.24979
522.81        55.30387
523.25        55.38654
523.69        55.45146
524.13        55.43487
524.57        55.31736
525.01        55.18982
525.45        55.14552
525.89        54.93447
526.32        55.20813
526.76        55.42046
527.20        55.66503
527.64        55.77876
528.08        55.73035
528.52        55.56339
528.96        55.35083
529.40        55.21517
529.83        55.18665
530.27        55.25605
530.71        55.36107
531.15        55.40134
531.59        55.35459
532.03        55.25911
532.46         55.1586
532.90        55.13069
533.34         55.1852
533.78        55.29106
534.22        55.39678
534.66        55.42777
535.09        55.36058
535.53        55.24069
535.97         55.0995
536.41        55.00028
536.85        54.96182
537.28        54.96574
537.72        54.99244
538.16        55.01101
538.60        55.01057
539.04        55.00486
539.47        54.98833
539.91        54.99617
540.35        55.01784
540.79        55.04614
541.22        55.07364
541.66        55.10475
542.10        55.13111
542.54        55.14731
542.97        55.14742
543.41        55.15078
543.85        55.15635
544.29        55.17478
544.72        55.17699
545.16         55.1676
545.60        55.13615
546.04        55.01738
546.47        54.88261
546.91        54.97483
547.35        55.22549
547.79        55.33965
548.22        55.25978
548.66        55.06894
549.10        54.85128
549.53        54.79744
549.97         54.9036
550.41        54.92136
550.84        54.85102
551.28        54.83811
551.72        54.86613
552.15        54.92101
552.59        55.03227
553.03        54.77753
553.46         54.9293
553.90        54.86028
554.34        54.79177
554.77        54.69401
555.21        54.63402
555.65        54.66428
556.08         54.7714
556.52        55.02401
556.96        55.30061
557.39         55.2717
557.83         54.9986
558.27        54.86346
558.70        54.90808
559.14        54.90333
559.57        54.84808
560.01        54.96331
560.45        55.17058
560.88        55.18406
561.32        55.05986
561.75        54.97838
562.19        54.99605
562.63        55.04058
563.06        55.08027
563.50        55.06237
563.93        54.97398
564.37        54.89687
564.80        54.83977
565.24        54.85174
565.68        54.91562
566.11         54.9631
566.55        55.00985
566.98        54.99419
567.42        55.18832
567.85         55.1048
568.29        54.93224
568.72        54.96307
569.16        55.22765
569.60         55.4088
570.03        55.42447
570.47        55.60185
570.90        55.90051
571.34        55.81583
571.77        55.91344
572.21        56.14542
572.64        55.83069
573.08        55.63812
573.51        55.85156
573.95        56.23086
574.38        56.18383
574.82        56.76976
575.25        56.47952
575.69        56.22841
576.12        56.03218
576.56        56.23194
576.99        56.29147
577.42        56.33366
577.86        56.58828
578.29         56.9765
578.73        57.23755
579.16        56.92616
579.60        56.23577
580.03        56.28644
580.47        56.26137
580.90        56.51866
581.33        56.67566
581.77        56.63494
582.20        56.94015
582.64        57.57825
583.07        57.08812
583.51        56.66509
583.94        55.97718
584.37        55.88845
584.81        55.68362
585.24        55.85227
585.68        56.36841
586.11        56.41028
586.54        56.53555
586.98        56.23596
587.41        55.94341
587.85        56.25415
588.28        56.46412
588.71        56.51907
589.15        56.18799
589.58        55.70935
590.01        55.82157
590.45        55.08533
590.88         55.6338
591.31        55.60497
591.75        55.29418
592.18        55.13409
592.61        55.18638
593.05        55.44775
593.48        55.71825
593.91        56.40677
594.35        56.32701
594.78        56.03827
595.21        55.61532
595.65        55.55207
596.08        55.92282
596.51        55.76361
596.94        55.62822
597.38        55.44043
597.81        55.40028
598.24        55.54647
598.68        55.27102
599.11          55.377
599.54        55.66009
599.97        55.78215
600.41        55.92037
600.84        56.15439
601.27        55.92126
601.70        55.80192
602.14        55.51825
602.57        55.39087
603.00        55.36789
603.43        55.69818
603.87        55.79535
604.30        55.71485
604.73        55.77335
605.16        55.25182
605.60        55.54391
606.03        55.51345
606.46        55.52312
606.89        55.39865
607.32        55.28033
607.76        55.54121
608.19         55.5032
608.62        55.43261
609.05        56.02316
609.48        55.46608
609.92        55.42289
610.35        55.63269
610.78        55.39725
611.21        55.09097
611.64        55.23809
612.07        55.20612
612.50        55.22543
612.94        55.21768
613.37         55.1972
613.80        55.26089
614.23        55.38035
614.66        55.12648
615.09         54.8962
615.52        54.93149
615.96        55.09117
616.39        55.12942
616.82        54.96591
617.25        54.86372
617.68        54.81577
618.11        54.73519
618.54        54.73687
618.97        54.78597
619.40        54.88018
619.84        54.79322
620.27        54.77305
620.70        54.67928
621.13        54.61842
621.56        54.64673
621.99        54.76248
622.42        54.82513
622.85        54.79709
623.28        54.72483
623.71        54.96652
624.14        54.71186
624.57        54.99616
625.00        55.20344
625.43        54.71345
625.86        54.58532
626.29        54.60466
626.72        54.30889
627.15        54.29147
627.58        54.25904
628.01        54.42834
628.44         54.2641
628.87        54.23332
629.30        54.62715
629.73        54.55212
630.16        54.39798
630.59        54.34022
631.02         54.5044
631.45        54.25501
631.88         54.2501
632.31        54.29117
632.74        54.10408
633.17        54.22153
633.60        54.15295
634.03        54.06511
634.46         54.0045
634.89        53.91368
635.32        53.90316
635.75        53.94696
636.18         54.0346
636.61        54.13321
637.04        54.19443
637.47         54.2042
637.89        54.18063
638.32        54.12807
638.75        54.07793
639.18        54.04282
639.61        54.01818
640.04        54.00394
640.47        54.00113
640.90        54.00707
641.33        54.01801
641.76         54.0377
642.18        54.07568
642.61        54.11677
643.04        54.16585
643.47        54.19327
643.90        54.15816
644.33        54.05728
644.76        53.89043
645.18        53.71745
645.61        53.65944
646.04        53.72275
646.47         53.8144
646.90         53.8891
647.33        53.93634
647.75        53.92992
648.18        53.85889
648.61        53.78619
649.04        53.78801
649.47        53.84178
649.89        54.15921
650.32         54.1092
650.75        54.15717
651.18        54.11766
651.61        54.01178
652.03        53.86521
652.46         53.7324
652.89        53.70041
653.32        53.74224
653.74        53.81641
654.17        54.21957
654.60        53.84592
655.03         53.7998
655.46        53.77124
655.88        54.21457
656.31        55.57826
656.74        60.93568
657.16        60.39006
657.59        58.74047
658.02        55.41808
658.45        54.40586
658.87        54.38609
659.30        54.45071
659.73        54.21777
660.15        53.37243
660.58        53.97044
661.01        54.24713
661.44        54.60477
661.86        54.51664
662.29        54.04714
662.72        53.80794
663.14        53.86008
663.57        53.91616
664.00        53.93369
664.42        53.95811
664.85        53.98385
665.27        53.91896
665.70        53.94785
666.13        53.94385
666.55        53.96453
666.98        53.98581
667.41        54.00724
667.83        54.03773
668.26          54.085
668.69        54.10446
669.11        54.06865
669.54        54.12805
669.96        54.32452
670.39        53.88368
670.82        54.13742
671.24        54.11053
671.67        54.18128
672.09         54.2345
672.52        54.38591
672.94        54.33937
673.37        54.16078
673.80        54.05843
674.22        54.06156
674.65         54.0215
675.07        53.96199
675.50        53.96931
675.92        54.04031
676.35        54.10246
676.77        54.14165
677.20        54.19634
677.62        54.28246
678.05        54.33038
678.47        54.32236
678.90        54.58227
679.32         54.5208
679.75        54.59744
680.17        54.63649
680.60        54.65478
681.02        54.65194
681.45         54.6405
681.87        54.63277
682.30        54.59456
682.72        54.55159
683.15        54.55564
683.57        54.56138
684.00        54.59328
684.42         54.2759
684.85        54.20527
685.27        54.26519
685.70        54.34396
686.12        54.38931
686.54        54.40585
686.97        54.37822
687.39        54.33115
687.82        54.29379
688.24        54.28844
688.66        54.30752
689.09        54.55237
689.51        54.58549
689.94        54.72848
690.36        54.82695
690.78        54.83716
691.21        54.78165
691.63        54.70068
692.06        54.65091
692.48        54.71572
692.90        54.84637
693.33        54.86498
693.75        54.76355
694.17        54.59338
694.60        54.40659
695.02        54.44171
695.44        54.46662
695.87        54.53763
696.29        54.58595
696.71        54.58633
697.14        54.56543
697.56        54.77952
697.98        55.16414
698.41         55.1143
698.83        55.16143
699.25        55.01101
699.68        54.86768
700.10        54.73143
700.52        54.63032
700.94         54.5671
701.37        54.51659
701.79        54.48813
702.21        54.46089
702.64        54.44188
703.06        54.44543
703.48        54.49704
703.90        54.59899
704.33        54.73694
704.75        54.86728
705.17         54.9051
705.59         54.8364
706.01        54.68016
706.44        54.51991
706.86        54.51084
707.28        54.66998
707.70        54.94732
708.12        55.24008
708.55        55.38379
708.97        55.33747
709.39        55.16158
709.81        54.93509
710.23        54.80047
710.66        54.80778
711.08         54.9217
711.50        55.07898
711.92        55.19676
712.34        55.24907
712.76        55.26187
713.19        55.25131
713.61        55.28277
714.03        55.34527
714.45         55.4254
714.87         55.5037
715.29        55.51695
715.71        55.45199
716.13        55.47707
716.56        55.33036
716.98        55.27388
717.40         55.2278
717.82        55.19003
718.24        55.17448
718.66         55.2036
719.08        55.27827
719.50        55.40015
719.92        55.52707
720.34        55.56573
720.76        55.51518
721.19        55.44177
721.61        55.39871
722.03        55.40101
722.45         55.4664
722.87        55.60576
723.29        55.78595
723.71         55.9373
724.13        56.03821
724.55        56.09986
724.97        56.14297
725.39        56.20371
725.81         56.2872
726.23        56.37656
726.65        56.43571
727.07        56.41677
727.49        56.31771
727.91         56.1495
728.33        55.96449
728.75        55.88786
729.17         55.9265
729.59         55.9629
730.01         55.9941
730.43        56.09478
730.85        56.25188
731.27        56.39667
731.69         56.5022
732.10         56.5271
732.52        56.62347
732.94        56.39667
733.36        56.01129
733.78        55.85719
734.20        55.98763
734.62        56.20786
735.04        56.42575
735.46        56.56363
735.88        56.58826
736.30        56.53754
736.72        56.44002
737.13        56.37749
737.55        56.34728
737.97        56.27862
738.39        56.21987
738.81        56.39317
739.23        56.74072
739.65        56.90873
740.06        56.82479
740.48        56.77823
740.90        56.73838
741.32        56.53662
741.74        56.24484
742.16        56.09224
742.57        56.13462
742.99        56.29869
743.41        56.50555
743.83        56.60889
744.25        56.57003
744.67        56.42609
745.08        56.27855
745.50        56.25636
745.92        56.40329
746.34        56.67436
746.75         56.9482
747.17        57.03037
747.59        56.88684
748.01        56.55492
748.42        56.19309
748.84        56.09399
749.26        56.28559
749.68         56.5888
750.09        56.87564
750.51        56.98248
750.93        56.90121
751.35        56.82217
751.76        56.78231
752.18        56.69055
752.60        56.57017
753.01        56.51691
753.43        56.49109
753.85        56.42693
754.27        56.31942
754.68        56.19387
755.10          56.103
755.52        56.09846
755.93        56.19362
756.35        56.37648
756.77        56.57951
757.18        56.71991
757.60        56.76814
758.02        56.68525
758.43        56.56269
758.85        56.65085
759.26        56.89064
759.68        57.19558
760.10        56.77851
760.51        56.51684
760.93        57.06067
761.34        56.17783
761.76        57.04796
762.18         56.9962
762.59        56.85504
763.01        56.80302
763.42        56.18146
763.84        56.29642
764.26        56.47468
764.67        56.83411
765.09        57.13765
765.50        57.45496
765.92        57.69497
766.33        57.51924
766.75        57.01162
767.16        56.71609
767.58        56.65363
768.00        56.72001
768.41        56.89728
768.83        56.74205
769.24        56.31522
769.66        56.95687
770.07        57.38374
770.49        57.40479
770.90        56.77813
771.32        56.53479
771.73        56.73904
772.15        56.78394
772.56        56.69568
772.97        56.80823
773.39        57.03791
773.80        57.21453
774.22        57.12198
774.63        56.98981
775.05        56.82011
775.46        56.73827
775.88        56.75671
776.29        56.84484
776.70        56.96563
777.12        57.07037
777.53        57.15555
777.95        57.24389
778.36        57.30073
778.77        57.26121
779.19        57.11564
779.60        56.88107
780.02        56.67149
780.43        56.62979
780.84        56.77205
781.26        57.21486
781.67        57.80279
782.09        57.75307
782.50         57.2125
782.91         57.2838
783.33        57.88241
783.74        58.02595
784.15        57.63928
784.57        57.33949
784.98        57.22556
785.39        57.16101
785.81        57.17137
786.22        57.29166
786.63        57.47158
787.04          57.627
787.46        57.74019
787.87        57.80021
788.28        57.82428
788.70        57.84182
789.11        57.84204
789.52         57.8174
789.93        57.78359
790.35        57.76167
790.76        57.77805
791.17        57.84808
791.58        57.94211
792.00         58.0143
792.41        58.08475
792.82        58.07688
793.23        58.09633
793.65        58.41491
794.06        58.96193
794.47         59.4053
794.88         59.6732
795.29        59.45616
795.71        59.64428
796.12        59.33178
796.53        58.87163
796.94        58.63967
797.35        58.66128
797.76        58.59277
798.18          58.426
798.59        58.40177
799.00        58.50877
799.41         58.6137
799.82        58.66467
800.23        58.64525
800.64        58.54134
801.06        58.33248
801.47        58.11587
801.88        57.99005
802.29        57.98819
802.70        58.09081
803.11        58.24524
803.52        58.35342
803.93        58.38731
804.34        58.37308
804.75        58.36449
805.17        58.44511
805.58        58.65457
805.99        58.92602
806.40        59.19281
806.81        59.38866
807.22        59.46111
807.63        59.35153
808.04        59.15059
808.45        59.09639
808.86        59.22919
809.27         59.4385
809.68        59.65377
810.09        59.78146
810.50        59.78245
810.91        59.69518
811.32        59.53659
811.73        59.33289
812.14        59.10814
812.55        58.85427
812.96        58.63345
813.37        58.55092
813.78        58.62738
814.19        58.84287
814.60        59.09652
815.01        59.22534
815.42        59.19326
815.83        59.03645
816.24        58.85533
816.65        58.84024
817.05        59.04814
817.46        59.38781
817.87        59.76381
818.28        60.00245
818.69        60.06067
819.10        59.98513
819.51        59.85892
819.92        59.82744
820.33        59.93181
820.74        60.11979
821.14        60.30463
821.55        60.37656
821.96        60.29699
822.37         60.1072
822.78        59.87364
823.19        59.70899
823.60        59.65291
824.00        59.68609
824.41        59.73336
824.82        59.72443
825.23        59.63609
825.64        59.50229
826.04        59.37984
826.45        59.31591
826.86        59.34148
827.27        59.44517
827.68          59.594
828.08        59.75017
828.49        59.82883
828.90        59.88647
829.31        59.98529
829.72        60.10937
830.12        60.26186
830.53        60.86788
830.94         60.9817
831.35        61.06924
831.75        60.85496
832.16        60.39179
832.57        59.88552
832.97        59.68366
833.38        59.86349
833.79        60.31016
834.20        60.81685
834.60        61.06762
835.01        60.98611
835.42        60.67834
835.82         60.2886
836.23         60.0231
836.64        59.97571
837.04        60.08845
837.45        60.28044
837.86        60.47942
838.26        60.65588
838.67        60.82037
839.08        60.97969
839.48        61.12417
839.89        61.24444
840.29        61.33065
840.70        61.38369
841.11        61.40964
841.51        61.42789
841.92        61.41105
842.33        61.38656
842.73        61.39431
843.14        61.40249
843.54        61.43355
843.95        61.46193
844.35        61.46462
844.76        61.42739
845.17        61.35893
845.57        61.29408
845.98        61.25602
846.38        61.28179
846.79        61.35035
847.19        61.45076
847.60        61.49032
848.00        61.48387
848.41        61.41566
848.81        61.39618
849.22         61.5505
849.62        61.92348
850.03        62.42118
850.43        62.91381
850.84         63.1036
851.24        62.97593
851.65        62.54791
852.05        62.02538
852.46        61.70412
852.86        61.68121
853.27        61.90023
853.67        62.14208
854.07         62.2224
854.48        62.06917
854.88        61.77517
855.29        61.41296
855.69         61.2598
856.10        61.31031
856.50        61.56373
856.90        61.85391
857.31        61.95274
857.71        61.85116
858.12        61.57777
858.52        61.25506
858.92        61.03303
859.33        60.95181
859.73        61.00227
860.13        61.12988
860.54        61.24393
860.94        61.36855
861.34        61.49525
861.75        61.59332
862.15        61.68363
862.55        61.72516
862.96        61.67844
863.36        61.58483
863.76           61.47
864.17        61.34486
864.57         61.2543
864.97        61.11993
865.38        60.78999
865.78        60.29123
866.18        59.66409
866.58        59.16028
866.99        59.19082
867.39        59.84574
867.79        60.92997
868.19         62.0595
868.60        62.62202
869.00        62.58437
869.40        62.30214
869.80         61.8653
870.21        61.25253
870.61        60.63723
871.01         60.1193
871.41        59.74468
871.81        59.46718
872.22        59.30458
872.62        59.29671
873.02        59.42434
873.42        59.81749
873.82        60.22422
874.22        60.04938
874.63        59.58761
875.03        59.45642
875.43        59.73476
875.83        61.20335
876.23        60.76944
876.63         60.0826
877.03        58.83249
877.44        56.38472
877.84        177.9335
878.24        57.41885
878.64        58.44999
879.04        60.37142
879.44        61.14911
879.84        57.57114
880.24        63.03135
880.64        63.08293
881.04        60.20289
881.44        57.95536
881.84        57.03556
882.24        57.57105
882.65        58.86192
883.05        59.28342
883.45        58.51656
883.85        57.55135
884.25        56.86752
884.65         56.7576
885.05        57.32461
885.45        58.34145
885.85        59.40155
886.25        59.96585
886.65        59.90899
887.05        59.41291
887.45        58.68204
887.85        58.06213
888.25         57.6995
888.65        57.49683
889.04        57.46349
889.44        57.62033
889.84        57.92228
890.24        58.36169
890.64        58.81237
891.04        59.07509
891.44        59.11313
891.84        58.97622
892.24        58.73504
892.64        58.53404
893.04        58.43194
893.44        58.38901
893.83        58.44003
894.23        58.59845
894.63        58.86855
895.03        59.26371
895.43        59.67998
895.83        59.93373
896.23        59.98333
896.63         59.8546
897.02        59.69173
897.42        59.77462
897.82        60.11518
898.22         60.6267
898.62        61.09211
899.01        61.16835
899.41        60.76554
899.81        60.02022
900.21        59.16583
900.61         58.5816
901.00        58.37146
901.40        58.49918
901.80        58.82724
902.20        58.97365
902.59        58.82948
902.99        58.80336
903.39        59.11677
903.79        58.20067
904.18        59.13638
904.58        59.39652
904.98         59.6783
905.38        59.60534
905.77         59.1384
906.17        58.40328
906.57        57.64304
906.96           57.36
907.36        57.66401
907.76        58.42849
908.15        59.38607
908.55        59.93774
908.95        59.97148
909.34        59.60973
909.74        59.16224
910.14        59.08848
910.53         59.4914
910.93        60.18025
911.33        60.87191
911.72        61.13164
912.12        60.86294
912.52         60.2336
912.91        59.44495
913.31        58.88018
913.70        58.63085
914.10        58.59518
914.49        58.69639
914.89        58.73206
915.29        58.66393
915.68        58.54158
916.08        58.45002
916.47        58.45877
916.87        58.60729
917.26        58.84747
917.66        59.08192
918.05        59.18642
918.45        59.11562
918.84        58.91885
919.24        58.70641
919.64        58.71498
920.03        58.99559
920.42        59.45991
920.82        59.93131
921.21        60.14426
921.61        60.06519
922.00        59.83829
922.40        59.68797
922.79        59.81599
923.19        59.85428
923.58        60.70032
923.98        62.59979
924.37        62.60859
924.77        59.13418
925.16        67.70008
925.55        60.32565
925.95        60.65105
926.34        60.69439
926.74        60.19026
927.13        59.01572
927.52        58.30969
927.92        58.55308
928.31        59.08057
928.70        59.75077
929.10        60.27052
929.49        60.58333
929.89        60.79002
930.28        60.84367
930.67         60.5769
931.07        60.02459
931.46         59.1234
931.85        58.21703
932.24        58.38735
932.64        59.76987
933.03        61.36248
933.42        62.24394
933.82        64.89294
934.21        63.10239
934.60        61.74805
934.99        60.38449
935.39        60.11576
935.78        60.96031
936.17        63.32431
936.56        70.56496
936.96        62.78817
937.35        67.14128
937.74        63.59524
938.13        61.06426
938.53        58.96416
938.92        58.09715
939.31        59.05781
939.70        60.61729
940.09        61.59846
940.49        61.69686
940.88        61.36519
941.27        60.83272
941.66        60.48867
942.05        60.51394
942.44        60.70219
942.84        60.91773
943.23        61.11723
943.62        61.23944
944.01        61.30146
944.40        61.41297
944.79        61.72379
945.18        62.23008
945.57        62.86925
945.97        63.33109
946.36        63.25214
946.75        62.53477
947.14        61.30539
947.53        59.98077
947.92        59.29019
948.31        59.42927
948.70        60.17833
949.09        61.11497
949.48        61.57185
949.87        61.37884
950.26        60.74799
950.65        59.93573
951.04        59.36236
951.43         59.1661
951.82        59.19379
952.21        59.34634
952.60        59.47433
952.99        59.50682
953.38        59.51657
953.77        59.49556
954.16        59.39803
954.55        59.24444
954.94        59.06493
955.33         58.9121
955.72        58.90497
956.11        59.07036
956.50        59.32449
956.89         59.7096
957.28        60.28306
957.66          61.038
958.05        61.88912
958.44        62.55198
958.83        62.58836
959.22        61.94065
959.61         60.6912
960.00         59.3275
960.39        58.80205
960.78        59.36676
961.16        60.74284
961.55        62.19051
961.94        62.81452
962.33        62.45096
962.72        61.35856
963.11        59.99348
963.49        59.30789
963.88        59.63223
964.27        60.59507
964.66        61.74634
965.04        62.50213
965.43        62.65202
965.82        62.45058
966.21        61.99427
966.60        61.44041
966.98        60.90066
967.37        60.31076
967.76        59.81124
968.15          59.646
968.53        59.87783
968.92        60.46643
969.31        61.19425
969.69        61.65651
970.08        61.72192
970.47        61.47442
970.86        61.16494
971.24         61.2494
971.63         61.7969
972.02        62.62042
972.40        63.42731
972.79        63.71618
973.17        63.43777
973.56        62.75292
973.95        61.90813
974.33        61.33595
974.72        61.19028
975.11        61.33433
975.49        61.71518
975.88        62.16547
976.26        62.67229
976.65        63.21311
977.04        63.68774
977.42        63.89543
977.81        63.76922
978.19        63.29853
978.58        62.85876
978.96        63.03249
979.35        63.87465
979.74         65.0985
980.12        66.28465
980.51        66.72081
980.89         66.4231
981.28        65.49704
981.66        64.15211
982.05        63.05001
982.43        62.48902
982.82        62.42098
983.20         62.6545
983.59         62.8124
983.97        62.82195
984.35        62.72839
984.74        62.69033
985.12        63.02966
985.51        63.72277
985.89        64.68407
986.28        65.47332
986.66        65.55973
987.04        64.93047
987.43        63.65006
987.81        61.94094
988.20        62.06119
988.58         64.4702
988.96        65.54951
989.35        64.17476
989.73         71.5975
990.12        67.90596
990.50        68.31408
990.88        67.74402
991.27        67.19915
991.65        66.71542
992.03        66.35681
992.42        66.20834
992.80         65.7606
993.18        64.99037
993.56        64.18987
993.95        63.48768
994.33         62.9945
994.71        62.78797
995.10        62.74872
995.48        63.07436
995.86         64.0851
996.24        65.71342
996.63        67.72294
997.01        69.57368
997.39        70.23036
997.77        69.50366
998.15        67.69304
998.54        65.55503
998.92        64.20178
999.30        64.01846
999.68        64.81899
1000.06        66.10917
1000.45        66.77454
1000.83        66.53114
1001.21        65.75646
1001.59        65.05909
1001.97        65.30366
1002.35        66.55392
1002.73        68.29667
1003.12        70.08012
1003.50        71.48627
1003.88        72.39832
1004.26        73.00446
1004.64        73.26221
1005.02        73.05503
1005.40         72.3749
1005.78        71.20002
1006.16        69.85706
1006.54         68.8987
1006.92         68.5201
1007.30        68.74838
1007.69        69.17821
1008.07          69.236
1008.45        68.78075
1008.83        67.92085
1009.21        67.27904
1009.59        68.07156
1009.97        70.33107
1010.35        73.22453
1010.73        75.76764
1011.11        77.23229
1011.49        77.70127
1011.86        77.15384
1012.24        75.53293
1012.62        76.33103
1013.00        76.75051
1013.38        76.37087
1013.76        73.69907
1014.14        78.20089
1014.52         85.0226
1014.90        77.17817
1015.28        78.96893
1015.66        80.64471
1016.04        76.78175
1016.41        76.58691
1016.79        75.08199
1017.17        74.30486
1017.55        73.72841
1017.93        73.58244
1018.31        74.13829
1018.69        75.13197
1019.06        76.47551
1019.44        78.04455
1019.82        79.41419
1020.20        80.04626
1020.58        79.88055
1020.95        78.86913
1021.33        77.37289
1021.71        76.44254
1022.09        76.71458
1022.46        77.80304
1022.84        79.02458
1023.22        79.92129
1023.60         80.5006
1023.97        80.94106
1024.35        81.36677
1024.73        81.91302
