SpectraSmart Spectrum 2.9.0.0
--------- Device Information -----------
Spectrum Name :  反射率_0
Saving Time :  2024/04/21 00:51:19
Spectro-Module Model Name : SE2030-DUVN
Spectro-Module Serial Number : OS361AC55029948
Wavelength Start : 200
Wavelength End : 1025
Wavelength Unit : Wavelength(nm)
Spectrum Unit : Reflectance(%)
-----------Spectrum Setting ------------
Integration Time : 20ms
Average : 10
Boxcar : 0
Background removal :  enabled
linearity correction :  enabled
SC :  disabled
Intensity correction :  disabled
DWT denoise :  enabled
savitzky-golay :  disabled
FFT :  disabled
Running average :  disabled
Kalman :  disabled
High pass :  disabled
---------------BEGIN--------------------
Wavelength(nm)             Reflectance(%)
200.29               0
200.75       -71.28849
201.21       -20.49681
201.67        7.368013
202.13        18.61331
202.58        20.61019
203.04         17.6236
203.50        11.71879
203.96        7.821625
204.42        8.107774
204.88        9.800508
205.34        11.80074
205.80        12.44414
206.26        11.47346
206.72        12.26227
207.18        11.38151
207.64       0.3399515
208.10       -20.89492
208.55       -49.39928
209.01       -60.77351
209.47       -30.27513
209.93        10.84656
210.39        43.01496
210.85        62.78766
211.31        70.19528
211.77         68.1576
212.23         57.0928
212.69        31.84793
213.14       -13.33448
213.60       -89.09779
214.06       -288.0175
214.52       -694.0603
214.98       -276.2605
215.44       -53.24401
215.90         17.5786
216.36        40.15894
216.81        42.14676
217.27        27.27645
217.73       -51.35075
218.19        915.8204
218.65         419.275
219.11        -951.165
219.57       -43.50011
220.02        15.32189
220.48         26.0017
220.94        20.91417
221.40      -0.5767784
221.86       -51.47738
222.32       -79.71214
222.77       -28.63123
223.23        12.95051
223.69        32.63741
224.15        37.61888
224.61        34.56825
225.06        27.25755
225.52        17.62495
225.98        8.656357
226.44        2.023155
226.90       -4.168962
227.36       -6.726974
227.81      -0.7204337
228.27        9.603086
228.73        20.02572
229.19        26.63985
229.65        27.32177
230.10        22.99885
230.56        15.08979
231.02        5.153732
231.48      -0.8900494
231.93       0.8541259
232.39        7.947624
232.85        15.34048
233.31        18.74187
233.77        18.44827
234.22        16.34897
234.68        13.30296
235.14         10.9509
235.60        10.37079
236.05        10.15044
236.51        10.14283
236.97        16.62842
237.43        29.33512
237.88         37.2787
238.34        36.29867
238.80        58.86915
239.26        47.05385
239.71         43.0497
240.17        31.50924
240.63         20.1348
241.08        14.74916
241.54        20.00827
242.00        35.12273
242.46        46.03877
242.91        49.31602
243.37         46.1489
243.83          38.787
244.28        36.49076
244.74        43.74317
245.20        54.83809
245.66        63.27174
246.11        62.94436
246.57        53.59451
247.03        37.55175
247.48        17.95863
247.94       0.1247247
248.40       -16.15041
248.85       -42.24962
249.31       -99.87278
249.77        -108.199
250.22       -10.01819
250.68         20.9573
251.14        28.46572
251.59        28.64268
252.05        25.40121
252.51        19.13671
252.96        9.570439
253.42        2.429106
253.88        3.076149
254.33        9.453403
254.79        20.73101
255.25        33.66877
255.70        44.60839
256.16        53.01335
256.62        58.06638
257.07        59.50111
257.53        59.00001
257.99        57.37202
258.44        55.62943
258.90        55.31785
259.35        55.68393
259.81         56.4515
260.27        56.66407
260.72        55.45535
261.18        53.46155
261.63        51.05481
262.09        48.90993
262.55        47.22931
263.00        45.89618
263.46        44.89054
263.91        43.97232
264.37        43.23767
264.83        42.57759
265.28        41.95297
265.74         41.3919
266.19        40.74328
266.65        40.02738
267.11        39.20621
267.56        38.26919
268.02        37.29411
268.47        36.27069
268.93        35.25313
269.38        34.20407
269.84        33.12241
270.30        32.01835
270.75        30.89854
271.21        29.91436
271.66        29.23134
272.12        28.86909
272.57        28.72865
273.03        28.59819
273.48        28.13116
273.94        27.30181
274.39         26.2194
274.85        25.11562
275.31        24.27917
275.76        23.77611
276.22        23.52179
276.67         23.4114
277.13         23.3611
277.58        23.28194
278.04        23.20988
278.49        23.06506
278.95         22.7964
279.40        22.37059
279.86        21.84264
280.31        21.24159
280.77        20.68956
281.22         20.2013
281.68        19.81467
282.13        19.49715
282.59        19.25932
283.04        19.07601
283.50        18.95646
283.95        18.92802
284.41        19.04661
284.86        19.29419
285.32        19.65121
285.77         19.9909
286.22        20.14491
286.68        20.11581
287.13         19.9269
287.59        19.77844
288.04        19.87189
288.50        20.21156
288.95        20.84365
289.41        21.63136
289.86        21.87799
290.32        21.46418
290.77        22.44387
291.22        21.61139
291.68          21.835
292.13        22.19765
292.59        22.75167
293.04        23.45972
293.50        24.33615
293.95         25.3864
294.40        26.58401
294.86         27.9134
295.31        29.33102
295.77        30.80957
296.22        32.32899
296.68        33.86661
297.13         35.3912
297.58        36.91891
298.04        38.46415
298.49        40.07361
298.95        41.84023
299.40        43.75854
299.85        45.80768
300.31        47.91109
300.76        49.92324
301.21        51.82434
301.67         53.6756
302.12        55.53556
302.58        57.60594
303.03         59.8825
303.48        62.33862
303.94        64.87007
304.39        67.26108
304.84        69.46037
305.30        71.53314
305.75        73.50724
306.20        75.54264
306.66        77.67039
307.11        79.78384
307.57        81.83218
308.02         83.6595
308.47        85.26867
308.93        86.74608
309.38        88.12051
309.83        89.50745
310.29        90.97359
310.74        92.41775
311.19        93.80737
311.65        95.06009
312.10        96.13637
312.55          97.078
313.00        97.90696
313.46        98.65988
313.91        99.34267
314.36        99.96086
314.82        100.5501
315.27        101.1539
315.72        101.7912
316.18        102.4566
316.63        103.1122
317.08        103.6953
317.53        104.1817
317.99        104.5749
318.44        104.9044
318.89        105.2079
319.35        105.4957
319.80        105.7671
320.25        105.9901
320.70        106.1357
321.16        106.1714
321.61        106.1528
322.06        106.1369
322.51        106.2303
322.97         106.441
323.42          106.78
323.87         107.148
324.32        107.3957
324.78        107.4673
325.23        107.4415
325.68        107.4017
326.13        107.5189
326.59        107.8073
327.04        108.2646
327.49        108.7622
327.94         109.122
328.39         109.293
328.85        109.2993
329.30        109.2906
329.75        109.3809
330.20        109.6165
330.66        109.9158
331.11        110.2966
331.56        110.6487
332.01        110.9407
332.46        111.1985
332.92        111.3885
333.37        111.5963
333.82        111.7933
334.27        111.9856
334.72        112.1888
335.17        112.4338
335.63        112.7011
336.08        113.0417
336.53        113.4488
336.98        113.9558
337.43        114.5506
337.88        115.2107
338.34        115.8218
338.79        116.2589
339.24        116.4692
339.69        116.5052
340.14        116.4793
340.59        116.5763
341.05        116.8531
341.50        117.2693
341.95        117.7719
342.40        118.2734
342.85        118.7308
343.30        119.1591
343.75        119.5443
344.20        119.8685
344.66         120.133
345.11         120.311
345.56         120.412
346.01        120.4584
346.46        120.4761
346.91        120.4671
347.36        120.4316
347.81        120.4291
348.26        120.4769
348.72        120.3272
349.17        120.4378
349.62        120.5407
350.07        120.7616
350.52        121.0592
350.97        121.3039
351.42        121.2816
351.87        120.9464
352.32        120.3651
352.77        119.7034
353.22         119.216
353.67        118.9618
354.13         118.888
354.58        118.8248
355.03        118.5513
355.48        118.0195
355.93        117.3104
356.38        116.5734
356.83        116.0277
357.28        115.7085
357.73         115.527
358.18        115.3355
358.63        114.9072
359.08        114.1923
359.53        113.2789
359.98        112.2844
360.43        111.3812
360.88        110.6146
361.33        109.9233
361.78        109.2637
362.23        108.5696
362.68        107.8205
363.13        107.0562
363.58        106.2618
364.03        105.4045
364.48        104.4861
364.93         103.505
365.38        102.5344
365.83        101.7008
366.28        101.0221
366.73        100.4565
367.18        99.89729
367.63        99.17168
368.08        98.24862
368.53         97.1989
368.98        96.10943
369.43        95.10266
369.88        94.21356
370.33        93.39933
370.78        92.65162
371.23        91.97264
371.68        91.35715
372.13        90.80901
372.58        90.29446
373.03        89.74116
373.48        89.12486
373.93        88.46095
374.38        87.75996
374.83         87.0595
375.28         86.3868
375.72        85.71785
376.17        85.11548
376.62         84.5966
377.07        84.14507
377.52        83.74234
377.97        83.32565
378.42        82.80466
378.87        82.17699
379.32        81.48626
379.77         80.7988
380.22        80.19581
380.67        79.68191
381.11        79.22733
381.56        78.78904
382.01        78.32035
382.46        77.81901
382.91        77.31638
383.36        76.81908
383.81        76.32942
384.26        75.85032
384.71         75.3744
385.15        74.91637
385.60        74.56466
386.05         74.2998
386.50        74.09964
386.95        73.89865
387.40        73.60006
387.85        73.19792
388.29        72.69092
388.74        72.23292
389.19        71.85202
389.64        71.54881
390.09        71.27721
390.54        71.02429
390.98        70.76291
391.43        70.52832
391.88        70.32536
392.33        70.10374
392.78        69.82861
393.23        69.50863
393.67        69.00671
394.12         68.5099
394.57        68.39964
395.02        68.55472
395.47        68.29119
395.91        67.66357
396.36        67.31314
396.81        67.29216
397.26        67.25972
397.71        67.12946
398.15        66.93715
398.60        66.74583
399.05        66.35984
399.50        65.94337
399.95        65.99941
400.39         66.4072
400.84        66.47392
401.29        66.13039
401.74        65.64333
402.18        65.15658
402.63        64.91599
403.08        64.90485
403.53         64.7331
403.97        64.40164
404.42        64.24469
404.87        64.23576
405.32        64.21365
405.76        64.15347
406.21        64.01223
406.66         63.8512
407.11        63.94192
407.55        64.20239
408.00        64.21884
408.45        63.95022
408.90        63.43154
409.34        62.84884
409.79        62.73496
410.24        62.99836
410.68        62.99986
411.13        62.71284
411.58        62.53416
412.03        62.51735
412.47        62.55984
412.92        62.63738
413.37        62.77986
413.81          62.918
414.26         62.9996
414.71        62.99415
415.15        62.93225
415.60         62.8074
416.05        62.67525
416.49        62.56204
416.94        62.44437
417.39         62.3497
417.83         62.3115
418.28        62.33107
418.73        62.39759
419.17        62.45781
419.62        62.43245
420.07        62.31118
420.51        62.11858
420.96        61.93177
421.41        61.84829
421.85         61.8647
422.30        61.91523
422.74         61.9574
423.19        62.18019
423.64        62.48796
424.08        62.55643
424.53        62.34523
424.98        62.26669
425.42        62.37407
425.87         62.3222
426.31        62.18295
426.76        62.40676
427.21        62.89209
427.65        63.03284
428.10        62.81862
428.54        62.73962
428.99        62.84469
429.44        62.98109
429.88        63.02838
430.33        62.78817
430.77        62.37873
431.22        62.29267
431.66         62.5354
432.11         63.0709
432.56         63.6835
433.00        63.61459
433.45        62.78458
433.89        62.33852
434.34        62.51991
434.78        62.31181
435.23        62.43126
435.67        63.28719
436.12        63.71395
436.57        63.77258
437.01         63.3009
437.46        62.95844
437.90        63.43833
438.35        63.89717
438.79        63.87406
439.24        63.94296
439.68        63.92899
440.13        63.83754
440.57        63.69374
441.02        63.63904
441.46         63.6949
441.91        63.69206
442.35        63.60118
442.80        64.01385
443.24        64.72971
443.69        64.69778
444.13        63.92583
444.58        64.00484
445.02        63.64982
445.47        63.85839
445.91        64.12039
446.36         64.2523
446.80        64.20676
447.24          64.119
447.69        64.05511
448.13        64.18098
448.58         64.2747
449.02        64.17454
449.47         63.8995
449.91        63.82961
450.36        64.00485
450.80        64.14473
451.25        64.22173
451.69        64.35776
452.13        64.47946
452.58         64.2813
453.02        63.85184
453.47        63.61512
453.91        63.60738
454.36        63.65777
454.80        63.69671
455.24        63.62831
455.69        63.43708
456.13        63.17922
456.58        63.07888
457.02        62.68021
457.46        63.54306
457.91        63.44583
458.35        62.95465
458.79        62.72795
459.24        62.81744
459.68        62.76184
460.13        62.58965
460.57         62.4762
461.01        62.42253
461.46        62.38541
461.90        62.52562
462.34        62.30689
462.79        62.27954
463.23        62.36006
463.68        62.61017
464.12        62.35363
464.56        61.74198
465.01        61.91602
465.45        62.63229
465.89         62.5684
466.34        61.83536
466.78        61.71338
467.22        62.26533
467.67        61.73553
468.11        61.85816
468.55        61.55252
468.99        61.35514
469.44        61.39201
469.88        61.13517
470.32        61.05003
470.77        60.95297
471.21        60.86886
471.65        60.78848
472.10        60.71181
472.54         60.6608
472.98        60.66955
473.42        60.73994
473.87          60.885
474.31        61.00665
474.75        61.02805
475.20        60.93004
475.64        60.74379
476.08        60.54526
476.52        60.47464
476.97        60.53552
477.41        60.76037
477.85        60.91119
478.29        61.12825
478.74         60.3132
479.18        60.49389
479.62        60.62868
480.06        60.49343
480.50        60.57921
480.95          60.516
481.39        60.42537
481.83        60.77196
482.27        60.97458
482.72        60.52076
483.16        60.77467
483.60         61.0477
484.04        61.00092
484.48        60.68584
484.93        60.67348
485.37        60.42296
485.81        61.41391
486.25        60.90141
486.69        61.82779
487.14        61.90182
487.58        61.22208
488.02        60.64085
488.46        60.89637
488.90        60.53324
489.34        60.09675
489.79        59.47234
490.23        60.37556
490.67        60.69674
491.11         60.7959
491.55        60.62865
491.99        60.30725
492.43        60.17898
492.88         60.2673
493.32        60.35967
493.76        60.35283
494.20        60.33201
494.64        60.31151
495.08        59.90874
495.52        59.76334
495.96        59.79985
496.41        60.09628
496.85        60.15118
497.29        59.92656
497.73         59.9818
498.17        59.96809
498.61        59.97883
499.05        59.88842
499.49        59.56978
499.93        59.20805
500.37         59.3699
500.82        59.93789
501.26        60.32928
501.70        60.41865
502.14        60.03215
502.58        59.77938
503.02        59.58219
503.46        59.58195
503.90        59.62811
504.34        59.65751
504.78        59.68459
505.22        59.69728
505.66        59.66655
506.10        59.60214
506.54        59.63672
506.98        59.79378
507.42        59.60334
507.86        59.80622
508.30        59.85435
508.74        59.83541
509.18        59.82652
509.62         59.7861
510.06        59.73242
510.50        59.64409
510.94        59.46418
511.38        59.23723
511.82         59.0943
512.26        59.05222
512.70        59.05345
513.14        59.06959
513.58        59.07101
514.02        59.04396
514.46        58.99895
514.90        58.93594
515.34        58.89697
515.78        58.89414
516.22        58.87554
516.66        58.69675
517.10        58.98362
517.54        58.80643
517.98         58.8887
518.42        58.93924
518.86        58.95386
519.30        58.92617
519.74        58.83259
520.18        58.72975
520.62         58.7755
521.06         58.9382
521.50        58.98447
521.93        58.90716
522.37        58.88211
522.81        58.91274
523.25        58.89228
523.69        58.82355
524.13        58.76575
524.57        58.72611
525.01        58.68723
525.45        58.66405
525.89        58.68041
526.32        58.73338
526.76        58.82015
527.20        58.90533
527.64        58.93438
528.08        58.89456
528.52        58.80292
528.96        58.69264
529.40        58.60868
529.83         58.5635
530.27        58.57547
530.71        58.60569
531.15        58.58965
531.59        58.51784
532.03        58.41547
532.46        58.32124
532.90        58.30759
533.34        58.38022
533.78        58.51222
534.22        58.64616
534.66        58.69635
535.09        58.63678
535.53        58.51457
535.97        58.36824
536.41        58.27529
536.85         58.2563
537.28        58.28723
537.72        58.33856
538.16        58.36336
538.60        58.34783
539.04         58.3137
539.47        58.26257
539.91        58.24249
540.35        58.24671
540.79        58.26542
541.22        58.29354
541.66        58.33918
542.10        58.39309
542.54        58.44828
542.97        58.48897
543.41        58.52283
543.85        58.54246
544.29        58.55495
544.72        58.54229
545.16        58.53083
545.60        58.51799
546.04        58.43536
546.47        58.32723
546.91        58.42483
547.35        58.65573
547.79        58.64979
548.22        58.41942
548.66        58.31925
549.10        58.37215
549.53        58.39921
549.97        58.39435
550.41        58.39553
550.84        58.40273
551.28        58.39477
551.72        58.38079
552.15        58.42454
552.59        58.54266
553.03        58.49073
553.46        58.69247
553.90        58.63701
554.34         58.4115
554.77         58.4178
555.21         58.4608
555.65        57.92312
556.08         58.3774
556.52        58.48893
556.96        58.67356
557.39        58.79797
557.83         58.8314
558.27        58.80146
558.70        58.54985
559.14        58.46374
559.57        58.49329
560.01        58.66973
560.45        58.85493
560.88         58.7386
561.32        58.44033
561.75        58.19749
562.19        58.13258
562.63        58.41686
563.06        58.86862
563.50        58.78765
563.93        58.24971
564.37        58.04172
564.80        58.19304
565.24        58.36954
565.68        58.51218
566.11        58.60897
566.55        58.65132
566.98        58.74749
567.42        58.87285
567.85        58.73773
568.29        58.48947
568.72        58.49945
569.16        58.74336
569.60        59.05946
570.03        58.94484
570.47         59.0019
570.90        59.05329
571.34        59.26749
571.77        59.36385
572.21        59.37875
572.64        59.24944
573.08        59.13469
573.51        59.46511
573.95         59.6448
574.38        59.36279
574.82        60.07746
575.25        59.70874
575.69        59.64772
576.12        59.24205
576.56         59.2856
576.99        59.64224
577.42         59.7426
577.86        60.11233
578.29         60.4178
578.73        60.62195
579.16        59.94177
579.60        59.56389
580.03        59.59295
580.47        59.68275
580.90         59.9538
581.33        59.95915
581.77        60.13809
582.20        60.43585
582.64        60.44231
583.07        60.16503
583.51        59.90762
583.94        59.50037
584.37        59.35802
584.81        59.07834
585.24        59.09452
585.68        59.59959
586.11        59.59127
586.54        59.63361
586.98        59.69007
587.41        59.14978
587.85        59.57774
588.28        59.63865
588.71        59.71847
589.15        59.71074
589.58        59.02798
590.01        59.06276
590.45        59.01062
590.88        59.21424
591.31        58.92402
591.75        58.84835
592.18        58.78607
592.61        58.91085
593.05        59.25148
593.48        59.61446
593.91        59.31763
594.35        59.47168
594.78        59.29224
595.21        59.17148
595.65        59.11034
596.08        59.11629
596.51        59.33659
596.94        59.17362
597.38        59.20155
597.81        59.30577
598.24        59.18025
598.68        58.93071
599.11        59.25647
599.54        59.40316
599.97        59.20304
600.41        59.52937
600.84        59.54666
601.27         59.5391
601.70        59.34644
602.14        59.07247
602.57        59.02208
603.00        59.19653
603.43        59.43269
603.87        59.77512
604.30        59.54436
604.73        59.33488
605.16        58.90034
605.60         59.2613
606.03        59.42077
606.46        59.63641
606.89        59.18637
607.32        59.06963
607.76        59.71815
608.19        59.50323
608.62        59.25305
609.05        59.98576
609.48        59.40787
609.92         59.3016
610.35        59.42764
610.78        59.50408
611.21        59.27136
611.64        59.38974
612.07        59.33285
612.50        59.34202
612.94        59.32674
613.37        59.31741
613.80         59.3089
614.23        59.28415
614.66        59.22992
615.09        59.13768
615.52        59.05192
615.96        59.00571
616.39        58.93877
616.82        58.83729
617.25        59.12503
617.68         59.0118
618.11        59.03778
618.54        59.12152
618.97        58.92085
619.40        58.53119
619.84        58.62505
620.27        58.71531
620.70        58.73981
621.13        58.55379
621.56        58.58752
621.99        58.83781
622.42        58.84838
622.85        58.60117
623.28        58.70344
623.71        58.79946
624.14        58.56199
624.57        59.05272
625.00        58.93775
625.43        58.79433
625.86        58.75705
626.29        58.94479
626.72        58.64187
627.15        58.74266
627.58        58.69986
628.01        58.78812
628.44        58.53407
628.87        58.71142
629.30        58.55387
629.73        58.77601
630.16        58.77089
630.59        58.42643
631.02        58.55799
631.45        58.27359
631.88        58.26528
632.31        58.29921
632.74        58.14477
633.17        58.30582
633.60        58.28045
634.03        58.22239
634.46        58.18282
634.89        58.09769
635.32        58.08648
635.75        58.12336
636.18         58.1989
636.61        58.27828
637.04        58.30941
637.47        58.27819
637.89        58.21437
638.32        58.14061
638.75        58.08747
639.18        58.06224
639.61        58.17419
640.04        58.18198
640.47        58.21668
640.90        58.20307
641.33        58.16076
641.76        58.10953
642.18        58.09095
642.61         58.1039
643.04        58.14073
643.47        58.18446
643.90        58.21281
644.33        58.21825
644.76         58.1937
645.18        58.15443
645.61        58.15007
646.04        58.16988
646.47         58.1376
646.90         58.0591
647.33        58.00191
647.75        57.96825
648.18        57.95721
648.61        57.96876
649.04        57.95512
649.47        57.90871
649.89        58.10157
650.32        57.93462
650.75        58.18077
651.18        58.53786
651.61        58.48418
652.03        58.11361
652.46        57.98507
652.89        58.16898
653.32        58.48274
653.74        58.79871
654.17        58.70548
654.60        58.15269
655.03        57.99242
655.46        58.27148
655.88        58.72256
656.31        60.19604
656.74        63.75463
657.16        62.55444
657.59        61.30204
658.02        59.25274
658.45        58.80866
658.87        58.95163
659.30        58.70251
659.73         58.4411
660.15        58.02721
660.58        58.40744
661.01        58.66954
661.44        58.88441
661.86        58.70003
662.29        58.21376
662.72        58.06452
663.14        58.27967
663.57        58.38118
664.00        58.32125
664.42        58.31529
664.85        58.36118
665.27        58.24234
665.70        58.18218
666.13        58.14362
666.55        58.20012
666.98        58.30253
667.41        58.41028
667.83        58.46599
668.26        58.46374
668.69        58.37756
669.11        58.23014
669.54        58.26245
669.96        58.53539
670.39        58.19648
670.82        58.62719
671.24        58.66233
671.67        58.68589
672.09        58.69364
672.52        58.71002
672.94        58.62469
673.37        58.48156
673.80        58.47816
674.22        58.60234
674.65        58.62505
675.07        58.55249
675.50        58.50262
675.92        58.49565
676.35        58.48977
676.77        58.48595
677.20        58.50803
677.62        58.57539
678.05        58.63355
678.47        58.66213
678.90        58.95143
679.32        58.94555
679.75        59.02345
680.17        59.02078
680.60        58.96712
681.02        58.88403
681.45        58.81927
681.87         58.7981
682.30         58.7736
682.72         58.7706
683.15        58.84238
683.57        58.93835
684.00        59.05803
684.42        58.84134
684.85        58.81285
685.27        58.86218
685.70        58.88147
686.12        58.84537
686.54        58.81922
686.97         58.8015
687.39        58.74635
687.82        58.76573
688.24        58.75442
688.66        58.72459
689.09        58.91126
689.51         58.8668
689.94        58.96436
690.36        59.04123
690.78        59.08458
691.21        59.10447
691.63        59.01935
692.06        58.86049
692.48        59.10554
692.90        59.08174
693.33        59.14672
693.75        59.10873
694.17        59.02798
694.60        58.91758
695.02        58.99557
695.44        59.00788
695.87        58.97974
696.29        58.89286
696.71        58.91303
697.14        59.03757
697.56        59.27872
697.98        59.57587
698.41        59.49601
698.83        59.61553
699.25        59.48924
699.68        59.32967
700.10        59.18775
700.52        59.09223
700.94        59.02685
701.37        58.97246
701.79        58.95298
702.21          58.949
702.64        58.97175
703.06        59.01482
703.48        59.07009
703.90        59.13488
704.33         59.1995
704.75        59.26254
705.17        59.30635
705.59         59.3281
706.01        59.32925
706.44        59.32333
706.86        59.35038
707.28        59.40613
707.70        59.48429
708.12        59.57211
708.55        59.63381
708.97        59.65779
709.39        59.67326
709.81        59.68325
710.23        59.68692
710.66        59.68933
711.08        59.70115
711.50        59.71001
711.92        59.71097
712.34        59.70316
712.76        59.68823
713.19        59.66022
713.61        59.65279
714.03        59.64909
714.45        59.66117
714.87        59.68713
715.29        59.68236
715.71        59.63631
716.13        59.71074
716.56        59.62394
716.98        59.65948
717.40        59.72354
717.82        59.81582
718.24        59.90458
718.66        59.94357
719.08        59.92688
719.50        59.86532
719.92        59.80279
720.34        59.80754
720.76        59.89312
721.19        60.03052
721.61          60.187
722.03         60.2804
722.45        60.29003
722.87        60.23866
723.29        60.16808
723.71        60.14665
724.13        60.19289
724.55         60.2866
724.97         60.4028
725.39        60.47242
725.81        60.47589
726.23        60.48701
726.65        60.53869
727.07        60.40575
727.49        60.54603
727.91        60.57426
728.33        60.61665
728.75        60.68977
729.17        60.77508
729.59         60.7887
730.01        60.74651
730.43        60.75862
730.85        60.83017
731.27        60.89005
731.69        60.92813
732.10        60.90586
732.52        60.99959
732.94        60.82768
733.36        60.51637
733.78        60.35432
734.20        60.37957
734.62        60.43364
735.04         60.4885
735.46        60.56305
735.88        60.64454
736.30        60.74075
736.72        60.81615
737.13        60.84344
737.55        60.78744
737.97         60.6138
738.39        60.41999
738.81        60.52092
739.23         60.8927
739.65        61.12579
740.06        61.09671
740.48        61.25975
740.90        61.17928
741.32        61.02789
741.74        60.76491
742.16        60.63315
742.57         60.6879
742.99        60.84622
743.41        61.04711
743.83        61.16316
744.25        61.15952
744.67         61.0754
745.08        60.97689
745.50        60.92797
745.92        60.96754
746.34         61.0733
746.75        61.19208
747.17        61.23905
747.59        61.19709
748.01        61.05885
748.42        60.90989
748.84         60.9202
749.26        61.08132
749.68         61.2697
750.09        61.39276
750.51        61.30599
750.93        61.05707
751.35        60.92278
751.76        60.94791
752.18         60.9411
752.60        60.90772
753.01        61.04625
753.43        61.28527
753.85        61.22182
754.27        61.22356
754.68        61.02528
755.10        60.83042
755.52        60.73955
755.93        60.78878
756.35        60.94418
756.77        61.13302
757.18        61.26976
757.60        61.31422
758.02        61.25086
758.43        61.15308
758.85        61.19139
759.26        61.26371
759.68        61.58856
760.10        61.31396
760.51        61.04916
760.93        60.91072
761.34        60.99219
761.76        61.31816
762.18        61.61544
762.59        61.73002
763.01        61.67966
763.42        60.78341
763.84        60.78097
764.26        61.08833
764.67        61.62057
765.09        62.06841
765.50        62.23069
765.92        62.12638
766.33        61.96489
766.75        61.80069
767.16        61.66934
767.58        61.56007
768.00        61.57851
768.41        61.72194
768.83        61.73558
769.24        61.58572
769.66        61.88013
770.07        61.66068
770.49        61.74611
770.90        61.82841
771.32        61.75894
771.73        61.58636
772.15        61.54035
772.56        61.65833
772.97        61.81998
773.39        61.94582
773.80        62.01946
774.22        61.99033
774.63        61.89494
775.05        61.77185
775.46          61.729
775.88         61.7707
776.29        61.88911
776.70        62.02125
777.12         62.0725
777.53        62.03924
777.95        61.95449
778.36          61.854
778.77        61.78607
779.19         61.7642
779.60        61.77047
780.02        61.81728
780.43        61.92069
780.84        62.06625
781.26        62.30096
781.67        62.57248
782.09        62.54468
782.50        62.27974
782.91        62.24002
783.33        62.39503
783.74        62.40704
784.15         62.2382
784.57        62.13669
784.98        62.14958
785.39        62.20356
785.81        62.30532
786.22        62.49241
786.63        62.70574
787.04        62.82658
787.46        62.84446
787.87        62.77524
788.28        62.67174
788.70        62.60696
789.11        62.58276
789.52        62.58537
789.93        62.60669
790.35        62.62368
790.76        62.64794
791.17        62.70279
791.58        62.76884
792.00        62.81501
792.41        62.86987
792.82         62.8583
793.23        62.87284
793.65        63.15239
794.06        63.62868
794.47        64.00683
794.88        64.24872
795.29        64.02427
795.71        64.29516
796.12        64.11292
796.53        63.79514
796.94        63.58436
797.35        63.49243
797.76        63.26656
798.18        62.96009
798.59        62.86278
799.00        62.98845
799.41        63.20664
799.82        63.42807
800.23        63.55327
800.64        63.54428
801.06        63.40905
801.47        63.24509
801.88        63.15031
802.29        63.15879
802.70        63.22732
803.11        63.34561
803.52         63.4962
803.93        63.66605
804.34        63.86711
804.75        64.04007
805.17        64.12045
805.58        64.12995
805.99         63.9323
806.40        63.63821
806.81        63.78219
807.22        64.23694
807.63        64.18337
808.04        63.69799
808.45        63.60266
808.86        63.94432
809.27        64.24344
809.68        64.41147
810.09        64.52259
810.50        64.54502
810.91        64.45633
811.32        64.30019
811.73        64.15515
812.14        64.05171
812.55        63.97991
812.96        63.94289
813.37        63.93696
813.78         63.9575
814.19          64.012
814.60        64.08131
815.01        64.12868
815.42        64.14669
815.83        64.14264
816.24        64.12752
816.65        64.12641
817.05        64.15408
817.46        64.17551
817.87        64.21766
818.28        64.28282
818.69        64.36962
819.10        64.47758
819.51         64.5949
819.92        64.69617
820.33        64.76886
820.74        64.81226
821.14        64.82909
821.55        64.84749
821.96        64.86358
822.37        64.87351
822.78        64.86819
823.19        64.83378
823.60        64.76681
824.00        64.68295
824.41        64.57079
824.82        64.47469
825.23        64.40321
825.64        64.35621
826.04        64.32197
826.45        64.23899
826.86        64.11383
827.27        63.97069
827.68        63.85196
828.08        63.85099
828.49        63.92225
828.90        64.08475
829.31        64.32272
829.72        64.50986
830.12        64.61639
830.53        65.03875
830.94        64.99072
831.35        64.98053
831.75        64.79517
832.16        64.46085
832.57        64.09921
832.97        63.91341
833.38         63.9571
833.79        64.17047
834.20        64.48036
834.60        64.77122
835.01        64.99731
835.42        65.18739
835.82        65.33946
836.23        65.40516
836.64        65.39581
837.04         65.3222
837.45         65.2002
837.86        65.12389
838.26        65.12881
838.67         65.1888
839.08         65.2854
839.48        65.36545
839.89        65.40974
840.29        65.43996
840.70        65.48426
841.11        65.58479
841.51        65.75823
841.92           65.94
842.33        66.11196
842.73          66.246
843.14        66.28638
843.54         66.2838
843.95        66.21602
844.35        66.07236
844.76        65.86026
845.17        65.59118
845.57        65.37325
845.98        65.34521
846.38        65.55858
846.79        65.95252
847.19        66.40485
847.60        66.63509
848.00         66.6097
848.41        66.35921
848.81        66.07519
849.22        66.02467
849.62         66.3075
850.03        66.78671
850.43        67.30605
850.84        67.52223
851.24        67.40425
851.65        66.99094
852.05        66.48505
852.46        66.15555
852.86        66.10373
853.27        66.28258
853.67         66.4924
854.07        66.59179
854.48        66.51129
854.88        66.32423
855.29        66.09335
855.69        66.08665
856.10        66.27293
856.50        66.65555
856.90         67.0165
857.31        67.04646
857.71        66.73346
858.12        66.13174
858.52        65.45802
858.92        65.01443
859.33        64.89157
859.73        65.04991
860.13        65.37643
860.54        65.67491
860.94        65.92663
861.34        66.13933
861.75        66.28697
862.15        66.40584
862.55        66.45685
862.96        66.38623
863.36        66.22421
863.76        65.98591
864.17          65.686
864.57        65.38544
864.97        65.04415
865.38        64.56765
865.78        64.00266
866.18        63.37636
866.58        62.90884
866.99        62.94972
867.39        63.57428
867.79        64.60963
868.19        65.68835
868.60        66.22717
869.00        66.19633
869.40        65.91813
869.80        65.51202
870.21        65.03333
870.61        64.65684
871.01        64.43021
871.41        64.32531
871.81        64.20573
872.22         64.0686
872.62        63.98762
873.02        63.98562
873.42        64.25393
873.82        64.59463
874.22        64.44128
874.63        64.06237
875.03        64.01848
875.43        64.36343
875.83          65.786
876.23         65.4793
876.63        64.77356
877.03         63.3681
877.44        60.70765
877.84        171.0815
878.24        60.93863
878.64        61.99026
879.04        64.09346
879.44        65.24629
879.84        62.43971
880.24        67.47026
880.64        67.59003
881.04        65.08852
881.44        63.22301
881.84        62.62612
882.24        63.35103
882.65        64.61486
883.05         64.7965
883.45        63.58861
883.85        61.94365
884.25        60.54165
884.65        60.03912
885.05         60.6179
885.45        61.93943
885.85        63.42761
886.25        64.28417
886.65         64.3109
887.05        63.77011
887.45         62.9187
887.85        62.18811
888.25        61.77148
888.65        61.54584
889.04        61.53944
889.44        61.81357
889.84        62.31778
890.24        63.01606
890.64         63.7622
891.04        64.32613
891.44        64.65099
891.84        64.79239
892.24        64.74191
892.64        64.51841
893.04         64.1662
893.44         63.6832
893.83         63.2634
894.23        63.16443
894.63        63.43864
895.03        64.04466
895.43        64.71387
895.83        64.98143
896.23         64.7532
896.63        64.16213
897.02        63.53202
897.42        63.40828
897.82         63.8499
898.22        64.67105
898.62        65.51865
899.01        65.83484
899.41        65.46091
899.81        64.60124
900.21        63.55858
900.61        62.82607
901.00         62.5515
901.40        62.65948
901.80        62.99323
902.20        63.16252
902.59        63.05854
902.99        63.07471
903.39        63.41883
903.79        62.69524
904.18        63.64575
904.58        63.98161
904.98        64.32382
905.38        64.34509
905.77        64.00301
906.17        63.42688
906.57        62.76948
906.96         62.3796
907.36        62.35143
907.76        62.60542
908.15        63.05907
908.55        63.42164
908.95        63.64923
909.34        63.76815
909.74        63.86471
910.14        64.03391
910.53        64.29097
910.93        64.57104
911.33        64.75964
911.72        64.68931
912.12        64.34873
912.52        63.81681
912.91        63.23361
913.31          62.895
913.70         62.8474
914.10        63.01185
914.49        63.29495
914.89        63.44868
915.29        63.42708
915.68        63.28818
916.08        63.12005
916.47         63.0127
916.87        63.02469
917.26        63.10561
917.66        63.22499
918.05        63.36098
918.45        63.47724
918.84        63.59488
919.24         63.7003
919.64         63.8258
920.03        63.97733
920.42        64.12525
920.82        64.22787
921.21         64.2373
921.61        64.18105
922.00        64.14894
922.40        64.24845
922.79        64.50977
923.19        64.56376
923.58        65.23044
923.98        66.83056
924.37        66.91225
924.77        64.10266
925.16        71.92606
925.55        65.81293
925.95         66.0526
926.34        65.68839
926.74        64.59269
927.13        62.83403
927.52        61.78652
927.92        62.02877
928.31        62.83426
928.70         63.9388
929.10        64.88716
929.49        65.56403
929.89        66.10616
930.28        66.44562
930.67        66.36697
931.07        65.88572
931.46        64.94072
931.85        63.90799
932.24        63.88414
932.64        65.03753
933.03        66.48402
933.42        67.35024
933.82        69.65453
934.21        68.01073
934.60        66.66014
934.99        65.31802
935.39        65.11034
935.78        66.07824
936.17        68.49242
936.56        75.00684
936.96        68.55871
937.35        72.12895
937.74        68.76306
938.13        66.13187
938.53        64.05056
938.92         63.3525
939.31        64.51658
939.70        66.18034
940.09        66.93075
940.49        66.45342
940.88        65.22993
941.27        63.83434
941.66        63.32956
942.05        64.04253
942.44        65.51167
942.84        67.04315
943.23        67.78493
943.62        67.52956
944.01        66.54847
944.40        65.36756
944.79        64.87115
945.18        65.30102
945.57        66.36893
945.97        67.51438
946.36        67.98314
946.75         67.5415
947.14        66.44585
947.53        65.17023
947.92        64.51965
948.31        64.72073
948.70        65.49298
949.09        66.40804
949.48        66.81937
949.87        66.56852
950.26        65.89233
950.65        65.06114
951.04         64.4994
951.43        64.35158
951.82        64.46294
952.21        64.73936
952.60        65.03759
952.99        65.26395
953.38        65.45699
953.77        65.57053
954.16          65.515
954.55        65.29481
954.94        64.94833
955.33        64.52077
955.72        64.13071
956.11        63.84077
956.50         63.6058
956.89        63.53828
957.28        63.79422
957.66        64.38982
958.05        65.21023
958.44        65.93767
958.83        66.07795
959.22        65.53751
959.61        64.40231
960.00        63.09814
960.39        62.47022
960.78        62.77351
961.16        63.79365
961.55        64.89431
961.94         65.3078
962.33        64.88612
962.72        63.82378
963.11        62.59639
963.49        62.17171
963.88        62.83205
964.27         64.2056
964.66        65.64281
965.04        66.27537
965.43        65.88667
965.82        64.81722
966.21        63.49343
966.60        62.66577
966.98        62.59565
967.37        63.02744
967.76        63.74804
968.15        64.40824
968.53        64.88223
968.92        65.28732
969.31        65.56802
969.69        65.60478
970.08        65.37415
970.47        64.85169
970.86        64.30233
971.24        64.22963
971.63        64.69387
972.02        65.53494
972.40        66.36508
972.79        66.49535
973.17        65.87141
973.56        64.75074
973.95        63.48939
974.33        62.73608
974.72        62.70459
975.11        63.11635
975.49        63.98061
975.88        65.22436
976.26        66.75416
976.65        68.49767
977.04        69.89461
977.42        70.07272
977.81        68.86182
978.19        66.38261
978.58        63.68834
978.96        62.81827
979.35         64.2692
979.74        67.25674
980.12        70.43277
980.51        71.97425
980.89         71.7314
981.28        70.10816
981.66         67.7818
982.05         66.4165
982.43        66.67888
982.82        68.07452
983.20         69.8324
983.59        70.78368
983.97        70.65688
984.35        69.80464
984.74         68.5784
985.12        67.64866
985.51         67.2449
985.89        67.23494
986.28        67.37354
986.66        67.39433
987.04        67.27473
987.43        67.01782
987.81        66.59895
988.20         67.4933
988.58         69.8616
988.96        70.74825
989.35        69.27887
989.73        75.32049
990.12        71.72981
990.50        71.65941
990.88        70.76202
991.27        70.10135
991.65        69.77355
992.03        69.84842
992.42        70.24706
992.80        70.22072
993.18        69.62726
993.56        68.74113
993.95        67.83181
994.33        67.27032
994.71        67.20644
995.10        67.50533
995.48        68.09321
995.86        68.84821
996.24        69.66364
996.63        70.44612
997.01        71.22583
997.39        71.85689
997.77        72.26747
998.15        72.44786
998.54        72.38847
998.92        71.98605
999.30         71.3011
999.68        70.42268
1000.06        69.49398
1000.45        68.77717
1000.83        68.53262
1001.21        68.69998
1001.59        69.34428
1001.97        70.50046
1002.35        71.99306
1002.73        73.63792
1003.12        75.09055
1003.50        76.00433
1003.88        76.31794
1004.26        76.11501
1004.64        75.52365
1005.02        74.85425
1005.40        74.27341
1005.78        73.75433
1006.16        73.28786
1006.54        72.80034
1006.92        72.31381
1007.30        71.96827
1007.69        71.79107
1008.07        71.87568
1008.45        72.19462
1008.83        72.67522
1009.21        73.35061
1009.59         74.2573
1009.97         75.2208
1010.35        76.04173
1010.73        76.55396
1011.11        76.82437
1011.49        77.02753
1011.86        76.90498
1012.24        76.19761
1012.62        77.70283
1013.00        78.40903
1013.38        78.12191
1013.76        75.64742
1014.14        79.99599
1014.52        86.55137
1014.90        80.14794
1015.28        82.30647
1015.66        83.90976
1016.04        80.34084
1016.41        79.44684
1016.79        77.34052
1017.17        76.25214
1017.55        75.80191
1017.93        76.05398
1018.31        77.08974
1018.69          78.353
1019.06         79.6409
1019.44        80.97318
1019.82        81.94881
1020.20        82.00556
1020.58        81.05957
1020.95        78.94277
1021.33        76.23937
1021.71        74.89509
1022.09        75.87865
1022.46        78.31007
1022.84        80.78764
1023.22        82.28293
1023.60        82.85532
1023.97        82.93285
1024.35        82.74977
1024.73        82.71815
