SpectraSmart Spectrum 2.9.0.0
--------- Device Information -----------
Spectrum Name :  反射率_0
Saving Time :  2024/04/21 00:39:22
Spectro-Module Model Name : SE2030-DUVN
Spectro-Module Serial Number : OS361AC55029948
Wavelength Start : 200
Wavelength End : 1025
Wavelength Unit : Wavelength(nm)
Spectrum Unit : Reflectance(%)
-----------Spectrum Setting ------------
Integration Time : 20ms
Average : 10
Boxcar : 0
Background removal :  enabled
linearity correction :  enabled
SC :  disabled
Intensity correction :  disabled
DWT denoise :  enabled
savitzky-golay :  disabled
FFT :  disabled
Running average :  disabled
Kalman :  disabled
High pass :  disabled
---------------BEGIN--------------------
Wavelength(nm)             Reflectance(%)
200.29               0
200.75       -17.58507
201.21        9.657023
201.67        20.74308
202.13        22.06627
202.58        17.22157
203.04        7.584493
203.50       -5.079407
203.96       -14.17582
204.42       -16.15705
204.88       -13.76742
205.34       -10.16457
205.80       -10.51537
206.26       -16.34869
206.72       -24.08248
207.18       -35.61229
207.64       -54.39472
208.10       -76.66708
208.55       -101.0083
209.01       -103.3775
209.47       -63.14595
209.93        -16.1016
210.39        19.07496
210.85        40.17939
211.31        47.91038
211.77        45.52483
212.23        33.40002
212.69         5.21606
213.14       -48.14808
213.60       -143.6899
214.06       -409.4661
214.52       -982.5206
214.98       -429.0925
215.44       -117.9618
215.90       -16.86122
216.36        15.79071
216.81        18.66971
217.27       -2.847922
217.73       -115.5005
218.19        1248.594
218.65        525.4046
219.11       -1193.875
219.57       -64.27248
220.02        8.099917
220.48        22.12473
220.94         18.1117
221.40       -2.849057
221.86       -54.60974
222.32       -87.49232
222.77       -39.58704
223.23       0.9109458
223.69        21.46382
224.15        29.40433
224.61        31.08946
225.06        30.29291
225.52        27.13623
225.98        20.83455
226.44        11.87597
226.90      -0.4823058
227.36       -10.65349
227.81       -7.739339
228.27        4.520756
228.73        18.33835
229.19         27.8958
229.65        30.42345
230.10        27.21932
230.56        20.38122
231.02        11.13803
231.48        4.408303
231.93        4.104503
232.39        8.453879
232.85         13.9679
233.31        17.61868
233.77        19.49202
234.22        21.10138
234.68        22.20046
235.14        22.09183
235.60        20.95159
236.05        18.02752
236.51        14.19997
236.97        17.86133
237.43         29.9212
237.88        38.70746
238.34        39.85149
238.80         62.5981
239.26        52.99659
239.71        50.02558
240.17        39.75881
240.63        28.77122
241.08        21.97905
241.54        22.96226
242.00        31.74384
242.46        35.99788
242.91        31.96908
243.37        20.57543
243.83        4.586131
244.28       -3.875061
244.74        2.241505
245.20        15.49432
245.66        27.06306
246.11         28.6873
246.57        19.44767
247.03        2.331921
247.48       -20.57709
247.94       -46.48485
248.40       -80.16494
248.85       -153.0838
249.31       -363.3505
249.77       -512.9971
250.22       -185.7123
250.68       -54.02871
251.14       -11.36461
251.59        3.362263
252.05        8.500098
252.51         9.81778
252.96        7.733567
253.42        4.821752
253.88        4.373691
254.33        6.854822
254.79        15.12944
255.25        28.69702
255.70        42.37736
256.16        53.38741
256.62        60.93271
257.07        64.88039
257.53        66.73826
257.99         67.2957
258.44        66.75198
258.90        65.96937
259.35        64.62493
259.81        63.20422
260.27        61.70438
260.72        60.24366
261.18        59.21251
261.63        58.27739
262.09        57.47722
262.55        56.37872
263.00        54.92185
263.46        53.44496
263.91        52.03661
264.37        51.26374
264.83        51.01971
265.28        51.02066
265.74        51.07103
266.19        50.69802
266.65        49.90469
267.11        48.78621
267.56        47.44633
268.02        46.14465
268.47        44.91028
268.93        43.71365
269.38        42.51822
269.84        41.33683
270.30        40.16571
270.75        39.04985
271.21        38.01182
271.66        36.99546
272.12        36.03186
272.57        35.10497
273.03        34.29103
273.48        33.65627
273.94        33.21367
274.39        32.88566
274.85        32.58835
275.31        32.12991
275.76        31.47325
276.22        30.72004
276.67         29.9635
277.13        29.42047
277.58        29.08028
278.04        28.89711
278.49        28.73165
278.95        28.47473
279.40        28.05588
279.86        27.55923
280.31         27.0056
280.77        26.51105
281.22        26.07048
281.68        25.71393
282.13        25.37499
282.59        25.03921
283.04        24.68077
283.50        24.33768
283.95        24.07361
284.41        24.01101
284.86        24.14286
285.32        24.43262
285.77        24.73584
286.22        24.86469
286.68        24.80941
287.13        24.59572
287.59         24.4018
288.04        24.38975
288.50        24.57065
288.95         24.9936
289.41         25.5688
289.86        25.68645
290.32        25.24495
290.77         26.1802
291.22        25.41409
291.68        25.62994
292.13        25.94542
292.59        26.43572
293.04        27.08035
293.50        27.91963
293.95        28.96546
294.40        30.17475
294.86        31.54259
295.31        33.04449
295.77        34.64485
296.22         36.3106
296.68        37.96513
297.13        39.49172
297.58        40.89434
298.04        42.21303
298.49        43.55648
298.95        45.12312
299.40        46.93038
299.85         48.9203
300.31        50.97039
300.76        52.86121
301.21        54.55354
301.67        56.13984
302.12        57.69396
302.58        59.43785
303.03        61.38557
303.48        63.52027
303.94        65.75729
304.39        67.91094
304.84        69.94053
305.30        71.90196
305.75        73.83041
306.20        75.89345
306.66         78.1074
307.11        80.35106
307.57        82.52093
308.02        84.38404
308.47        85.93475
308.93        87.28723
309.38        88.52715
309.83        89.86214
310.29        91.38407
310.74        92.96754
311.19        94.54774
311.65        95.99111
312.10        97.23572
312.55        98.32975
313.00        99.30325
313.46        100.2049
313.91        101.0404
314.36        101.8095
314.82        102.5216
315.27        103.1838
315.72        103.8175
316.18        104.4348
316.63        105.0568
317.08        105.7121
317.53        106.3942
317.99        107.0787
318.44        107.7282
318.89        108.2697
319.35        108.6817
319.80        108.9937
320.25        109.2228
320.70        109.4091
321.16        109.5639
321.61        109.6945
322.06        109.8269
322.51        110.0087
322.97         110.234
323.42        110.5419
323.87        110.8603
324.32        111.0815
324.78        111.1661
325.23        111.1808
325.68        111.2059
326.13        111.4088
326.59        111.7966
327.04        112.3714
327.49        112.9867
327.94        113.4339
328.39         113.655
328.85        113.6793
329.30        113.6806
329.75        113.8107
330.20        114.1286
330.66        114.5424
331.11         115.059
331.56        115.5432
332.01        115.9545
332.46        116.3255
332.92         116.626
333.37        116.9531
333.82        117.2791
334.27        117.6077
334.72        117.9465
335.17        118.3161
335.63        118.6914
336.08        119.1213
336.53        119.6151
336.98        120.2363
337.43        120.9734
337.88        121.7938
338.34        122.5322
338.79        122.9841
339.24        123.0846
339.69        122.9195
340.14        122.6728
340.59        122.6422
341.05        122.9099
341.50        123.3975
341.95        124.0109
342.40        124.5888
342.85        125.0672
343.30        125.5025
343.75        125.8719
344.20        126.1402
344.66        126.3234
345.11        126.3937
345.56        126.4485
346.01        126.6555
346.46        127.0449
346.91        127.5436
347.36        128.0027
347.81        128.2776
348.26        128.3434
348.72        127.9367
349.17        127.7793
349.62        127.6288
350.07          127.72
350.52        127.9654
350.97        128.2424
351.42        128.3436
351.87        128.1995
352.32        127.8689
352.77        127.4514
353.22        127.0939
353.67        126.8318
354.13        126.6419
354.58        126.3898
355.03        125.9242
355.48         125.229
355.93        124.3694
356.38        123.5193
356.83        122.9329
357.28        122.6421
357.73        122.5509
358.18        122.4546
358.63        122.0277
359.08        121.2016
359.53        120.0981
359.98        118.8926
360.43        117.8502
360.88        117.0428
361.33        116.3804
361.78        115.7934
362.23        115.1753
362.68        114.4843
363.13         113.765
363.58        113.0007
364.03        112.1534
364.48        111.2255
364.93        110.2206
365.38        109.2007
365.83        108.2793
366.28        107.4815
366.73        106.7737
367.18        106.1024
367.63        105.3776
368.08        104.5752
368.53        103.7338
368.98        102.8596
369.43        101.9491
369.88        101.0073
370.33         100.028
370.78        99.06343
371.23        98.22594
371.68        97.55008
372.13         97.0097
372.58        96.54222
373.03        96.02838
373.48        95.42599
373.93        94.76727
374.38         94.0674
374.83        93.36639
375.28        92.69319
375.72        92.01643
376.17        91.39845
376.62        90.85244
377.07        90.36102
377.52        89.90279
377.97        89.42944
378.42         88.8742
378.87        88.23907
379.32        87.56518
379.77        86.88654
380.22        86.23471
380.67         85.6095
381.11        84.99781
381.56        84.40742
382.01        83.87916
382.46        83.43041
382.91        83.06368
383.36        82.72136
383.81        82.30942
384.26        81.80453
384.71        81.22048
385.15        80.62321
385.60        80.18508
386.05        79.90405
386.50        79.73431
386.95        79.55144
387.40        79.16904
387.85        78.57405
388.29         77.8077
388.74         77.1135
389.19          76.615
389.64        76.33424
390.09        76.20843
390.54        76.14605
390.98        75.98495
391.43        75.71989
391.88        75.38821
392.33        75.05692
392.78         74.7762
393.23        74.55406
393.67        74.44466
394.12         74.4516
394.57        74.13979
395.02        73.61195
395.47        73.51688
395.91        73.79264
396.36        73.72836
396.81        73.31198
397.26        72.98122
397.71         72.7329
398.15         72.3817
398.60        72.02167
399.05        71.54234
399.50        71.11057
399.95        71.12176
400.39        71.48075
400.84        71.76105
401.29        71.78417
401.74        71.25314
402.18        70.36481
402.63        69.97835
403.08        70.09874
403.53        69.91916
403.97        69.43195
404.42        69.20524
404.87        69.22988
405.32        69.22333
405.76          69.153
406.21         69.1187
406.66        69.07652
407.11        68.94986
407.55        68.75202
408.00        68.48059
408.45        68.21003
408.90        67.99377
409.34        67.86895
409.79        67.91888
410.24        68.05358
410.68        68.06186
411.13        67.91415
411.58        67.69843
412.03        67.46725
412.47         67.3111
412.92        67.23924
413.37         67.2338
413.81        67.25714
414.26        67.30807
414.71        67.35421
415.15        67.41797
415.60        67.44647
416.05        67.40691
416.49        67.29679
416.94        67.11678
417.39        66.91505
417.83        66.76028
418.28        66.66949
418.73        66.61922
419.17         66.5752
419.62         66.4884
420.07        66.35152
420.51        66.18826
420.96        66.04003
421.41        65.92527
421.85        65.82642
422.30         65.7516
422.74        65.70178
423.19        65.81583
423.64        66.06787
424.08        66.39455
424.53        66.62707
424.98        66.73034
425.42        66.69896
425.87        66.32325
426.31        65.82677
426.76        65.97795
427.21        66.64352
427.65        66.77127
428.10        66.33743
428.54         66.1738
428.99        66.30338
429.44        66.39606
429.88        66.37093
430.33        65.98821
430.77        65.41662
431.22        65.62028
431.66        66.40482
432.11        66.60742
432.56        66.27084
433.00         66.1344
433.45        66.03095
433.89        66.13461
434.34        66.67796
434.78        64.76253
435.23        65.56092
435.67        66.14288
436.12         66.8524
436.57         67.0051
437.01        66.46815
437.46        66.15213
437.90        66.76304
438.35         66.8188
438.79         66.8055
439.24        66.75832
439.68        66.79321
440.13        66.74919
440.57        66.66788
441.02        66.86599
441.46        67.22416
441.91        67.24305
442.35         66.9696
442.80        67.13334
443.24        67.63805
443.69        67.94804
444.13        67.95596
444.58        67.82948
445.02        67.62926
445.47        67.61745
445.91        67.75491
446.36        67.75273
446.80        67.59965
447.24        67.43152
447.69        67.32387
448.13        67.49773
448.58        67.71068
449.02        67.78305
449.47        67.64716
449.91        67.56575
450.36        67.56046
450.80         67.3781
451.25          67.113
451.69        67.08462
452.13        67.25946
452.58        67.26556
453.02        67.08044
453.47        66.96965
453.91        66.92667
454.36        66.81322
454.80        66.63306
455.24        66.49324
455.69        66.42746
456.13        66.29429
456.58        66.17833
457.02        66.20287
457.46        66.56425
457.91        66.34688
458.35        65.84662
458.79         65.5766
459.24        65.62342
459.68        65.62609
460.13        65.57046
460.57        65.47238
461.01        65.35431
461.46        65.17075
461.90        65.04568
462.34        64.84177
462.79        65.20318
463.23        64.86366
463.68        65.50008
464.12        65.18626
464.56        64.56934
465.01        64.66526
465.45        65.23027
465.89        65.19384
466.34        64.60896
466.78        64.18047
467.22        64.05145
467.67        63.97255
468.11        64.14179
468.55         64.1058
468.99        63.92096
469.44         63.8376
469.88        63.85029
470.32        63.74559
470.77        63.54647
471.21        63.41454
471.65        63.36977
472.10        63.37594
472.54        63.37515
472.98         63.3312
473.42        63.24558
473.87        63.06215
474.31        62.83424
474.75        62.95517
475.20        63.30851
475.64        63.29121
476.08        62.96931
476.52        62.84031
476.97        62.88561
477.41        63.05137
477.85        63.27578
478.29        62.68822
478.74        62.45733
479.18        62.34745
479.62        62.69521
480.06        62.74455
480.50        62.80205
480.95        62.70833
481.39        62.41317
481.83        63.12777
482.27        63.20318
482.72        62.52159
483.16        62.92802
483.60        63.15658
484.04        63.06279
484.48        62.77979
484.93        62.87051
485.37        62.49512
485.81        62.93387
486.25        62.45841
486.69        63.68409
487.14        63.41356
487.58         63.1817
488.02        62.64207
488.46         62.6302
488.90        62.29845
489.34        62.09404
489.79        61.92159
490.23        62.80698
490.67        63.08902
491.11        63.00753
491.55        62.76086
491.99        62.46884
492.43        62.27731
492.88        62.21862
493.32        62.22348
493.76        62.21975
494.20        62.22977
494.64        62.25452
495.08        62.00778
495.52        62.03837
495.96        62.01582
496.41        62.06404
496.85        62.13055
497.29        62.13102
497.73        62.17459
498.17        61.93439
498.61        61.86597
499.05        61.86191
499.49        61.67585
499.93        61.42223
500.37        61.48397
500.82        61.79266
501.26        62.10012
501.70        62.28795
502.14        61.90219
502.58        61.56718
503.02        61.35479
503.46        61.40855
503.90        61.50964
504.34        61.56987
504.78        61.58268
505.22        61.52135
505.66        61.39668
506.10        61.26679
506.54        61.23734
506.98        61.32335
507.42        61.45618
507.86         61.6202
508.30         61.7835
508.74        61.79803
509.18        61.77668
509.62        61.69634
510.06        61.62324
510.50        61.55607
510.94        61.41817
511.38         61.2323
511.82        61.09859
512.26        61.02745
512.70        60.96882
513.14        60.93316
513.58        60.95213
514.02        61.02054
514.46        61.12984
514.90        61.21866
515.34        61.22565
515.78        61.14437
516.22        60.96808
516.66        60.62018
517.10        60.82081
517.54        60.70613
517.98        60.92591
518.42        61.15004
518.86        61.29043
519.30        61.31137
519.74        61.21397
520.18        61.06367
520.62        61.03614
521.06        61.11007
521.50        61.03944
521.93        60.84468
522.37        60.75537
522.81        60.78429
523.25        60.81067
523.69        60.80766
524.13        60.78512
524.57        60.73734
525.01        60.66225
525.45        60.59169
525.89        60.57725
526.32        60.62623
526.76        60.72691
527.20        60.84148
527.64         60.9126
528.08        60.92378
528.52         60.8923
528.96        60.84602
529.40        60.82094
529.83        60.82516
530.27        60.87597
530.71        60.93318
531.15        60.93257
531.59         60.8646
532.03        60.75473
532.46        60.64115
532.90        60.59605
533.34        60.62847
533.78        60.71719
534.22         60.8114
534.66        60.83344
535.09        60.76016
535.53        60.63804
535.97        60.50568
536.41        60.44003
536.85        60.45926
537.28        60.53726
537.72         60.6358
538.16         60.6952
538.60        60.69601
539.04        60.65832
539.47        60.59045
539.91         60.5545
540.35        60.54572
540.79        60.55274
541.22        60.55772
541.66        60.54901
542.10        60.51731
542.54        60.46623
542.97        60.40726
543.41        60.38846
543.85        60.41207
544.29        60.47713
544.72         60.5363
545.16        60.57089
545.60        60.56643
546.04        60.46147
546.47        60.33241
546.91        60.46475
547.35        60.78859
547.79        60.91043
548.22        60.79557
548.66        60.71692
549.10        60.70066
549.53        60.64518
549.97        60.56974
550.41        60.50396
550.84        60.46479
551.28        60.44663
551.72        60.44873
552.15        60.49119
552.59        60.59305
553.03        60.44211
553.46        60.77406
553.90        60.48317
554.34        60.61935
554.77        60.49411
555.21        60.42911
555.65        60.45171
556.08        60.55364
556.52        60.85001
556.96        61.01638
557.39        61.08746
557.83        60.98692
558.27        60.74966
558.70        60.47279
559.14        60.31498
559.57        60.30462
560.01        60.46675
560.45        60.67268
560.88         60.6548
561.32         60.4738
561.75        60.26382
562.19        60.14428
562.63        60.26568
563.06        60.53083
563.50        60.52314
563.93        60.24599
564.37        60.09302
564.80        60.08625
565.24        60.13925
565.68        60.22118
566.11        60.28969
566.55        60.35688
566.98        60.42769
567.42        60.50486
567.85        60.60515
568.29        60.73613
568.72        60.66428
569.16        60.45243
569.60        60.62842
570.03        60.54646
570.47         60.6784
570.90        60.77108
571.34          60.815
571.77        60.89307
572.21        60.84529
572.64        60.76917
573.08        60.52756
573.51        61.01587
573.95        61.35918
574.38        61.07112
574.82        61.74388
575.25        61.33038
575.69        61.10487
576.12        61.04348
576.56         61.1342
576.99        61.25145
577.42         61.1712
577.86        60.97168
578.29        61.60946
578.73        61.90796
579.16        61.34329
579.60        61.05167
580.03        61.16148
580.47        61.35189
580.90        61.19502
581.33        61.42656
581.77        61.41228
582.20          61.598
582.64        61.77869
583.07        61.47091
583.51         60.9796
583.94        61.04707
584.37        60.89029
584.81        60.77501
585.24        60.78835
585.68        61.31398
586.11        60.88105
586.54        61.08998
586.98        60.71278
587.41        60.88381
587.85        61.00498
588.28        61.32453
588.71        61.14907
589.15        61.35868
589.58        60.77147
590.01        60.66377
590.45        60.65198
590.88        60.79049
591.31        60.49957
591.75        60.42164
592.18        60.53559
592.61        60.96124
593.05        61.27066
593.48        61.07526
593.91        61.27011
594.35        61.19192
594.78        61.01947
595.21        60.79816
595.65        60.77875
596.08        60.96962
596.51        61.03605
596.94        60.91704
597.38        60.84675
597.81        60.82333
598.24         61.0442
598.68        60.72248
599.11        60.89264
599.54        60.93062
599.97        60.94831
600.41        61.03041
600.84        61.00335
601.27        60.98971
601.70        60.99906
602.14        60.46766
602.57        60.44474
603.00        60.72113
603.43        60.82594
603.87        61.12387
604.30        60.94369
604.73        60.86383
605.16        60.85847
605.60        60.86387
606.03        60.96788
606.46        60.97906
606.89        61.21076
607.32        60.74799
607.76        60.78171
608.19        61.17141
608.62        60.82038
609.05        61.53815
609.48        61.02204
609.92        61.10516
610.35        60.80387
610.78        61.06197
611.21        60.53705
611.64        60.87509
612.07        60.79837
612.50         60.9833
612.94        60.97562
613.37        60.84578
613.80        60.92238
614.23        60.69561
614.66        60.55949
615.09        60.40762
615.52         60.3581
615.96        60.38752
616.39        60.41645
616.82        60.44965
617.25        60.29499
617.68        60.43977
618.11        60.33989
618.54         60.3257
618.97        60.24734
619.40        60.13833
619.84        60.15446
620.27        59.96877
620.70        59.97625
621.13        60.06719
621.56        60.22115
621.99         60.4085
622.42        60.47173
622.85        60.42939
623.28        60.31158
623.71        60.89319
624.14        60.49249
624.57        60.54066
625.00        60.60706
625.43        60.35862
625.86        60.48959
626.29        60.76443
626.72        60.45333
627.15         60.5919
627.58        60.39932
628.01        60.23726
628.44        60.28848
628.87        59.98526
629.30        60.32955
629.73        60.32377
630.16        60.20123
630.59        60.22271
631.02        60.45868
631.45        60.21044
631.88        60.24178
632.31        60.32833
632.74        60.12799
633.17        60.23829
633.60        60.15222
634.03        60.06034
634.46        60.00021
634.89        59.90816
635.32        59.90643
635.75        59.96493
636.18        60.07924
636.61        60.19918
637.04        60.24461
637.47        60.19691
637.89        60.09357
638.32        59.97828
638.75        59.91751
639.18         59.9271
639.61        60.10652
640.04        60.19132
640.47        60.28334
640.90        60.29511
641.33        60.25175
641.76        60.18473
642.18        60.15588
642.61        60.16857
643.04        60.20969
643.47        60.24737
643.90        60.23529
644.33        60.16567
644.76        60.04806
645.18        59.92485
645.61        59.88165
646.04        59.92091
646.47        59.96249
646.90         59.9898
647.33        60.02843
647.75        60.05533
648.18         60.0679
648.61        60.08739
649.04        60.05934
649.47        59.96902
649.89        60.22151
650.32        60.13407
650.75        60.10383
651.18        59.96667
651.61        59.90852
652.03        59.95362
652.46        59.99377
652.89        60.03737
653.32        60.14017
653.74        60.27184
654.17        60.28108
654.60         60.0382
655.03        59.97615
655.46        59.85184
655.88        60.20782
656.31        61.07153
656.74        64.38481
657.16        63.15308
657.59        61.50322
658.02        60.39495
658.45        60.25526
658.87        60.42069
659.30        60.26618
659.73        59.60631
660.15        59.38661
660.58        59.82486
661.01        60.26001
661.44        60.55882
661.86        60.50208
662.29        60.14119
662.72        59.90351
663.14        59.87492
663.57        59.86557
664.00        59.85297
664.42        59.84742
664.85        59.85269
665.27        59.79565
665.70        59.88028
666.13         59.9379
666.55        60.02685
666.98        60.14164
667.41         60.2415
667.83         60.2671
668.26        60.21354
668.69        60.04075
669.11        59.81025
669.54        59.80853
669.96         60.1019
670.39        59.88852
670.82        60.50311
671.24        60.42181
671.67        60.11548
672.09        60.02519
672.52        60.18505
672.94        60.18326
673.37        60.03131
673.80        60.02056
674.22        60.13642
674.65        60.14974
675.07        60.06512
675.50        59.95831
675.92        59.87571
676.35        59.85295
676.77        59.89892
677.20        60.01502
677.62        60.19831
678.05        60.28838
678.47        60.23667
678.90        60.48831
679.32        60.58049
679.75         60.2431
680.17          60.526
680.60        60.48149
681.02        60.44997
681.45        60.39245
681.87        60.32951
682.30        60.21963
682.72        60.10941
683.15        60.13007
683.57        60.23938
684.00        60.38775
684.42        60.21439
684.85         60.2321
685.27        60.32467
685.70        60.38577
686.12        60.38675
686.54        60.37865
686.97        60.35707
687.39        60.33406
687.82        60.33193
688.24        60.35998
688.66        60.39975
689.09        60.68418
689.51         60.7194
689.94         60.8425
690.36         60.8872
690.78        60.83601
691.21        60.71581
691.63        60.56139
692.06        60.44166
692.48        60.45699
692.90        60.57659
693.33        60.63552
693.75        60.62691
694.17        60.59257
694.60        60.53658
695.02        60.65801
695.44        60.68204
695.87        60.63192
696.29        60.48671
696.71        60.45802
697.14        60.53684
697.56        60.65312
697.98         60.7866
698.41        60.68675
698.83        60.83908
699.25         60.8218
699.68        60.78076
700.10         60.7266
700.52        60.66764
700.94         60.5994
701.37        60.51457
701.79        60.45773
702.21        60.42047
702.64        60.40794
703.06        60.42331
703.48        60.47495
703.90        60.56152
704.33        60.67016
704.75        60.78435
705.17        60.85858
705.59        60.88214
706.01        60.86374
706.44        60.82485
706.86        60.82174
707.28        60.85695
707.70        60.91829
708.12        60.99432
708.55        61.05648
708.97        61.08888
709.39        61.10805
709.81        61.11633
710.23        61.12051
710.66        61.12527
711.08        61.13842
711.50        61.14018
711.92         61.1177
712.34        61.07164
712.76        61.00668
713.19        60.94052
713.61        60.94656
714.03          61.013
714.45        61.13712
714.87        61.28288
715.29        61.35257
715.71        61.32232
716.13        61.37177
716.56        61.23374
716.98        61.23967
717.40        61.30543
717.82        61.41735
718.24        61.52947
718.66        61.57297
719.08        61.53574
719.50        61.44003
719.92        61.33693
720.34        61.30307
720.76        61.35723
721.19        61.46861
721.61        61.60875
722.03        61.70219
722.45        61.72892
722.87         61.7095
723.29        61.67912
723.71        61.69561
724.13         61.7723
724.55        61.88445
724.97        62.00075
725.39        62.07297
725.81         62.0871
726.23        62.06156
726.65          62.012
727.07        61.96613
727.49        61.93769
727.91        61.90765
728.33        61.88462
728.75        61.91886
729.17        61.99572
729.59        62.03158
730.01        62.03604
730.43        62.09089
730.85        62.19365
731.27        62.28239
731.69          62.345
732.10        62.33387
732.52        62.43372
732.94        62.26323
733.36        61.95894
733.78        61.82036
734.20        61.88538
734.62        61.99078
735.04        62.09388
735.46        62.18981
735.88        62.26625
736.30        62.34057
736.72        62.38083
737.13        62.40346
737.55        62.38526
737.97        62.17205
738.39        61.89132
738.81        62.14569
739.23        62.79357
739.65        62.84627
740.06         62.3131
740.48        62.12846
740.90        62.28244
741.32        62.26856
741.74        62.10015
742.16        62.07364
742.57        62.21955
742.99        62.43552
743.41        62.66323
743.83        62.79273
744.25        62.79536
744.67        62.70184
745.08        62.60179
745.50         62.5968
745.92        62.72974
746.34        62.97108
746.75        63.21725
747.17        63.29846
747.59         63.1805
748.01        62.88237
748.42        62.55306
748.84        62.45338
749.26        62.60014
749.68        62.88214
750.09        63.15262
750.51        63.08564
750.93        62.75323
751.35        62.66573
751.76        62.84993
752.18        62.92119
752.60        62.87888
753.01        62.99232
753.43        63.17287
753.85        63.18479
754.27        63.00391
754.68        62.70864
755.10        62.41051
755.52         62.2588
755.93        62.29917
756.35        62.48543
756.77        62.72805
757.18        62.94133
757.60        63.08156
758.02        63.05476
758.43        62.91676
758.85        63.15308
759.26        63.15847
759.68        63.40908
760.10        62.94862
760.51        62.50812
760.93        62.77531
761.34        62.56825
761.76        63.28859
762.18          63.462
762.59        63.37409
763.01        63.40129
763.42        62.79641
763.84        62.85423
764.26        62.96382
764.67        63.29979
765.09        63.63645
765.50        63.75571
765.92        63.69125
766.33        63.70099
766.75        63.77428
767.16        63.69335
767.58        63.43855
768.00        63.45086
768.41        63.71797
768.83        63.57172
769.24        63.08731
769.66        63.43449
770.07        63.59953
770.49        63.79375
770.90        63.68468
771.32        63.41632
771.73        63.12635
772.15         63.0512
772.56        63.25074
772.97        63.59414
773.39        63.92314
773.80        64.09836
774.22         64.0325
774.63        63.79308
775.05        63.48064
775.46        63.30842
775.88        63.31312
776.29        63.45931
776.70        63.64408
777.12        63.71073
777.53        63.63674
777.95        63.47219
778.36        63.29953
778.77          63.238
779.19        63.32306
779.60        63.51748
780.02        63.75941
780.43        64.00034
780.84        64.21369
781.26        64.31426
781.67        64.35851
782.09        64.56668
782.50        64.84354
782.91        64.78468
783.33        64.41705
783.74        64.23167
784.15        64.24537
784.57        64.22405
784.98        64.16421
785.39        64.14473
785.81        64.16398
786.22        64.19716
786.63        64.26022
787.04        64.37865
787.46        64.55675
787.87        64.75459
788.28         64.9323
788.70        65.02192
789.11        64.99052
789.52        64.87011
789.93        64.71885
790.35        64.62183
790.76         64.6281
791.17        64.72788
791.58        64.87143
792.00        64.99561
792.41        65.11452
792.82        65.10986
793.23        65.06836
793.65        65.40699
794.06        66.02499
794.47        66.22527
794.88        65.99448
795.29        65.97378
795.71        65.96246
796.12        65.80805
796.53        65.49127
796.94        65.36063
797.35        65.42055
797.76        65.43073
798.18        65.36763
798.59        65.33881
799.00        65.33208
799.41        65.27788
799.82        65.18842
800.23        65.13046
800.64        65.11585
801.06        65.10312
801.47        65.13391
801.88        65.20153
802.29        65.30573
802.70        65.45177
803.11        65.61206
803.52        65.73535
803.93        65.80186
804.34        65.81001
804.75        65.80649
805.17        65.83926
805.58        65.94013
805.99        66.14812
806.40        66.37393
806.81        66.29586
807.22         65.9682
807.63        65.81922
808.04        65.89108
808.45         65.9087
808.86        65.87338
809.27        65.97615
809.68        66.17544
810.09        66.28471
810.50        66.27399
810.91        66.20335
811.32        66.09879
811.73        66.00321
812.14        65.93816
812.55         65.8814
812.96        65.85719
813.37        65.91164
813.78        66.04244
814.19        66.23314
814.60        66.41666
815.01        66.48834
815.42        66.42712
815.83        66.25906
816.24        66.04831
816.65        65.92101
817.05        65.92994
817.46        66.01908
817.87        66.16603
818.28        66.29116
818.69        66.37398
819.10        66.43969
819.51        66.51656
819.92        66.64896
820.33        66.83581
820.74         67.0359
821.14        67.21005
821.55        67.32843
821.96        67.37002
822.37        67.35599
822.78        67.27508
823.19        67.11152
823.60        66.87637
824.00        66.58784
824.41        66.29989
824.82        66.16619
825.23        66.21753
825.64        66.43182
826.04        66.69517
826.45        66.77907
826.86        66.64787
827.27        66.35729
827.68         66.0534
828.08        66.01979
828.49        66.25533
828.90        66.71497
829.31         67.2506
829.72        67.53594
830.12        67.49832
830.53        67.57214
830.94        67.15211
831.35         66.9101
831.75        66.71732
832.16        66.53355
832.57        66.40794
832.97        66.41888
833.38         66.5614
833.79        66.80383
834.20        67.07986
834.60        67.28204
835.01        67.37471
835.42        67.38392
835.82        67.31152
836.23        67.12508
836.64        66.86032
837.04        66.54533
837.45        66.24603
837.86        66.12399
838.26        66.22384
838.67        66.49689
839.08        66.85751
839.48         67.1431
839.89        67.29549
840.29         67.3502
840.70           67.37
841.11        67.46511
841.51        67.67245
841.92        67.90726
842.33        68.11481
842.73        68.21031
843.14        68.12901
843.54        67.94805
843.95        67.70857
844.35        67.49468
844.76         67.3365
845.17        67.22293
845.57        67.18797
845.98        67.24831
846.38        67.42311
846.79        67.67726
847.19        67.97309
847.60        68.16702
848.00        68.25836
848.41        68.24214
848.81        68.20364
849.22        68.22691
849.62        68.37185
850.03        68.55917
850.43        68.77645
850.84        68.90226
851.24        68.95818
851.65        68.91925
852.05        68.84673
852.46        68.74586
852.86        68.63962
853.27        68.56894
853.67        68.47095
854.07        68.39686
854.48         68.3172
854.88          68.245
855.29        68.16241
855.69        68.20118
856.10        68.28364
856.50        68.46701
856.90        68.59564
857.31        68.46219
857.71        68.08406
858.12        67.46738
858.52          66.801
858.92         66.3392
859.33        66.15434
859.73        66.24534
860.13        66.46584
860.54         66.5592
860.94        66.51644
861.34        66.36278
861.75         66.2112
862.15        66.32846
862.55        66.71451
862.96        67.24281
863.36        67.74636
863.76        67.91687
864.17        67.67772
864.57        67.16541
864.97        66.50113
865.38        65.87495
865.78         65.4235
866.18        65.09615
866.58        64.97823
866.99        65.17865
867.39        65.70542
867.79        66.47836
868.19        67.27225
868.60         67.6841
869.00        67.72131
869.40        67.65238
869.80        67.49938
870.21        67.14708
870.61        66.71476
871.01        66.29256
871.41         65.9785
871.81        65.82565
872.22        65.85655
872.62        66.07586
873.02        66.37653
873.42        66.70594
873.82        66.82684
874.22        66.31339
874.63        65.51681
875.03         65.1405
875.43        65.31111
875.83        66.64581
876.23        66.43588
876.63        66.03355
877.03        65.14243
877.44        63.25256
877.84        165.3939
878.24        64.31419
878.64        65.11369
879.04        66.57944
879.44        67.06915
879.84        63.94384
880.24         68.6029
880.64         68.7354
881.04        66.43442
881.44        64.67313
881.84         64.0005
882.24        64.52444
882.65        65.63486
883.05        65.96909
883.45        65.25623
883.85         64.3354
884.25        63.63405
884.65        63.44258
885.05        63.86622
885.45         64.7019
885.85        65.62441
886.25        66.20263
886.65        66.32359
887.05        66.13293
887.45        65.73518
887.85        65.30653
888.25        64.94415
888.65        64.59504
889.04        64.35748
889.44        64.40157
889.84        64.73032
890.24        65.29222
890.64         65.8953
891.04        66.24685
891.44        66.28321
891.84        66.07471
892.24        65.74461
892.64        65.52216
893.04         65.4808
893.44        65.55277
893.83        65.68108
894.23        65.74511
894.63        65.73556
895.03         65.7259
895.43        65.74361
895.83        65.81855
896.23        65.95837
896.63        66.10831
897.02        66.29919
897.42        66.65491
897.82        67.13432
898.22         67.6944
898.62        68.14262
899.01        68.17626
899.41        67.72778
899.81        66.92532
900.21        66.01321
900.61        65.39574
901.00        65.18826
901.40        65.35114
901.80        65.75283
902.20        66.04596
902.59        66.11863
902.99        66.29353
903.39        66.71587
903.79        66.05666
904.18        66.80295
904.58         66.9158
904.98        66.97378
905.38        66.69421
905.77        66.06445
906.17        65.21089
906.57        64.36829
906.96        64.00867
907.36        64.23983
907.76        64.95156
908.15        65.90362
908.55        66.53476
908.95        66.72445
909.34        66.54812
909.74        66.26779
910.14        66.27589
910.53        66.65594
910.93         67.2598
911.33        67.78138
911.72        67.74863
912.12        67.10115
912.52        66.03957
912.91          64.919
913.31        64.36427
913.70        64.49632
914.10         65.1195
914.49        65.97105
914.89        66.51395
915.29        66.60343
915.68        66.38836
916.08        66.03362
916.47        65.74987
916.87        65.65488
917.26        65.66731
917.66        65.77628
918.05        66.00015
918.45        66.30038
918.84        66.68371
919.24        67.10508
919.64        67.53687
920.03        67.94395
920.42         68.2857
920.82         68.4764
921.21        68.41039
921.61        68.11529
922.00        67.71445
922.40        67.37886
922.79        67.25532
923.19        67.05164
923.58        67.51339
923.98        68.96777
924.37        69.14034
924.77        66.75482
925.16        74.27356
925.55        69.00906
925.95        69.39963
926.34        69.04422
926.74        67.85744
927.13         65.9804
927.52        64.83024
927.92         64.9986
928.31        65.76801
928.70        66.82397
929.10        67.63815
929.49        68.08075
929.89        68.31818
930.28        68.34129
930.67        68.02598
931.07          67.428
931.46        66.48296
931.85        65.51305
932.24        65.50694
932.64        66.59982
933.03        67.94236
933.42         68.7596
933.82        71.07265
934.21        69.74535
934.60        68.80083
934.99        67.80157
935.39        67.52612
935.78        67.98688
936.17        69.59293
936.56        75.31023
936.96        68.57236
937.35        72.23813
937.74        69.37337
938.13        67.48856
938.53        66.00151
938.92        65.51982
939.31        66.54309
939.70        67.99262
940.09        68.84183
940.49        68.84049
940.88        68.34509
941.27        67.65943
941.66        67.34142
942.05        67.58752
942.44        68.16106
942.84         68.7163
943.23        68.86713
943.62        68.51848
944.01        67.80389
944.40        67.08166
944.79        66.94273
945.18        67.51178
945.57        68.58012
945.97        69.64978
946.36        70.05952
946.75        69.60874
947.14        68.51631
947.53        67.21622
947.92        66.46306
948.31        66.49667
948.70        67.09093
949.09        67.90938
949.48        68.43568
949.87        68.52206
950.26        68.32813
950.65        68.04656
951.04        67.97585
951.43        68.19705
951.82        68.58887
952.21        68.97179
952.60        69.07351
952.99        68.82278
953.38        68.32554
953.77         67.7739
954.16        67.41985
954.55        67.32851
954.94        67.45415
955.33        67.63743
955.72        67.60152
956.11        67.26946
956.50         66.7027
956.89        66.16819
957.28        66.07662
957.66        66.53608
958.05        67.36885
958.44        68.18184
958.83        68.37616
959.22        67.82954
959.61        66.65565
960.00        65.37194
960.39        64.96935
960.78        65.69522
961.16        67.23518
961.55        68.76694
961.94        69.28597
962.33        68.62023
962.72        67.04343
963.11        65.18575
963.49        64.34969
963.88        64.96075
964.27        66.55312
964.66        68.38372
965.04        69.45059
965.43        69.47703
965.82        68.83335
966.21        67.87769
966.60        67.22906
966.98          67.119
967.37        67.31462
967.76        67.68173
968.15         68.0247
968.53        68.26896
968.92        68.48671
969.31        68.63593
969.69        68.60237
970.08        68.34901
970.47        67.88371
970.86         67.3679
971.24        67.11375
971.63        67.18355
972.02        67.50773
972.40         67.8996
972.79        67.98128
973.17         67.7315
973.56        67.25587
973.95        66.76949
974.33        66.65016
974.72        66.98572
975.11        67.61927
975.49        68.42078
975.88        69.11006
976.26        69.64846
976.65        70.03712
977.04        70.24888
977.42        70.20226
977.81        69.86951
978.19        69.23273
978.58        68.66438
978.96        68.75934
979.35        69.58125
979.74        70.85615
980.12        72.14027
980.51        72.70448
980.89         72.5655
981.28        71.84566
981.66        70.76502
982.05         69.9466
982.43        69.66531
982.82        69.81358
983.20        70.24231
983.59        70.66071
983.97        71.00567
984.35        71.30553
984.74        71.55045
985.12         71.7943
985.51        71.98116
985.89        72.13417
986.28        72.10989
986.66        71.76278
987.04        71.14839
987.43         70.2541
987.81        69.12291
988.20        69.30994
988.58        71.11979
988.96        71.70438
989.35        70.23553
989.73        76.29853
990.12        73.33269
990.50        73.95028
990.88        73.77413
991.27        73.36587
991.65        72.69405
992.03        71.91219
992.42          71.258
992.80        70.62888
993.18        70.08023
993.56        69.70244
993.95        69.56244
994.33        69.68204
994.71        70.05047
995.10        70.62897
995.48        71.26556
995.86         71.7037
996.24         71.8682
996.63        71.72409
997.01        71.53382
997.39        71.53725
997.77        71.76913
998.15        72.14059
998.54        72.50156
998.92        72.50042
999.30        72.11084
999.68        71.47967
1000.06        70.77801
1000.45        70.30943
1000.83         70.3378
1001.21        70.74776
1001.59        71.53564
1001.97         72.6867
1002.35        74.02509
1002.73        75.37739
1003.12        76.54226
1003.50        77.33698
1003.88        77.73434
1004.26        77.84595
1004.64        77.55792
1005.02        76.70154
1005.40        75.31599
1005.78          73.449
1006.16        71.71404
1006.54        71.07148
1006.92        71.71074
1007.30        73.43084
1007.69          75.291
1008.07        75.97044
1008.45        75.16377
1008.83        73.16882
1009.21        70.90263
1009.59        70.32477
1009.97        71.87936
1010.35        74.57491
1010.73        77.24914
1011.11        78.93269
1011.49        79.61331
1011.86        79.37513
1012.24        78.19559
1012.62        79.15567
1013.00        79.72119
1013.38        79.51662
1013.76        77.18282
1014.14        80.87518
1014.52        86.57495
1014.90        78.88496
1015.28        79.91897
1015.66        81.38115
1016.04        78.20036
1016.41        79.03075
1016.79        78.76202
1017.17         78.6485
1017.55        78.07835
1017.93        77.34237
1018.31         76.9309
1018.69        77.11425
1019.06        78.01254
1019.44        79.42455
1019.82        80.70464
1020.20         80.9833
1020.58        80.07281
1020.95        77.86184
1021.33         75.0838
1021.71        73.96397
1022.09        75.49406
1022.46         78.6006
1022.84        81.44086
1023.22        82.62518
1023.60        82.25293
1023.97        80.80682
1024.35        79.04565
1024.73        78.50601
