SpectraSmart Spectrum 2.9.0.0
--------- Device Information -----------
Spectrum Name :  反射率_0
Saving Time :  2024/04/21 00:19:01
Spectro-Module Model Name : SE2030-DUVN
Spectro-Module Serial Number : OS361AC55029948
Wavelength Start : 200
Wavelength End : 1025
Wavelength Unit : Wavelength(nm)
Spectrum Unit : Reflectance(%)
-----------Spectrum Setting ------------
Integration Time : 20ms
Average : 10
Boxcar : 0
Background removal :  enabled
linearity correction :  enabled
SC :  disabled
Intensity correction :  disabled
DWT denoise :  enabled
savitzky-golay :  disabled
FFT :  disabled
Running average :  disabled
Kalman :  disabled
High pass :  disabled
---------------BEGIN--------------------
Wavelength(nm)             Reflectance(%)
200.29               0
200.75       -26.72981
201.21       -1.630447
201.67        11.40259
202.13        17.58853
202.58        20.28442
203.04        21.89834
203.50        21.31796
203.96         15.6635
204.42        5.064203
204.88       -9.243782
205.34       -22.25169
205.80       -28.16852
206.26       -25.27471
206.72       -10.48491
207.18        10.96175
207.64        21.89298
208.10        14.77098
208.55       -5.619991
209.01       -21.41757
209.47       -9.215833
209.93        14.12987
210.39        33.10075
210.85        45.74174
211.31        52.85491
211.77        56.85594
212.23         60.4887
212.69        63.12405
213.14        59.14143
213.60        32.09109
214.06       -87.20956
214.52       -442.0843
214.98       -216.5954
215.44       -38.21115
215.90        25.69041
216.36        47.26301
216.81          48.529
217.27        31.85787
217.73       -52.13109
218.19        973.9943
218.65        448.0035
219.11       -1016.487
219.57       -46.71983
220.02        15.94341
220.48        27.15205
220.94        21.37697
221.40       -1.911667
221.86       -57.03905
222.32        -88.6675
222.77        -34.3374
223.23        10.34559
223.69        32.44029
224.15        40.14945
224.61        40.60434
225.06        37.79714
225.52        32.83379
225.98        26.79855
226.44        20.70182
226.90        13.31342
227.36        8.594151
227.81        13.41429
228.27        24.00834
228.73        34.96568
229.19        42.11547
229.65        43.42606
230.10        39.83774
230.56        32.74208
231.02        23.26334
231.48        16.43599
231.93        16.11022
232.39        20.60689
232.85        26.00597
233.31        28.80899
233.77        29.09147
234.22        28.38496
234.68        27.11528
235.14        26.00051
235.60        25.69864
236.05        25.22793
236.51        24.57961
236.97        29.41126
237.43        39.76686
237.88        46.13729
238.34        45.08002
238.80        65.03169
239.26        56.67555
239.71        56.28231
240.17        50.72017
240.63        43.92322
241.08        38.11189
241.54        35.36525
242.00        37.95406
242.46        39.94526
242.91        40.16483
243.37        40.66401
243.83        41.80083
244.28         43.0687
244.74        43.94698
245.20        42.86856
245.66        41.30075
246.11        41.82085
246.57        44.39776
247.03        48.75291
247.48         52.3173
247.94         50.3658
248.40        37.33567
248.85          -5.141
249.31       -158.0973
249.77       -340.5959
250.22       -126.1023
250.68       -19.16217
251.14        19.29896
251.59        32.72663
252.05         36.6935
252.51          36.803
252.96         33.9918
253.42        31.91404
253.88        32.99643
254.33        35.38793
254.79         39.4136
255.25        43.93349
255.70        47.66434
256.16         50.6543
256.62        52.83137
257.07        54.19746
257.53        55.27458
257.99        55.97686
258.44        55.98247
258.90        55.64155
259.35        54.64185
259.81        53.53426
260.27        52.38186
260.72        51.34826
261.18          50.726
261.63          50.154
262.09         49.6295
262.55        48.77849
263.00        47.54887
263.46        46.24813
263.91        44.94771
264.37         44.1281
264.83        43.72127
265.28        43.52507
265.74        43.38805
266.19        42.92976
266.65        42.16046
267.11        41.15129
267.56         40.0315
268.02        39.08461
268.47        38.32574
268.93        37.70083
269.38        37.06721
269.84        36.27073
270.30        35.27089
270.75         34.1431
271.21        33.02543
271.66        32.05635
272.12        31.30375
272.57        30.70099
273.03        30.19715
273.48        29.67951
273.94        29.13766
274.39        28.57591
274.85        28.05179
275.31        27.58132
275.76        27.16386
276.22        26.81765
276.67        26.50125
277.13         26.2343
277.58        25.97388
278.04        25.72977
278.49        25.47656
278.95        25.25536
279.40        25.01813
279.86         24.7826
280.31        24.46709
280.77        24.03315
281.22        23.46586
281.68        22.86818
282.13        22.28022
282.59        21.82851
283.04         21.5181
283.50        21.32461
283.95        21.26009
284.41        21.36416
284.86        21.60208
285.32        21.96088
285.77        22.28948
286.22        22.38526
286.68        22.24251
287.13        21.88605
287.59        21.53628
288.04         21.4276
288.50        21.58009
288.95        22.03721
289.41        22.64964
289.86        22.70196
290.32        22.07388
290.77        22.81533
291.22        21.77515
291.68        21.85818
292.13        22.15213
292.59        22.68529
293.04        23.36322
293.50        24.11366
293.95        24.92134
294.40        25.78233
294.86        26.73261
295.31        27.81466
295.77        29.02398
296.22        30.31765
296.68        31.63084
297.13        32.86454
297.58         34.0213
298.04          35.145
298.49        36.32039
298.95        37.69955
299.40        39.29187
299.85        41.04586
300.31         42.8662
300.76        44.58603
301.21        46.16975
301.67        47.68676
302.12         49.1755
302.58         50.7928
303.03        52.54657
303.48        54.43704
303.94        56.41963
304.39        58.37746
304.84        60.28553
305.30        62.18192
305.75        64.07145
306.20         66.0619
306.66        68.15602
307.11        70.25788
307.57        72.29888
308.02        74.11532
308.47        75.69952
308.93        77.13518
309.38        78.45943
309.83        79.77764
310.29        81.19719
310.74        82.60963
311.19        83.99496
311.65         85.2747
312.10        86.41469
312.55        87.44658
313.00        88.41794
313.46         89.4048
313.91        90.40226
314.36         91.3872
314.82        92.30938
315.27        93.08637
315.72        93.71578
316.18        94.23733
316.63         94.7005
317.08        95.18755
317.53        95.71872
317.99        96.25735
318.44        96.79163
318.89        97.28793
319.35        97.72713
319.80        98.13194
320.25         98.4669
320.70          98.678
321.16        98.75954
321.61        98.74801
322.06        98.72408
322.51        98.82775
322.97        99.07787
323.42        99.47174
323.87        99.91385
324.32        100.2554
324.78         100.435
325.23        100.5311
325.68        100.5897
326.13        100.7195
326.59        100.9263
327.04        101.2175
327.49        101.5332
327.94         101.812
328.39        102.0326
328.85        102.1949
329.30        102.3642
329.75        102.5171
330.20         102.664
330.66        102.7676
331.11        102.9256
331.56        103.1736
332.01         103.521
332.46        103.9505
332.92        104.3608
333.37        104.7122
333.82        104.9396
334.27        105.0874
334.72         105.213
335.17        105.4168
335.63        105.7035
336.08        106.0877
336.53         106.551
336.98        107.1102
337.43        107.7395
337.88         108.425
338.34        109.0308
338.79        109.3873
339.24        109.4448
339.69        109.2769
340.14        109.0434
340.59         109.003
341.05        109.2343
341.50        109.6783
341.95        110.2624
342.40        110.8606
342.85        111.4138
343.30        111.9491
343.75        112.4413
344.20        112.8551
344.66        113.1894
345.11        113.4127
345.56        113.5581
346.01        113.6928
346.46        113.8393
346.91        113.9793
347.36        114.0752
347.81        114.1086
348.26        114.0843
348.72         113.868
349.17        113.7933
349.62        113.7243
350.07        113.7651
350.52         113.874
350.97        113.9798
351.42        113.9623
351.87        113.7882
352.32        113.4995
352.77        113.1517
353.22        112.8281
353.67        112.5528
354.13        112.3125
354.58        112.0589
355.03        111.7718
355.48        111.4396
355.93        111.0714
356.38         110.677
356.83        110.2655
357.28        109.8301
357.73        109.3577
358.18        108.8234
358.63        108.1977
359.08        107.4872
359.53        106.7175
359.98        105.9268
360.43        105.1636
360.88        104.4422
361.33        103.7541
361.78        103.0917
362.23        102.4403
362.68        101.7962
363.13        101.1661
363.58        100.5414
364.03        99.90675
364.48        99.25446
364.93        98.57745
365.38        97.88887
365.83        97.21699
366.28         96.5647
366.73        95.92209
367.18        95.26351
367.63        94.54779
368.08        93.77685
368.53        92.98217
368.98        92.18726
369.43        91.41708
369.88        90.67538
370.33        89.94185
370.78        89.24149
371.23        88.63013
371.68        88.11797
372.13        87.69399
372.58        87.27911
373.03        86.73699
373.48        86.03666
373.93         85.2153
374.38        84.36916
374.83        83.66975
375.28        83.16718
375.72         82.7956
376.17         82.4981
376.62        82.11896
377.07        81.61349
377.52         81.0185
377.97        80.38967
378.42        79.83519
378.87        79.39666
379.32        79.04096
379.77        78.72001
380.22        78.35709
380.67        77.92044
381.11        77.42986
381.56        76.90489
382.01        76.39969
382.46        75.94333
382.91        75.53313
383.36        75.13363
383.81        74.68704
384.26        74.18461
384.71        73.64583
385.15        73.12399
385.60        72.76191
386.05         72.5497
386.50        72.43961
386.95        72.33118
387.40        72.07378
387.85        71.64903
388.29        71.08274
388.74        70.54677
389.19        70.09156
389.64        69.73222
390.09        69.42563
390.54        69.16754
390.98         68.9433
391.43         68.7775
391.88        68.66117
392.33        68.54603
392.78        68.35783
393.23          68.092
393.67        67.73835
394.12        67.42315
394.57        67.18101
395.02         67.0116
395.47        66.85927
395.91        66.72169
396.36        66.58006
396.81        66.45257
397.26        66.38789
397.71        66.29679
398.15        66.06395
398.60        65.76455
399.05        65.20583
399.50        64.64481
399.95        64.77703
400.39        65.45293
400.84        65.82141
401.29        65.70061
401.74        65.18888
402.18        64.46688
402.63        64.07513
403.08        64.04554
403.53         63.8119
403.97        63.39535
404.42        63.28117
404.87        63.39457
405.32         63.4052
405.76        63.26896
406.21        63.00696
406.66        62.71609
407.11        62.71232
407.55        62.93417
408.00        62.95576
408.45        62.73362
408.90        62.29965
409.34        61.82238
409.79        61.81766
410.24        62.17627
410.68        62.24021
411.13        61.97482
411.58        61.77625
412.03        61.70151
412.47        61.66117
412.92        61.64705
413.37         61.6988
413.81         61.7603
414.26        61.79432
414.71         61.7711
415.15        61.70945
415.60        61.61111
416.05        61.54053
416.49        61.51442
416.94        61.50387
417.39         61.4783
417.83        61.38688
418.28         61.2219
418.73        60.99635
419.17        60.75491
419.62        60.58317
420.07         60.5111
420.51        60.51289
420.96        60.55788
421.41        60.60533
421.85        60.62525
422.30        60.51543
422.74        60.32474
423.19        60.58319
423.64        61.11806
424.08        61.05557
424.53        60.43512
424.98        60.24473
425.42         60.5707
425.87        60.85589
426.31        61.01395
426.76        61.15982
427.21        61.25879
427.65        61.29441
428.10        61.27801
428.54        61.21682
428.99        61.15052
429.44        61.21451
429.88        61.29282
430.33        60.98357
430.77        60.40054
431.22        60.27703
431.66        60.55433
432.11        60.68709
432.56        60.66949
433.00        60.70226
433.45        60.62926
433.89        60.72881
434.34        61.07596
434.78        60.28276
435.23        60.05777
435.67        60.89551
436.12        61.38905
436.57        61.51842
437.01         60.9455
437.46        60.56218
437.90        61.01106
438.35        61.58061
438.79        61.41926
439.24        61.47455
439.68        61.46342
440.13        61.30701
440.57        61.07626
441.02        61.12968
441.46        61.41179
441.91        61.44591
442.35        61.22299
442.80        61.44363
443.24         61.9748
443.69        62.02557
444.13        61.56031
444.58        61.60969
445.02        61.26841
445.47        61.40567
445.91        61.65402
446.36        61.77078
446.80        61.71675
447.24        61.63028
447.69        61.57349
448.13        61.71083
448.58        61.82624
449.02        61.76372
449.47        61.51702
449.91        61.41412
450.36        61.49061
450.80        61.48886
451.25        61.42989
451.69        61.50164
452.13        61.64901
452.58        61.56202
453.02        61.27098
453.47        61.09785
453.91        61.05774
454.36        61.00185
454.80        60.90921
455.24        60.81307
455.69        60.72725
456.13        60.58956
456.58        60.51365
457.02        60.40752
457.46        60.90829
457.91        60.72414
458.35        60.27161
458.79        60.07432
459.24        60.18867
459.68        60.30111
460.13        60.41582
460.57        60.35278
461.01        60.05754
461.46        60.48807
461.90         60.1707
462.34         59.9018
462.79        59.97717
463.23        59.99434
463.68        60.08092
464.12        59.75888
464.56        59.21386
465.01        59.34678
465.45        59.92865
465.89        60.07557
466.34        59.69934
466.78         59.5081
467.22        59.57106
467.67        59.50218
468.11        59.61501
468.55        59.57883
468.99          59.473
469.44        59.36448
469.88        59.25392
470.32        59.05369
470.77        58.81202
471.21        58.66454
471.65        58.63518
472.10         58.6978
472.54        58.77932
472.98        58.79808
473.42        58.73991
473.87        58.59695
474.31        58.42472
474.75        58.50769
475.20        58.79508
475.64        58.93017
476.08        58.86853
476.52        58.86847
476.97        58.92263
477.41        58.84394
477.85        58.60249
478.29         58.7011
478.74        58.32177
479.18        58.39458
479.62        58.87693
480.06        59.03452
480.50        58.95128
480.95        58.74594
481.39        58.41777
481.83        58.75074
482.27         58.7779
482.72        58.53106
483.16        58.72264
483.60        59.08714
484.04        59.16553
484.48        58.85311
484.93        58.61402
485.37        58.82188
485.81        59.18407
486.25        58.67633
486.69        59.09991
487.14        59.44704
487.58        59.28037
488.02        59.11336
488.46         58.3243
488.90        59.18764
489.34         58.6866
489.79        58.30165
490.23         58.6487
490.67        58.87659
491.11        59.28312
491.55         59.1883
491.99        58.73459
492.43         58.6039
492.88        58.83265
493.32        59.04479
493.76        59.11246
494.20        59.16332
494.64        59.20819
495.08         58.7971
495.52        58.60992
495.96        58.72102
496.41        59.17397
496.85        59.17855
497.29        58.74525
497.73        58.76812
498.17        58.91458
498.61         59.0062
499.05        58.90591
499.49         58.7082
499.93        58.51068
500.37        58.57949
500.82        58.84628
501.26        58.94693
501.70        58.83469
502.14        58.56128
502.58        58.49105
503.02        58.28514
503.46         58.4066
503.90        58.51003
504.34        58.65098
504.78         58.7711
505.22        58.86521
505.66        58.87333
506.10        58.79425
506.54        58.83819
506.98        59.05197
507.42        58.52936
507.86        59.00406
508.30        58.68136
508.74        58.81855
509.18         58.7574
509.62        58.72978
510.06        58.72786
510.50        58.72084
510.94        58.65093
511.38        58.51965
511.82         58.4168
512.26        58.34972
512.70        58.27279
513.14        58.19826
513.58        58.16413
514.02        58.17359
514.46        58.21803
514.90        58.26017
515.34        58.28137
515.78        58.27702
516.22        58.21207
516.66        57.97237
517.10         58.2376
517.54        58.07483
517.98        58.20575
518.42        58.31147
518.86         58.3522
519.30        58.31297
519.74        58.18428
520.18         58.0448
520.62        58.08386
521.06        58.27645
521.50        58.37746
521.93        58.35914
522.37        58.36364
522.81        58.38545
523.25        58.33073
523.69        58.21265
524.13         58.1053
524.57         58.0232
525.01        57.94523
525.45        57.89085
525.89        57.89182
526.32        57.94468
526.76        58.04385
527.20        58.14568
527.64        58.17978
528.08        58.13111
528.52        58.02535
528.96        57.89705
529.40        57.79467
529.83        57.73314
530.27        57.72445
530.71        57.74686
531.15        57.76395
531.59        57.76523
532.03         57.7654
532.46        57.75983
532.90        57.75179
533.34          57.738
533.78        57.71869
534.22        57.69029
534.66        57.64978
535.09        57.59144
535.53        57.53627
535.97         57.4886
536.41        57.47079
536.85         57.4849
537.28        57.52253
537.72        57.56551
538.16        57.58435
538.60        57.57175
539.04        57.54139
539.47        57.49014
539.91        57.46163
540.35        57.44853
540.79        57.44348
541.22        57.45088
541.66        57.49065
542.10        57.55612
542.54        57.64047
542.97        57.71048
543.41        57.74298
543.85        57.72752
544.29        57.68548
544.72        57.62732
545.16        57.60767
545.60        57.62284
546.04         57.6312
546.47        57.65189
546.91        57.74061
547.35        57.85758
547.79        57.97708
548.22        58.03456
548.66        57.86179
549.10        57.57434
549.53        57.60638
549.97         57.9257
550.41        58.06252
550.84        57.99688
551.28        57.97317
551.72        57.99678
552.15        58.05986
552.59        58.19614
553.03        57.95077
553.46        58.13694
553.90        58.02777
554.34         57.8516
554.77         57.7144
555.21        57.71657
555.65        57.41163
556.08        57.72115
556.52        57.87741
556.96        58.07866
557.39        58.24714
557.83        58.35065
558.27        58.28339
558.70        58.09489
559.14         57.9964
559.57        58.00068
560.01        58.06815
560.45        58.13731
560.88        58.09157
561.32        57.99421
561.75        57.92672
562.19        57.93727
562.63        58.03556
563.06        58.15954
563.50        58.07762
563.93        57.83252
564.37        57.79159
564.80        57.92805
565.24        58.02089
565.68        58.04808
566.11        58.08458
566.55        58.13467
566.98        58.20929
567.42        58.29899
567.85         58.1825
568.29         57.9727
568.72        58.01976
569.16        58.33879
569.60        58.40198
570.03        58.44773
570.47        58.51643
570.90        58.66175
571.34        58.66868
571.77        58.80139
572.21        58.91339
572.64        58.60669
573.08        58.51586
573.51        58.98962
573.95        59.00196
574.38        58.68265
574.82        59.16447
575.25        59.20207
575.69          59.116
576.12        58.48484
576.56        58.88231
576.99        59.04715
577.42         59.1437
577.86        59.02795
578.29        59.50683
578.73        59.64395
579.16        59.06871
579.60        58.70206
580.03        59.19005
580.47        59.07813
580.90        59.02981
581.33        59.04454
581.77        59.18774
582.20        59.38968
582.64        59.43866
583.07        59.21305
583.51        59.01253
583.94        58.64815
584.37        58.69214
584.81        58.51371
585.24        58.50453
585.68        58.92783
586.11         58.5788
586.54        58.88129
586.98        59.02777
587.41        58.53819
587.85        58.68239
588.28        58.92026
588.71        59.20172
589.15        58.75213
589.58        58.70638
590.01        58.43999
590.45        58.40291
590.88        58.28292
591.31        58.11919
591.75        58.46144
592.18        58.41644
592.61        58.18042
593.05        58.58968
593.48        58.78918
593.91        58.90069
594.35        58.61647
594.78        58.57776
595.21        58.29574
595.65        58.41179
596.08         58.6782
596.51        58.87143
596.94        58.45005
597.38        58.44208
597.81        58.77273
598.24        58.55958
598.68        58.67539
599.11         58.8068
599.54        58.69665
599.97        58.88535
600.41        58.92028
600.84        59.07526
601.27        59.02422
601.70        59.06871
602.14        58.58038
602.57        58.62999
603.00        58.98095
603.43        59.04189
603.87        59.09027
604.30        58.85331
604.73        58.92746
605.16        58.83525
605.60        59.07818
606.03        59.23545
606.46        59.39133
606.89        59.05734
607.32        58.93909
607.76        59.29633
608.19         59.1903
608.62        59.15793
609.05        59.79656
609.48        59.29774
609.92        59.26295
610.35        59.15216
610.78        59.43599
611.21        58.85881
611.64        59.16878
612.07        59.07185
612.50        59.05942
612.94        59.19827
613.37        59.09832
613.80        59.27765
614.23        59.27416
614.66        59.19967
615.09        59.20077
615.52        59.04708
615.96        58.87196
616.39        58.77455
616.82        58.77321
617.25        58.87523
617.68        59.01569
618.11        58.95824
618.54        58.90435
618.97        58.92039
619.40        58.99372
619.84        59.14873
620.27        58.83694
620.70        58.73334
621.13        58.72467
621.56        58.85561
621.99        59.05006
622.42        59.30896
622.85        58.87865
623.28         58.9853
623.71         59.0756
624.14        59.01782
624.57         59.0532
625.00        59.58741
625.43        58.93998
625.86        58.98285
626.29         59.2517
626.72        58.80308
627.15        58.98146
627.58        58.93216
628.01        59.11831
628.44          58.846
628.87         58.8101
629.30         59.2249
629.73        58.90545
630.16        58.95464
630.59        58.70445
631.02        58.92782
631.45        58.68379
631.88        58.67783
632.31        58.68663
632.74        58.42686
633.17        58.50492
633.60        58.41986
634.03        58.35946
634.46        58.35921
634.89        58.33033
635.32        58.35082
635.75        58.38147
636.18        58.42515
636.61        58.46312
637.04         58.4697
637.47        58.44146
637.89        58.39264
638.32        58.32755
638.75        58.27902
639.18        58.25772
639.61        58.25744
640.04        58.27656
640.47        58.31199
640.90        58.35728
641.33        58.40847
641.76        58.45676
642.18        58.49365
642.61        58.50212
643.04        58.49368
643.47        58.46379
643.90        58.41314
644.33        58.34678
644.76        58.25145
645.18        58.16186
645.61        58.15694
646.04        58.23466
646.47        58.31838
646.90        58.37229
647.33        58.41676
647.75        58.43721
648.18         58.3588
648.61        58.24729
649.04        58.32875
649.47        58.50941
649.89        58.68787
650.32        58.27298
650.75        58.24043
651.18        58.38034
651.61        58.48576
652.03        58.28605
652.46        58.20913
652.89        58.22567
653.32        58.35874
653.74        58.57975
654.17        58.54612
654.60        58.52794
655.03        58.34183
655.46        58.32618
655.88        58.59922
656.31        59.67839
656.74        62.57172
657.16        61.61501
657.59        60.23833
658.02         58.4808
658.45        58.86792
658.87        58.93707
659.30        59.20411
659.73        58.66965
660.15        58.62031
660.58        58.69205
661.01        58.92704
661.44        59.12312
661.86        59.07106
662.29        58.79526
662.72        58.57972
663.14        58.51293
663.57        58.55438
664.00        58.66718
664.42        58.72369
664.85         58.7159
665.27        58.63361
665.70        58.67578
666.13        58.65971
666.55        58.65137
666.98        58.65009
667.41        58.65571
667.83         58.6753
668.26        58.71742
668.69        58.72448
669.11        58.69361
669.54        58.82331
669.96        59.15477
670.39        58.85811
670.82        59.31076
671.24        59.25701
671.67        59.11333
672.09        58.99465
672.52        58.94921
672.94        58.81016
673.37        58.63037
673.80        58.66092
674.22        58.86525
674.65        58.94007
675.07        58.87483
675.50        58.80227
675.92        58.76653
676.35         58.7654
676.77        58.80724
677.20        58.90161
677.62        59.02963
678.05        59.07973
678.47        59.02409
678.90         59.1738
679.32         59.0307
679.75        59.05527
680.17        59.10077
680.60        59.16875
681.02        59.23071
681.45        59.24878
681.87        59.22367
682.30        59.14468
682.72        59.06613
683.15        59.06386
683.57        59.11557
684.00        59.26154
684.42        59.12026
684.85        59.12568
685.27        59.15707
685.70        59.16096
686.12         59.1197
686.54        59.08299
686.97        59.05376
687.39        59.02605
687.82        59.01115
688.24        59.07275
688.66        59.14085
689.09        59.34469
689.51        59.43953
689.94        59.55106
690.36        59.59308
690.78        59.53589
691.21        59.42118
691.63        59.30504
692.06        59.25248
692.48         59.3535
692.90        59.55153
693.33        59.64261
693.75        59.61169
694.17        59.51606
694.60        59.38453
695.02        59.44895
695.44        59.45314
695.87        59.42035
696.29        59.31729
696.71        59.32441
697.14        59.44987
697.56        59.65092
697.98        59.84837
698.41        59.94983
698.83        59.91608
699.25        59.80661
699.68        59.66374
700.10         59.5718
700.52        59.55428
700.94        59.58671
701.37        59.63333
701.79        59.67466
702.21        59.67882
702.64        59.66877
703.06        59.64032
703.48        59.58991
703.90        59.52763
704.33        59.45264
704.75        59.39228
705.17        59.37351
705.59        59.40428
706.01        59.47262
706.44        59.57323
706.86        59.71114
707.28        59.86132
707.70        60.01642
708.12        60.14976
708.55        60.21406
708.97        60.19553
709.39        60.11585
709.81        60.00344
710.23        59.91556
710.66         59.8778
711.08        59.89161
711.50        59.92861
711.92        59.95705
712.34        59.96666
712.76        59.96223
713.19        59.95525
713.61        60.00739
714.03        60.10076
714.45        60.23245
714.87         60.3586
715.29        60.37285
715.71        60.25664
716.13        60.19521
716.56        59.95579
716.98        59.91249
717.40        59.99493
717.82        60.17463
718.24        60.38159
718.66        60.50353
719.08        60.51273
719.50        60.44456
719.92        60.34711
720.34        60.29515
720.76        60.31135
721.19         60.3598
721.61        60.44128
722.03        60.53059
722.45        60.61655
722.87        60.71093
723.29        60.79724
723.71        60.84587
724.13        60.85214
724.55        60.81563
724.97        60.77259
725.39        60.78734
725.81        60.87068
726.23         61.0035
726.65        61.13102
727.07        61.16994
727.49         61.1068
727.91        60.95962
728.33         60.7886
728.75        60.73005
729.17        60.79547
729.59        60.86896
730.01        60.93655
730.43        61.04503
730.85        61.17715
731.27        61.28528
731.69        61.35398
732.10        61.33215
732.52        61.40211
732.94        61.17828
733.36        60.81971
733.78        60.67463
734.20        60.78915
734.62        60.98444
735.04        61.18048
735.46        61.31252
735.88        61.35022
736.30        61.32758
736.72        61.24847
737.13         61.1629
737.55        61.06185
737.97        60.86841
738.39        60.67441
738.81        60.81683
739.23        61.23249
739.65        61.43724
740.06        61.34687
740.48        61.34407
740.90        61.39361
741.32          61.266
741.74        61.03264
742.16        60.95897
742.57        61.09855
742.99        61.35686
743.41        61.64395
743.83        61.79967
744.25          61.784
744.67        61.64427
745.08        61.48917
745.50        61.45375
745.92        61.58961
746.34        61.85041
746.75        62.12546
747.17        62.23654
747.59        62.14315
748.01         61.8688
748.42        61.54921
748.84        61.42326
749.26        61.50679
749.68        61.69458
750.09        61.86776
750.51         61.7485
750.93        61.41517
751.35         61.3558
751.76         61.5705
752.18        61.63734
752.60        61.54873
753.01        61.59014
753.43        61.69581
753.85        61.67101
754.27        61.50239
754.68        61.24622
755.10        61.01671
755.52        60.96712
755.93        61.13044
756.35        61.46636
756.77        61.85263
757.18        62.05734
757.60        62.00904
758.02        61.81649
758.43        61.66486
758.85        61.33728
759.26        61.69574
759.68        62.01128
760.10        61.76454
760.51         61.3274
760.93        61.36001
761.34        61.39858
761.76        61.70628
762.18        61.99454
762.59         62.1355
763.01        62.11538
763.42        61.24329
763.84        61.25888
764.26        61.57798
764.67        62.16088
765.09         62.6676
765.50        62.76857
765.92        62.51508
766.33        62.29476
766.75        62.20479
767.16         62.1587
767.58        62.12761
768.00        62.41592
768.41        62.91619
768.83          62.814
769.24        62.18006
769.66        62.44938
770.07        62.60826
770.49        62.58016
770.90        62.15094
771.32        62.07268
771.73        62.34845
772.15        62.48851
772.56        62.49345
772.97        62.59284
773.39        62.74895
773.80        62.86415
774.22        62.89395
774.63        62.88237
775.05        62.83015
775.46        62.79485
775.88        62.77121
776.29        62.76555
776.70        62.75162
777.12        62.70303
777.53        62.63461
777.95        62.55375
778.36        62.48068
778.77        62.43872
779.19        62.43386
779.60        62.46248
780.02        62.51691
780.43        62.60646
780.84        62.72525
781.26        62.84099
781.67        62.96099
782.09        63.06473
782.50        63.12379
782.91        63.10585
783.33        63.02461
783.74        63.02696
784.15        63.09605
784.57        63.19062
784.98        63.29193
785.39        63.35798
785.81        63.37803
786.22        63.36522
786.63        63.34538
787.04        63.36058
787.46         63.4331
787.87        63.52656
788.28        63.63056
788.70        63.72002
789.11        63.76746
789.52        63.79026
789.93        63.80686
790.35        63.83678
790.76        63.89727
791.17        63.98262
791.58        64.06639
792.00        64.08784
792.41        64.06733
792.82        64.02113
793.23        64.01037
793.65        64.04813
794.06        64.14889
794.47        64.42644
794.88        64.83507
795.29         64.6798
795.71         64.9172
796.12        64.86074
796.53        64.79867
796.94         64.6317
797.35        64.41605
797.76         64.3345
798.18        64.38376
798.59        64.40018
799.00        64.37254
799.41        64.42046
799.82        64.51635
800.23         64.5543
800.64        64.51791
801.06        64.40851
801.47        64.30978
801.88        64.28558
802.29        64.35867
802.70        64.51621
803.11        64.68701
803.52        64.75074
803.93        64.67321
804.34        64.47779
804.75         64.2861
805.17        64.25384
805.58        64.43774
805.99        64.87375
806.40        65.37885
806.81         65.4141
807.22        65.02193
807.63        64.80173
808.04        64.86894
808.45        64.95356
808.86        65.07636
809.27        65.45904
809.68        65.95586
810.09        66.16418
810.50        66.00771
810.91        65.61831
811.32        65.13611
811.73        64.78919
812.14        64.66124
812.55        64.68333
812.96         64.8167
813.37        64.99619
813.78        65.17667
814.19        65.37203
814.60        65.54662
815.01        65.64248
815.42        65.64915
815.83        65.57005
816.24        65.42967
816.65        65.29266
817.05        65.19817
817.46        65.11652
817.87        65.08452
818.28        65.10632
818.69         65.1813
819.10        65.31574
819.51        65.49239
819.92        65.67024
820.33        65.82517
820.74        65.94636
821.14        66.03658
821.55        66.13254
821.96        66.22701
822.37        66.30827
822.78        66.34363
823.19         66.2816
823.60        66.11468
824.00        65.87897
824.41        65.60149
824.82        65.38973
825.23        65.27901
825.64        65.26279
826.04         65.3145
826.45        65.34499
826.86        65.34545
827.27         65.3354
827.68        65.35809
828.08        65.50888
828.49        65.72765
828.90        66.01967
829.31        66.32647
829.72        66.46619
830.12        66.41119
830.53         66.5699
830.94        66.26184
831.35        66.08867
831.75         65.8845
832.16        65.63438
832.57        65.43517
832.97        65.43934
833.38        65.65764
833.79        66.03415
834.20        66.43176
834.60        66.63792
835.01         66.6073
835.42        66.40944
835.82        66.14277
836.23        65.93895
836.64        65.87089
837.04        65.90034
837.45        66.00244
837.86        66.19451
838.26        66.46252
838.67        66.78786
839.08        67.09005
839.48        67.22022
839.89        67.14396
840.29        66.90415
840.70        66.60984
841.11        66.44878
841.51         66.4923
841.92        66.65833
842.33        66.88911
842.73        67.07966
843.14        67.14344
843.54        67.14194
843.95         67.0923
844.35        67.04216
844.76        67.00463
845.17        66.97483
845.57        66.95424
845.98        66.91866
846.38        66.89374
846.79        66.85738
847.19        66.87748
847.60        66.98008
848.00        67.19615
848.41        67.48119
848.81        67.77991
849.22        67.92561
849.62         67.9193
850.03        67.76793
850.43        67.60328
850.84        67.53305
851.24         67.6394
851.65        67.81697
852.05        68.05843
852.46        68.24181
852.86        68.31857
853.27        68.36629
853.67        68.29598
854.07        68.11681
854.48        67.81345
854.88        67.41109
855.29        66.97941
855.69        66.82226
856.10        66.92231
856.50        67.29778
856.90        67.72739
857.31        67.87431
857.71        67.70351
858.12        67.25478
858.52        66.70578
858.92        66.29911
859.33        66.11253
859.73         66.1288
860.13        66.25669
860.54        66.34697
860.94        66.40481
861.34         66.4208
861.75        66.42746
862.15        66.54842
862.55        66.75436
862.96        66.98578
863.36        67.12918
863.76        66.95994
864.17        66.44725
864.57        65.70651
864.97        64.91798
865.38        64.36725
865.78        64.19335
866.18        64.32102
866.58        64.69688
866.99         65.1652
867.39        65.66064
867.79        66.18375
868.19        66.64594
868.60        66.83845
869.00         66.8107
869.40        66.76474
869.80        66.70006
870.21        66.44615
870.61        66.09051
871.01        65.77094
871.41        65.51009
871.81        65.23685
872.22        64.96968
872.62        64.73181
873.02        64.60252
873.42        64.87901
873.82        65.38623
874.22         65.5751
874.63        65.55506
875.03        65.59861
875.43        65.71179
875.83        66.63541
876.23        65.91034
876.63        65.24393
877.03         64.4446
877.44        62.91555
877.84        165.1788
878.24        64.55508
878.64        65.06525
879.04        66.02438
879.44        65.99328
879.84        62.46563
880.24         67.3506
880.64        67.70824
881.04        65.65211
881.44        64.09867
881.84        63.51353
882.24        64.05228
882.65        65.09983
883.05        65.27602
883.45        64.32677
883.85        63.10443
884.25        62.13286
884.65        61.85299
885.05        62.39502
885.45        63.50055
885.85        64.74757
886.25        65.55701
886.65        65.77647
887.05        65.59892
887.45        65.14825
887.85        64.63452
888.25        64.18403
888.65        63.73396
889.04        63.42788
889.44        63.52051
889.84        64.01044
890.24        64.79274
890.64        65.61737
891.04        66.10056
891.44        66.15785
891.84        65.91541
892.24        65.45238
892.64        64.92982
893.04        64.45468
893.44        63.99427
893.83        63.71048
894.23        63.81287
894.63        64.32323
895.03         65.1934
895.43        66.15087
895.83        66.71806
896.23        66.77733
896.63         66.4499
897.02        65.99248
897.42        65.86977
897.82        66.14148
898.22         66.6488
898.62        67.17097
899.01         67.3637
899.41        67.11687
899.81        66.58825
900.21        65.91861
900.61        65.32365
901.00        64.89027
901.40        64.62891
901.80        64.56187
902.20         64.5902
902.59         64.6637
902.99        65.05196
903.39        65.79429
903.79        65.34264
904.18        66.18504
904.58         66.3005
904.98        66.33194
905.38        66.06895
905.77        65.51992
906.17          64.769
906.57        64.03969
906.96        63.79874
907.36        64.13923
907.76        64.94991
908.15        65.96104
908.55        66.55916
908.95        66.61577
909.34         66.2285
909.74        65.69645
910.14        65.46982
910.53        65.66375
910.93        66.13376
911.33        66.58099
911.72        66.53804
912.12        65.93764
912.52        64.96706
912.91        63.97453
913.31        63.57569
913.70        63.87191
914.10        64.65395
914.49        65.60783
914.89        66.11697
915.29        66.03075
915.68        65.53937
916.08        64.87482
916.47        64.35556
916.87        64.13161
917.26        64.08306
917.66        64.20338
918.05        64.51105
918.45        64.94492
918.84        65.51452
919.24        66.07435
919.64        66.42932
920.03         66.5301
920.42        66.39876
920.82        66.10981
921.21        65.82095
921.61        65.61965
922.00        65.53735
922.40        65.63101
922.79         65.8467
923.19        65.80795
923.58        66.36009
923.98        67.82619
924.37        67.82925
924.77        65.03304
925.16        72.60833
925.55        66.64544
925.95        67.02295
926.34        66.95303
926.74        66.28667
927.13        65.00505
927.52        64.23563
927.92        64.45843
928.31        65.03543
928.70        65.83009
929.10        66.57335
929.49        67.19515
929.89        67.78659
930.28        68.20943
930.67        68.12438
931.07         67.5134
931.46        66.36357
931.85        65.13304
932.24        65.03505
932.64         66.2607
933.03        67.89359
933.42        68.97969
933.82        71.25643
934.21        69.57529
934.60        67.98755
934.99        66.33274
935.39        65.89568
935.78        66.77936
936.17        69.20218
936.56        75.62907
936.96        69.25479
937.35        72.50315
937.74        68.80569
938.13        65.81329
938.53        63.61497
938.92        63.14887
939.31        64.78398
939.70        66.98227
940.09        68.14875
940.49        67.94406
940.88         66.9163
941.27        65.61726
941.66        65.06922
942.05        65.61604
942.44        66.80388
942.84        68.08923
943.23        68.84444
943.62        68.88319
944.01        68.40916
944.40        67.74911
944.79        67.43137
945.18        67.60669
945.57        68.10928
945.97        68.56361
946.36        68.50308
946.75        67.79227
947.14        66.62122
947.53        65.42194
947.92        64.91415
948.31        65.28822
948.70        66.30269
949.09        67.51029
949.48        68.23429
949.87        68.29042
950.26         67.8606
950.65        67.23331
951.04        66.88468
951.43        66.95482
951.82        67.29209
952.21        67.65933
952.60        67.67583
952.99        67.25314
953.38          66.554
953.77        65.84141
954.16        65.45981
954.55        65.48783
954.94        65.83941
955.33        66.29848
955.72         66.4814
956.11        66.27527
956.50        65.78735
956.89        65.29874
957.28        65.24887
957.66        65.76389
958.05        66.63144
958.44        67.53369
958.83         68.0001
959.22        67.91386
959.61        67.36118
960.00        66.66088
960.39        66.41374
960.78        66.78024
961.16        67.60293
961.55        68.34599
961.94        68.37074
962.33        67.57606
962.72        66.13583
963.11        64.57148
963.49        63.95345
963.88         64.6052
964.27        66.13918
964.66        67.85217
965.04        68.79061
965.43        68.69779
965.82         67.9062
966.21        66.78662
966.60        66.01068
966.98        65.80663
967.37        65.91183
967.76         66.1721
968.15        66.34138
968.53        66.34828
968.92        66.34557
969.31        66.23592
969.69        65.80729
970.08        65.04308
970.47        63.95788
970.86        63.03209
971.24        63.10666
971.63        64.28026
972.02        66.25894
972.40        68.27628
972.79        69.11949
973.17        68.61977
973.56        67.12365
973.95        65.33917
974.33        64.55152
974.72        65.14125
975.11        66.66725
975.49        68.64468
975.88        70.19167
976.26        71.06501
976.65        71.48128
977.04        71.51435
977.42        71.21655
977.81        70.62475
978.19        69.62297
978.58         68.6973
978.96        68.71479
979.35        69.78259
979.74        71.55107
980.12         73.3049
980.51        73.96185
980.89        73.48931
981.28        72.07526
981.66        70.14481
982.05        68.83084
982.43        68.62743
982.82         69.2844
983.20        70.36345
983.59        71.13516
983.97        71.42226
984.35        71.39043
984.74        71.18555
985.12        71.13123
985.51        71.27321
985.89        71.54176
986.28        71.71751
986.66        71.56152
987.04        71.10484
987.43        70.38262
987.81         69.4577
988.20        69.87655
988.58        71.89442
988.96        72.67743
989.35        71.45162
989.73        77.39743
990.12         74.6796
990.50        75.34931
990.88        75.17484
991.27        74.57043
991.65        73.49682
992.03        72.14539
992.42        70.93386
992.80        70.06525
993.18        69.68125
993.56        69.80079
993.95        70.30488
994.33        70.89864
994.71         71.4624
995.10        72.02186
995.48        72.51299
995.86        72.83823
996.24        72.97099
996.63        72.81483
997.01        72.57896
997.39        72.43181
997.77        72.39806
998.15        72.43858
998.54        72.45688
998.92        72.16182
999.30        71.55193
999.68        70.77092
1000.06        69.97072
1000.45        69.42509
1000.83        69.37834
1001.21        69.69805
1001.59        70.44064
1001.97        71.67022
1002.35        73.20388
1002.73         74.8522
1003.12        76.23882
1003.50        76.95187
1003.88        76.93468
1004.26        76.31161
1004.64        75.26345
1005.02        74.23323
1005.40        73.46313
1005.78         72.8842
1006.16        72.53304
1006.54        72.38869
1006.92        72.42458
1007.30        72.73807
1007.69        73.11992
1008.07        73.32036
1008.45        73.27829
1008.83        73.03381
1009.21        72.88701
1009.59        73.45956
1009.97        74.74874
1010.35        76.27381
1010.73         77.6552
1011.11        78.78091
1011.49        79.78036
1011.86        80.54515
1012.24        80.68906
1012.62        82.00008
1013.00        81.98541
1013.38        80.66628
1013.76        77.21934
1014.14        80.67638
1014.52        86.92482
1014.90        80.94406
1015.28        83.49224
1015.66        85.34127
1016.04        82.15811
1016.41        81.23122
1016.79        78.93726
1017.17        77.17262
1017.55        75.61082
1017.93        74.32001
1018.31        73.92022
1018.69        74.78611
1019.06        76.89329
1019.44        79.91281
1019.82        82.71466
1020.20        83.84789
1020.58        83.04555
1020.95        80.24424
1021.33          76.297
1021.71        74.24001
1022.09        75.59678
1022.46        79.00222
1022.84        82.34138
1023.22        83.98784
1023.60        83.99571
1023.97        82.97282
1024.35        81.53648
1024.73        80.87857
