SpectraSmart Spectrum 2.9.0.0
--------- Device Information -----------
Spectrum Name :  反射率_0
Saving Time :  2024/04/21 00:50:40
Spectro-Module Model Name : SE2030-DUVN
Spectro-Module Serial Number : OS361AC55029948
Wavelength Start : 200
Wavelength End : 1025
Wavelength Unit : Wavelength(nm)
Spectrum Unit : Reflectance(%)
-----------Spectrum Setting ------------
Integration Time : 20ms
Average : 10
Boxcar : 0
Background removal :  enabled
linearity correction :  enabled
SC :  disabled
Intensity correction :  disabled
DWT denoise :  enabled
savitzky-golay :  disabled
FFT :  disabled
Running average :  disabled
Kalman :  disabled
High pass :  disabled
---------------BEGIN--------------------
Wavelength(nm)             Reflectance(%)
200.29               0
200.75       -26.73055
201.21         11.9881
201.67        30.72408
202.13        34.33996
202.58        28.38404
203.04        15.59387
203.50      -0.5599782
203.96       -9.005411
204.42       -4.766805
204.88        6.931285
205.34        20.15802
205.80        27.07642
206.26        25.52238
206.72        18.69584
207.18         4.16981
207.64       -21.13805
208.10       -52.38327
208.55       -86.57774
209.01       -97.16307
209.47       -59.73764
209.93       -11.50984
210.39        26.09347
210.85        49.89934
211.31        60.81911
211.77        63.00893
212.23        58.49847
212.69        44.36034
213.14        17.01953
213.60        -32.3625
214.06        -173.763
214.52       -484.9954
214.98       -188.2765
215.44         -19.786
215.90        34.93352
216.36        52.39199
216.81        53.08306
217.27        39.10314
217.73       -31.74382
218.19        839.8654
218.65        398.0486
219.11       -893.3723
219.57       -36.35263
220.02        19.24235
220.48        29.00934
220.94        23.35359
221.40        1.328746
221.86       -51.55873
222.32       -85.75253
222.77       -38.01867
223.23        3.237243
223.69        23.78946
224.15        30.36429
224.61        29.62369
225.06        25.57626
225.52         19.4374
225.98        12.65459
226.44        6.338704
226.90       -1.099953
227.36       -5.553783
227.81    -0.002404478
228.27        11.32027
228.73         22.9557
229.19        30.31304
229.65        30.93284
230.10        25.78489
230.56         16.3823
231.02        4.397471
231.48       -3.275909
231.93       -1.875471
232.39        5.785766
232.85        14.29768
233.31         19.1801
233.77        20.68095
234.22        20.74664
234.68        19.89109
235.14        18.93873
235.60        18.58688
236.05        17.62388
236.51        16.18335
236.97         20.8776
237.43        32.02369
237.88        39.04426
238.34        37.66096
238.80          59.591
239.26        47.96256
239.71        44.26793
240.17        33.75768
240.63        24.64256
241.08        22.92102
241.54        32.58017
242.00        50.32745
242.46        60.39359
242.91        58.31227
243.37        43.88548
243.83        19.55988
244.28        1.518666
244.74        1.627539
245.20        12.29555
245.66        25.11868
246.11        31.98033
246.57        31.48673
247.03        27.31064
247.48        19.41055
247.94         6.69407
248.40       -15.54491
248.85       -73.29501
249.31       -253.8134
249.77       -390.8968
250.22       -110.6151
250.68        3.338791
251.14        39.93403
251.59        51.41783
252.05        53.48358
252.51        50.53215
252.96        41.18691
253.42        26.71538
253.88        13.02665
254.33        3.263964
254.79        3.671723
255.25        14.66946
255.70        28.90959
256.16         41.8977
256.62        50.83893
257.07        54.36655
257.53        54.60056
257.99        53.16912
258.44         51.3959
258.90        51.05214
259.35        51.45886
259.81        52.18663
260.27        52.41196
260.72         51.4129
261.18        49.73772
261.63        47.71935
262.09        45.82889
262.55        44.09569
263.00        42.45998
263.46        40.99089
263.91        39.66543
264.37        38.83637
264.83        38.39777
265.28        38.18985
265.74         38.0272
266.19        37.50017
266.65        36.60969
267.11           35.44
267.56        34.14393
268.02        33.04313
268.47        32.17288
268.93        31.46763
269.38        30.80192
269.84        30.03501
270.30        29.12903
270.75         28.1638
271.21        27.23287
271.66        26.41189
272.12          25.747
272.57        25.17393
273.03        24.69778
273.48        24.30638
273.94        23.98847
274.39        23.71804
274.85        23.43639
275.31        22.99633
275.76        22.39009
276.22        21.70755
276.67        21.05997
277.13        20.66529
277.58        20.51727
278.04        20.53914
278.49        20.59953
278.95        20.57187
279.40        20.38458
279.86         20.1123
280.31        19.73849
280.77        19.30425
281.22        18.81774
281.68         18.3322
282.13        17.87466
282.59        17.54825
283.04        17.34854
283.50        17.25662
283.95        17.26577
284.41        17.37236
284.86        17.55386
285.32         17.8239
285.77        18.08046
286.22        18.18424
286.68        18.14438
287.13        17.96412
287.59        17.85209
288.04        18.02724
288.50        18.48104
288.95        19.25516
289.41        20.15447
289.86        20.39064
290.32        19.83465
290.77        20.61507
291.22        19.52617
291.68        19.61658
292.13         19.9674
292.59        20.59082
293.04        21.38988
293.50        22.28168
293.95        23.25039
294.40        24.31286
294.86        25.48104
295.31        26.75309
295.77        28.12369
296.22        29.55701
296.68         31.0584
297.13        32.64508
297.58        34.32606
298.04        36.09229
298.49        37.91737
298.95        39.77608
299.40        41.63723
299.85        43.51663
300.31        45.39893
300.76        47.23866
301.21        49.04844
301.67        50.86613
302.12        52.73368
302.58        54.81982
303.03        57.11429
303.48        59.60657
303.94        62.19828
304.39        64.67992
304.84         66.9969
305.30        69.20061
305.75        71.31386
306.20        73.49057
306.66        75.75576
307.11        78.00385
307.57        80.17273
308.02        82.09471
308.47        83.77231
308.93        85.29646
309.38        86.71761
309.83        88.18001
310.29         89.7617
310.74        91.35323
311.19        92.89582
311.65        94.26415
312.10        95.40866
312.55        96.37852
313.00        97.23351
313.46        98.06943
313.91        98.90305
314.36        99.72482
314.82        100.5112
315.27         101.215
315.72        101.8399
316.18        102.4051
316.63        102.9553
317.08        103.5615
317.53        104.2236
317.99        104.9012
318.44        105.5205
318.89        105.9521
319.35        106.1701
319.80        106.2354
320.25        106.2141
320.70        106.2219
321.16        106.2949
321.61        106.4183
322.06        106.5989
322.51        106.8514
322.97         107.149
323.42        107.5305
323.87        107.9044
324.32        108.1317
324.78        108.1658
325.23        108.0774
325.68        107.9606
326.13        108.0111
326.59        108.2503
327.04        108.6744
327.49        109.1535
327.94        109.5005
328.39        109.6617
328.85         109.668
329.30        109.6568
329.75        109.7215
330.20        109.9043
330.66        110.1219
331.11        110.4242
331.56         110.757
332.01        111.0998
332.46        111.4674
332.92        111.7671
333.37         111.984
333.82        112.0667
334.27        112.0496
334.72         112.031
335.17        112.1792
335.63        112.5114
336.08        113.0409
336.53        113.6761
336.98        114.3063
337.43        114.8757
337.88        115.3981
338.34        115.8324
338.79        116.1775
339.24        116.4134
339.69        116.5497
340.14        116.6234
340.59        116.7077
341.05        116.8295
341.50        116.9796
341.95        117.1792
342.40        117.4559
342.85        117.8051
343.30        118.2282
343.75        118.6282
344.20        118.8522
344.66        118.8833
345.11        118.7376
345.56        118.5658
346.01        118.6117
346.46        118.9191
346.91        119.3866
347.36        119.8199
347.81        119.9841
348.26        119.8345
348.72        119.2433
349.17        118.7795
349.62        118.3994
350.07        118.2984
350.52        118.3778
350.97        118.5124
351.42        118.4954
351.87        118.2558
352.32        117.8551
352.77        117.3762
353.22        116.9346
353.67        116.5625
354.13        116.2467
354.58        115.8767
355.03        115.3418
355.48        114.6338
355.93        113.7979
356.38        112.9912
356.83        112.4445
357.28        112.1752
357.73        112.0898
358.18        111.9691
358.63        111.4654
359.08        110.5124
359.53        109.2443
359.98        107.8638
360.43        106.6774
360.88        105.7701
361.33        105.0435
361.78        104.4243
362.23        103.7954
362.68        103.1087
363.13        102.4127
363.58        101.6755
364.03        100.8345
364.48        99.88799
364.93        98.84193
365.38        97.78158
365.83        96.86092
366.28        96.11157
366.73        95.48524
367.18        94.89967
367.63        94.21773
368.08        93.40533
368.53        92.51855
368.98        91.58595
369.43        90.63901
369.88        89.69302
370.33        88.72824
370.78        87.79301
371.23        86.99122
371.68        86.35213
372.13        85.85649
372.58        85.42559
373.03        84.91454
373.48         84.2784
373.93        83.55193
374.38        82.78625
374.83         82.0819
375.28        81.47707
375.72        80.92454
376.17        80.42492
376.62        79.91437
377.07        79.36256
377.52        78.77464
377.97        78.15926
378.42         77.5453
378.87        76.96014
379.32        76.41422
379.77        75.88915
380.22        75.34188
380.67        74.75674
381.11        74.14329
381.56        73.54735
382.01         73.0675
382.46        72.73062
382.91        72.50952
383.36        72.31274
383.81        71.99818
384.26         71.5329
384.71        70.95477
385.15        70.34337
385.60        69.88555
386.05        69.59237
386.50        69.41078
386.95        69.24279
387.40        68.94199
387.85        68.49209
388.29        67.92065
388.74        67.39997
389.19        66.98922
389.64        66.69489
390.09        66.46075
390.54        66.25893
390.98        66.03961
391.43        65.83115
391.88        65.65063
392.33        65.46327
392.78        65.25391
393.23        65.03444
393.67        64.66248
394.12        64.30939
394.57        64.34372
395.02         64.6433
395.47        64.53337
395.91         64.0567
396.36        63.82644
396.81         63.8834
397.26        63.89945
397.71         63.7846
398.15        63.54362
398.60        63.24081
399.05        62.78062
399.50        62.35531
399.95        62.30259
400.39        62.59192
400.84        63.00879
401.29        63.34179
401.74        63.06526
402.18        62.31055
402.63        61.96494
403.08        62.06052
403.53        61.87904
403.97        61.43624
404.42         61.2397
404.87        61.26928
405.32        61.28883
405.76        61.27508
406.21        61.22599
406.66        61.14405
407.11        61.23465
407.55        61.42134
408.00        61.19709
408.45        60.65482
408.90        60.36655
409.34        60.39405
409.79        60.49063
410.24        60.57449
410.68        60.60536
411.13        60.55666
411.58        60.46121
412.03        60.35266
412.47        60.28836
412.92        60.26591
413.37        60.28009
413.81        60.30564
414.26        60.35294
414.71         60.3998
415.15        60.46342
415.60        60.50611
416.05        60.51181
416.49        60.47987
416.94        60.40924
417.39        60.32362
417.83        60.25337
418.28        60.21014
418.73         60.1827
419.17        60.16534
419.62        60.15777
420.07        60.15791
420.51         60.1659
420.96        60.19183
421.41        60.21197
421.85        60.20144
422.30        60.18061
422.74        60.15742
423.19        60.28685
423.64          60.544
424.08        60.82508
424.53        61.01385
424.98        61.16399
425.42        61.27596
425.87        61.16746
426.31        60.96244
426.76        61.14799
427.21         61.6399
427.65        61.77519
428.10         61.5374
428.54        61.48286
428.99        61.65102
429.44        61.78795
429.88        61.81821
430.33        61.68885
430.77        61.42319
431.22         61.4146
431.66        61.64411
432.11        61.76149
432.56         61.7775
433.00        61.99648
433.45        62.13372
433.89        61.94089
434.34        61.71569
434.78        60.91771
435.23        60.99411
435.67        62.70014
436.12        62.60415
436.57        62.87949
437.01        62.58364
437.46        62.32339
437.90        62.73861
438.35        63.23378
438.79        62.98699
439.24        62.99746
439.68        63.00594
440.13        62.86368
440.57        62.63838
441.02        62.85893
441.46        63.39555
441.91        63.35885
442.35        62.85692
442.80         63.1804
443.24        64.16066
443.69        64.37846
444.13         63.7225
444.58        63.97902
445.02        63.49918
445.47        63.58113
445.91         63.6776
446.36        63.70593
446.80         63.6432
447.24        63.59855
447.69        63.62135
448.13        63.83683
448.58        64.00865
449.02        63.99398
449.47        63.77871
449.91        63.68727
450.36        63.75752
450.80        63.72406
451.25        63.63316
451.69        63.71987
452.13        63.93412
452.58        63.94395
453.02        63.74715
453.47        63.62519
453.91        63.57978
454.36        63.46848
454.80        63.29424
455.24        63.14444
455.69         63.0488
456.13         62.9314
456.58        62.85897
457.02        62.82946
457.46          63.049
457.91        62.95135
458.35         62.7508
458.79        62.61625
459.24        62.59842
459.68        62.56977
460.13        62.55536
460.57         62.3919
461.01        62.05857
461.46        62.22865
461.90         61.9106
462.34        61.71597
462.79        61.82647
463.23        62.01886
463.68        62.29293
464.12        62.05088
464.56        61.45458
465.01        61.50192
465.45        61.98951
465.89        62.01228
466.34        61.64532
466.78        61.44838
467.22        61.45568
467.67        61.76032
468.11        61.57903
468.55        61.52478
468.99        61.37719
469.44        61.24743
469.88        61.13627
470.32        60.94714
470.77        60.74215
471.21        60.65423
471.65        60.70238
472.10        60.85828
472.54        60.99634
472.98        60.97557
473.42        60.78641
473.87         60.3928
474.31         59.9375
474.75        59.98643
475.20        60.43369
475.64        60.54356
476.08        60.33805
476.52        60.34035
476.97        60.50581
477.41        60.73796
477.85        60.96781
478.29        60.45488
478.74        60.01962
479.18        60.08587
479.62        60.19746
480.06        60.29719
480.50        60.18192
480.95        60.29229
481.39        60.57229
481.83        60.46334
482.27        61.01683
482.72        60.65125
483.16        60.76782
483.60        61.01542
484.04        60.94442
484.48         60.6553
484.93        60.66959
485.37        60.18836
485.81        60.68507
486.25        60.09361
486.69        61.36008
487.14        61.20971
487.58        61.11995
488.02        60.48393
488.46        60.41036
488.90        60.43293
489.34        60.56664
489.79        60.23999
490.23        60.69482
490.67        60.70071
491.11         60.6493
491.55        60.50695
491.99        60.34892
492.43         60.2735
492.88        60.28932
493.32        60.38357
493.76        60.47239
494.20        60.54047
494.64        60.59542
495.08        60.30283
495.52        60.25465
495.96        60.28895
496.41        60.49395
496.85        60.42653
497.29        60.10337
497.73        60.18599
498.17        60.30209
498.61        60.33253
499.05        60.13933
499.49        59.84384
499.93        59.58326
500.37        59.58604
500.82        59.80676
501.26        60.07639
501.70        60.28063
502.14        59.96906
502.58        59.72635
503.02        59.52657
503.46        59.62471
503.90        59.70013
504.34        59.73202
504.78         59.7808
505.22         59.8521
505.66        59.85305
506.10        59.77643
506.54        59.84927
506.98        60.12104
507.42        59.54372
507.86         60.1038
508.30        59.80328
508.74        59.96988
509.18        59.94178
509.62         59.9448
510.06        59.95994
510.50        59.95307
510.94        59.87063
511.38        59.72826
511.82        59.64021
512.26        59.61634
512.70        59.59996
513.14         59.5843
513.58        59.57767
514.02        59.57394
514.46        59.57362
514.90         59.5502
515.34        59.50019
515.78        59.42963
516.22        59.31037
516.66        59.02914
517.10        59.25706
517.54        59.08497
517.98        59.21639
518.42         59.3467
518.86        59.44652
519.30        59.49512
519.74        59.46938
520.18        59.42046
520.62        59.50126
521.06         59.6776
521.50        59.71215
521.93        59.59727
522.37        59.51419
522.81        59.47179
523.25        59.36674
523.69        59.21675
524.13        59.10103
524.57        59.03249
525.01        58.99306
525.45        58.98486
525.89        59.00857
526.32        59.05622
526.76        59.13055
527.20        59.21244
527.64         59.2733
528.08        59.30336
528.52        59.30804
528.96        59.29645
529.40        59.27873
529.83        59.25824
530.27        59.26094
530.71        59.26851
531.15        59.25026
531.59        59.20321
532.03         59.1408
532.46        59.07693
532.90        59.04599
533.34        59.04745
533.78        59.07104
534.22        59.08823
534.66        59.05456
535.09        58.95695
535.53        58.83561
535.97        58.70984
536.41         58.6254
536.85        58.59642
537.28         58.6079
537.72        58.65423
538.16        58.72656
538.60        58.81175
539.04        58.90787
539.47        58.97874
539.91        59.02037
540.35        59.01342
540.79        58.96523
541.22        58.89257
541.66        58.83941
542.10        58.81362
542.54         58.8044
542.97        58.79734
543.41        58.80102
543.85        58.80833
544.29        58.82701
544.72        58.83923
545.16        58.87561
545.60        58.92544
546.04        58.89935
546.47        58.83518
546.91        58.97109
547.35        59.23168
547.79        59.23522
548.22        58.99288
548.66        58.87409
549.10        58.90153
549.53        58.87555
549.97        58.81017
550.41        58.79694
550.84        58.84676
551.28        58.90058
551.72        58.92915
552.15        58.99993
552.59        59.14264
553.03        58.87868
553.46        59.04057
553.90        58.95819
554.34        58.87488
554.77        58.76744
555.21        58.70638
555.65        58.75314
556.08        58.89465
556.52        59.17051
556.96        59.46758
557.39        59.53186
557.83        59.38901
558.27        59.27281
558.70        59.22996
559.14        59.14969
559.57        59.03551
560.01        59.08376
560.45        59.21753
560.88        59.09051
561.32         58.8161
561.75        58.77878
562.19        58.99086
562.63        59.11217
563.06        59.09309
563.50        59.05626
563.93        58.99638
564.37        58.89006
564.80        58.76954
565.24        58.81628
565.68        58.98952
566.11        59.07759
566.55        59.08538
566.98        59.11841
567.42        59.20166
567.85        59.24799
568.29        59.28517
568.72        59.32541
569.16         59.4385
569.60        59.40723
570.03        59.49462
570.47        59.63712
570.90        59.85879
571.34        59.60812
571.77        59.68421
572.21        59.67169
572.64        59.45279
573.08        59.43416
573.51        59.71291
573.95        60.12284
574.38        59.68705
574.82        60.44095
575.25        60.20369
575.69        59.89898
576.12        59.55897
576.56        59.73598
576.99        59.82838
577.42        60.00731
577.86         59.9604
578.29        60.17632
578.73        60.57644
579.16        60.07075
579.60         59.5757
580.03        59.80053
580.47        59.85262
580.90        59.99391
581.33        59.96313
581.77        60.09313
582.20        60.29876
582.64         60.4343
583.07        59.76617
583.51        59.56319
583.94        59.65136
584.37        59.57853
584.81        59.45964
585.24        59.41219
585.68        59.88813
586.11        59.65658
586.54        59.90945
586.98        59.73956
587.41        59.60801
587.85        59.86884
588.28        59.91782
588.71        60.00427
589.15        59.97536
589.58        59.52745
590.01        59.63791
590.45        59.37631
590.88        59.54471
591.31        59.30152
591.75        59.46888
592.18         59.3299
592.61        59.09606
593.05        59.73492
593.48        59.78773
593.91        60.07577
594.35        59.48427
594.78        59.33772
595.21        59.40154
595.65        59.49078
596.08        59.52969
596.51         59.6996
596.94         59.4963
597.38        59.52826
597.81        59.70421
598.24        59.64411
598.68        59.37874
599.11         59.8028
599.54        59.58789
599.97        59.57305
600.41        59.67644
600.84        59.97718
601.27        59.80043
601.70        59.89103
602.14        59.44796
602.57        59.51295
603.00        59.85139
603.43        59.85413
603.87        59.98611
604.30        59.81366
604.73        59.76449
605.16        59.78659
605.60        60.05351
606.03         60.0635
606.46        59.91933
606.89        59.75714
607.32         59.5963
607.76        60.39921
608.19         60.0299
608.62        59.72168
609.05        60.50014
609.48        59.92128
609.92        59.82605
610.35        59.82238
610.78        60.11845
611.21        59.97572
611.64        60.00713
612.07         59.9146
612.50        59.92076
612.94        59.89695
613.37        59.86314
613.80        60.05087
614.23        60.04653
614.66        60.01971
615.09        59.87838
615.52        59.77845
615.96        59.74016
616.39        59.69283
616.82        59.65101
617.25        59.61098
617.68        59.75605
618.11        59.62399
618.54        59.48897
618.97        59.39565
619.40        59.41415
619.84        59.47006
620.27        59.62301
620.70        59.59525
621.13        59.45057
621.56        59.51092
621.99        59.77059
622.42        59.88418
622.85        59.80772
623.28        59.86387
623.71        59.86804
624.14        59.98363
624.57        59.99518
625.00        60.23058
625.43        59.77744
625.86        59.75011
626.29        59.92622
626.72        59.39861
627.15        59.46617
627.58        59.23491
628.01        59.15448
628.44        59.01693
628.87        58.98875
629.30        59.35268
629.73        59.34824
630.16        59.45192
630.59        59.23374
631.02        59.42098
631.45        59.13004
631.88        59.11195
632.31        59.15166
632.74         58.9496
633.17        59.09693
633.60        59.06042
634.03        59.02016
634.46        59.02472
634.89        58.98901
635.32        58.99669
635.75        59.01259
636.18        59.03675
636.61        59.05812
637.04        59.06504
637.47         59.0552
637.89        59.03858
638.32        59.00641
638.75        58.96935
639.18         58.9328
639.61        58.89818
640.04         58.8742
640.47        58.87429
640.90        58.89968
641.33        58.94476
641.76        59.00023
642.18         59.0562
642.61        59.09341
643.04        59.12204
643.47        59.13801
643.90          59.141
644.33        59.13235
644.76         59.0969
645.18        59.05308
645.61         59.0544
646.04        59.09184
646.47        59.09664
646.90        59.05951
647.33        59.01826
647.75        58.96452
648.18        58.89967
648.61        58.85677
649.04        58.81452
649.47        58.76593
649.89        59.05766
650.32         59.0195
650.75        59.14095
651.18        59.20151
651.61        59.14048
652.03        59.00536
652.46        58.97458
652.89        59.03979
653.32        59.13284
653.74        59.20819
654.17        59.28097
654.60        58.33785
655.03        59.25855
655.46        58.83829
655.88        59.58015
656.31        60.59224
656.74        62.93165
657.16        61.78593
657.59        60.41028
658.02        59.33845
658.45        59.32336
658.87        59.24504
659.30        59.28241
659.73        59.29918
660.15        58.91232
660.58        59.14052
661.01        59.26915
661.44        59.49029
661.86        59.35644
662.29        58.95352
662.72        58.89572
663.14        59.17285
663.57        59.24606
664.00        59.10398
664.42        59.09303
664.85        59.22253
665.27        59.20249
665.70        59.22115
666.13        59.20536
666.55         59.2193
666.98        59.23191
667.41        59.23359
667.83        59.21514
668.26        59.18759
668.69        59.11109
669.11        59.00003
669.54        59.08319
669.96        59.41221
670.39        59.12407
670.82        59.60863
671.24        59.66054
671.67        59.66596
672.09        59.62521
672.52        59.57716
672.94        59.43365
673.37         59.2496
673.80        59.22478
674.22        59.34244
674.65        59.36286
675.07        59.28806
675.50        59.23378
675.92        59.23217
676.35        59.25871
676.77         59.3129
677.20        59.41306
677.62         59.5373
678.05        59.56766
678.47         59.4797
678.90        59.58587
679.32        59.40618
679.75         59.4187
680.17        59.48105
680.60        59.58461
681.02        59.69566
681.45        59.76167
681.87        59.77509
682.30        59.74313
682.72        59.70023
683.15        59.65804
683.57        59.60841
684.00        59.67556
684.42        59.50362
684.85        59.48516
685.27        59.50405
685.70        59.55272
686.12        59.58972
686.54        59.56573
686.97         59.4852
687.39        59.45702
687.82        59.49156
688.24        59.50916
688.66         59.4892
689.09        59.70713
689.51        59.70112
689.94        59.82368
690.36         59.9162
690.78        59.94989
691.21        59.92548
691.63        59.83582
692.06        59.73678
692.48        59.73927
692.90        59.82759
693.33        59.86344
693.75        59.84783
694.17        59.81554
694.60        59.77011
695.02        59.89503
695.44        59.91508
695.87        59.89253
696.29        59.78636
696.71        59.73387
697.14        59.78477
697.56         59.9785
697.98        60.19714
698.41        60.47747
698.83        60.26869
699.25        60.12296
699.68        59.95169
700.10        59.83796
700.52        59.80946
700.94         59.8558
701.37         59.9308
701.79        59.98295
702.21        59.97623
702.64        59.93668
703.06        59.89079
703.48        59.88528
703.90        59.93383
704.33        60.01527
704.75         60.1026
705.17        60.13607
705.59        60.10553
706.01        60.02839
706.44        59.95536
706.86        59.98613
707.28        60.12414
707.70        60.33284
708.12        60.55197
708.55        60.68317
708.97        60.69489
709.39         60.6244
709.81         60.5035
710.23        60.39397
710.66        60.32514
711.08        60.29363
711.50        60.27696
711.92        60.25481
712.34        60.22268
712.76        60.19073
713.19        60.16951
713.61        60.21551
714.03        60.31056
714.45        60.45094
714.87        60.60307
715.29        60.67752
715.71        60.65284
716.13        60.70381
716.56        60.56543
716.98        60.56565
717.40        60.62033
717.82        60.71526
718.24        60.80634
718.66        60.82622
719.08         60.7644
719.50        60.64734
719.92           60.52
720.34        60.44828
720.76        60.45229
721.19        60.50555
721.61        60.60114
722.03        60.69902
722.45        60.78385
722.87        60.86286
723.29        60.94006
723.71        61.02176
724.13         61.1077
724.55         61.1891
724.97        61.25515
725.39        61.29387
725.81        61.30301
726.23        61.28625
726.65        61.25903
727.07        61.24911
727.49        61.26576
727.91        61.29337
728.33        61.31615
728.75        61.34341
729.17        61.35351
729.59        61.27008
730.01        61.14572
730.43        61.13727
730.85        61.25905
731.27        61.42769
731.69        61.57925
732.10        61.58634
732.52         61.6128
732.94        61.30315
733.36        60.84841
733.78        60.64554
734.20        60.76228
734.62        61.00755
735.04        61.28164
735.46         61.4962
735.88         61.6075
736.30        61.63453
736.72        61.60315
737.13        61.61338
737.55        61.63674
737.97        61.56591
738.39        61.44319
738.81        61.47121
739.23        61.63497
739.65        61.74031
740.06        61.72024
740.48        61.71698
740.90        61.69367
741.32        61.58462
741.74        61.43098
742.16        61.34906
742.57        61.37674
742.99        61.46912
743.41        61.59324
743.83        61.67525
744.25        61.69506
744.67        61.66683
745.08        61.65778
745.50        61.73563
745.92        61.92653
746.34        62.20355
746.75        62.46738
747.17        62.55893
747.59        62.44881
748.01        62.15313
748.42        61.81903
748.84        61.70701
749.26        61.83554
749.68        62.09409
750.09        62.34801
750.51        62.29006
750.93        61.98976
751.35         61.9448
751.76        62.15792
752.18        62.20943
752.60        62.09422
753.01        62.09587
753.43        62.15386
753.85        62.08245
754.27        61.87209
754.68        61.58334
755.10          61.322
755.52        61.22368
755.93        61.32278
756.35        61.59085
756.77        61.93045
757.18        62.13841
757.60        62.14639
758.02         62.0645
758.43        62.05697
758.85        61.79454
759.26        62.26517
759.68        62.64272
760.10        62.38086
760.51        61.98435
760.93        61.92102
761.34         61.9034
761.76        62.22997
762.18        62.39375
762.59        62.37925
763.01        62.60286
763.42        62.24511
763.84        62.42303
764.26        62.49431
764.67        62.69464
765.09        62.85258
765.50        62.83491
765.92        62.70473
766.33        62.65098
766.75        62.67531
767.16        62.69899
767.58        62.66176
768.00        62.72818
768.41        62.88227
768.83        62.78048
769.24         62.4283
769.66         62.5839
770.07        62.31918
770.49        62.30059
770.90         62.2583
771.32        62.24002
771.73         62.2632
772.15        62.35257
772.56        62.52252
772.97        62.73809
773.39        62.92195
773.80        63.03098
774.22        63.01324
774.63        62.90552
775.05        62.74252
775.46        62.63181
775.88        62.58479
776.29        62.60367
776.70        62.64206
777.12        62.63384
777.53        62.58154
777.95        62.50195
778.36        62.43536
778.77         62.4372
779.19        62.52154
779.60        62.67096
780.02          62.842
780.43        63.01585
780.84        63.18031
781.26        63.23443
781.67        63.22891
782.09        63.40973
782.50        63.66537
782.91        63.52438
783.33        63.05472
783.74        62.85527
784.15        62.94814
784.57        63.12389
784.98          63.316
785.39        63.28845
785.81        63.12506
786.22        63.34686
786.63        63.86386
787.04        64.07202
787.46        63.94807
787.87        63.80061
788.28         63.7008
788.70        63.61592
789.11        63.55107
789.52         63.5206
789.93        63.52355
790.35        63.54536
790.76        63.59943
791.17         63.7039
791.58        63.80844
792.00        63.85184
792.41        63.85725
792.82        63.70708
793.23        63.55013
793.65        63.83301
794.06        64.45531
794.47        64.84494
794.88        64.96649
795.29        64.70867
795.71        65.04505
796.12        64.86327
796.53        64.51525
796.94        64.40781
797.35        64.54449
797.76        64.54176
798.18        64.38085
798.59        64.32279
799.00        64.36379
799.41        64.36475
799.82        64.31203
800.23        64.25758
800.64        64.20441
801.06          64.116
801.47        64.06003
801.88         64.0749
802.29        64.17177
802.70        64.34238
803.11         64.5384
803.52        64.67292
803.93         64.7168
804.34        64.68231
804.75        64.62731
805.17        64.62766
805.58         64.7272
805.99        64.92542
806.40        65.13773
806.81        65.13979
807.22        64.94083
807.63        64.76532
808.04         64.6979
808.45        64.71272
808.86        64.83033
809.27        65.10975
809.68        65.43818
810.09        65.56625
810.50        65.44152
810.91        65.14469
811.32        64.79182
811.73        64.57563
812.14        64.55569
812.55        64.66754
812.96        64.85471
813.37        65.02057
813.78        65.11873
814.19        65.17957
814.60        65.18835
815.01         65.1172
815.42        64.97207
815.83        64.75617
816.24        64.52324
816.65        64.38602
817.05        64.38925
817.46        64.48309
817.87        64.65036
818.28        64.81477
818.69        64.95384
819.10        65.09164
819.51        65.22713
819.92        65.35602
820.33        65.47318
820.74        65.55723
821.14        65.62782
821.55        65.74759
821.96        65.91315
822.37        66.11373
822.78        66.28389
823.19        66.30952
823.60        66.16177
824.00        65.88244
824.41         65.5382
824.82        65.30808
825.23        65.24517
825.64        65.32638
826.04        65.46651
826.45        65.48356
826.86        65.35152
827.27        65.11674
827.68        64.90734
828.08        64.96617
828.49        65.27073
828.90        65.78136
829.31        66.33454
829.72         66.5801
830.12        66.44728
830.53        66.39423
830.94        65.82574
831.35        65.49686
831.75        65.29008
832.16        65.14935
832.57        65.11261
832.97         65.2326
833.38         65.4874
833.79        65.85287
834.20        66.22781
834.60        66.45415
835.01        66.49285
835.42        66.37835
835.82        66.17988
836.23        65.98391
836.64         65.8536
837.04        65.78606
837.45        65.75355
837.86         65.7654
838.26        65.82392
838.67        65.91253
839.08        66.04331
839.48        66.21185
839.89        66.40192
840.29        66.61642
840.70        66.80038
841.11        66.86915
841.51         66.8224
841.92         66.6366
842.33        66.43769
842.73          66.434
843.14        66.62468
843.54        66.99217
843.95        67.35526
844.35        67.44075
844.76         67.1857
845.17        66.67905
845.57         66.1499
845.98        65.93902
846.38         66.1557
846.79        66.66685
847.19        67.27585
847.60        67.58533
848.00        67.52597
848.41        67.17898
848.81        66.76149
849.22        66.57568
849.62        66.74512
850.03        67.11611
850.43        67.55923
850.84        67.77801
851.24        67.74211
851.65        67.47784
852.05        67.12882
852.46        66.85156
852.86        66.71899
853.27        66.72337
853.67        66.72556
854.07        66.66686
854.48        66.49989
854.88        66.27869
855.29        66.05219
855.69        66.06343
856.10        66.27076
856.50        66.68503
856.90        67.09605
857.31        67.20521
857.71        66.99415
858.12         66.4983
858.52        65.90215
858.92        65.46043
859.33        65.25415
859.73        65.26599
860.13        65.40891
860.54        65.53053
860.94        65.63511
861.34        65.72409
861.75        65.79838
862.15        65.93101
862.55        66.08556
862.96        66.20444
863.36        66.25469
863.76        66.14659
864.17        65.86896
864.57        65.49856
864.97        65.07573
865.38        64.64862
865.78        64.29958
866.18        64.02087
866.58        63.92044
866.99        64.14271
867.39        64.71096
867.79        65.52137
868.19        66.34669
868.60        66.79588
869.00         66.8734
869.40        66.83845
869.80        66.70935
870.21        66.35423
870.61        65.88186
871.01        65.40267
871.41        64.97242
871.81        64.56729
872.22        64.21826
872.62        63.97083
873.02        63.84718
873.42        64.03815
873.82        64.35462
874.22        64.25513
874.63        63.99923
875.03        64.12226
875.43        64.65561
875.83        66.23838
876.23        66.13535
876.63        65.74477
877.03        64.77982
877.44        62.70926
877.84        166.8018
878.24        63.24915
878.64        63.77116
879.04        65.02548
879.44        65.36954
879.84        62.09788
880.24        67.18152
880.64        67.64359
881.04        65.65606
881.44        64.14746
881.84        63.59344
882.24        64.11936
882.65        65.17197
883.05        65.48953
883.45        64.82596
883.85        63.98079
884.25        63.35352
884.65        63.19156
885.05        63.58303
885.45        64.35212
885.85        65.15794
886.25        65.53446
886.65        65.37687
887.05        64.85037
887.45        64.12558
887.85        63.49115
888.25        63.08097
888.65        62.82129
889.04        62.76181
889.44        62.98097
889.84        63.44706
890.24        64.12569
890.64        64.84408
891.04        65.34756
891.44        65.57637
891.84        65.57257
892.24        65.43632
892.64         65.3597
893.04        65.40404
893.44        65.52255
893.83        65.65495
894.23        65.67868
894.63        65.58781
895.03        65.44096
895.43        65.32449
895.83        65.36343
896.23        65.57667
896.63        65.89415
897.02        66.21435
897.42        66.45897
897.82        66.56815
898.22        66.56539
898.62        66.45791
899.01        66.26962
899.41        66.00441
899.81        65.68843
900.21        65.34768
900.61        65.02226
901.00        64.72831
901.40        64.53922
901.80        64.50384
902.20        64.54948
902.59        64.64649
902.99        65.05345
903.39        65.80382
903.79        65.35764
904.18        66.20192
904.58        66.30244
904.98        66.34402
905.38        66.17787
905.77        65.80481
906.17        65.28777
906.57        64.72957
906.96        64.39913
907.36         64.3644
907.76         64.5916
908.15         64.9874
908.55         65.2354
908.95        65.30031
909.34        65.20218
909.74        65.11617
910.14        65.28528
910.53        65.73825
910.93        66.36131
911.33        66.88706
911.72        66.90272
912.12        66.35418
912.52        65.40845
912.91        64.36219
913.31        63.75687
913.70        63.70936
914.10        64.07111
914.49        64.65923
914.89        65.07094
915.29        65.19518
915.68        65.12117
916.08         64.9741
916.47         64.9014
916.87        64.97758
917.26         65.1345
917.66        65.28418
918.05        65.32281
918.45        65.21342
918.84         65.0175
919.24        64.84747
919.64        64.93198
920.03        65.31348
920.42        65.89584
920.82         66.4807
921.21        66.77325
921.61        66.72395
922.00        66.47122
922.40        66.23939
922.79        66.26281
923.19        66.25069
923.58        66.94023
923.98        68.52252
924.37        68.49944
924.77        65.51343
925.16        72.69148
925.55        66.38918
925.95        66.58793
926.34        66.54242
926.74        66.02296
927.13        64.94367
927.52        64.31344
927.92        64.55533
928.31        65.08709
928.70        65.75574
929.10        66.26144
929.49        66.55101
929.89        66.71872
930.28        66.76184
930.67         66.5815
931.07        66.21785
931.46        65.60014
931.85        64.98817
932.24        65.24673
932.64        66.46355
933.03        67.81361
933.42        68.53533
933.82        70.70884
934.21         69.1616
934.60        67.94247
934.99        66.67577
935.39        66.28069
935.78        66.79284
936.17        68.60768
936.56        74.64233
936.96        67.72684
937.35        71.31877
937.74        68.02132
938.13        65.65945
938.53        63.86918
938.92         63.3913
939.31        64.68682
939.70         66.4769
940.09         67.4995
940.49        67.46873
940.88        66.83648
941.27        65.96547
941.66        65.52691
942.05        65.76834
942.44        66.37959
942.84        67.05618
943.23        67.49545
943.62        67.58151
944.01        67.42463
944.40        67.18843
944.79        67.11906
945.18        67.28326
945.57         67.6041
945.97         67.8469
946.36        67.76575
946.75        67.27288
947.14        66.46333
947.53        65.64212
947.92        65.32734
948.31        65.63634
948.70        66.39115
949.09        67.22192
949.48        67.55813
949.87        67.27205
950.26        66.55505
950.65        65.67988
951.04        65.09341
951.43         64.9452
951.82        65.09507
952.21        65.43166
952.60        65.76733
952.99        66.00092
953.38        66.17955
953.77        66.29027
954.16        66.30159
954.55        66.21756
954.94        66.04012
955.33         65.7701
955.72         65.4427
956.11        65.09933
956.50        64.75154
956.89        64.51009
957.28        64.52503
957.66        64.85067
958.05        65.38692
958.44        65.95644
958.83        66.27851
959.22        66.27924
959.61        65.97524
960.00        65.56975
960.39        65.45805
960.78        65.73242
961.16        66.30648
961.55        66.76894
961.94        66.64183
962.33        65.85863
962.72        64.55972
963.11        63.18202
963.49        62.62693
963.88        63.17702
964.27        64.50867
964.66        66.05029
965.04        67.03907
965.43        67.23436
965.82        66.87741
966.21        66.22329
966.60        65.73203
966.98        65.57452
967.37        65.60785
967.76         65.6867
968.15         65.5797
968.53        65.26897
968.92        64.87723
969.31        64.57448
969.69        64.58852
970.08        64.94081
970.47        65.50485
970.86        66.20809
971.24          66.938
971.63        67.57163
972.02        68.12374
972.40        68.43333
972.79        68.18399
973.17        67.42331
973.56        66.25429
973.95        65.05401
974.33        64.50338
974.72        64.79792
975.11        65.73876
975.49        67.06728
975.88        68.24728
976.26        69.13284
976.65        69.75625
977.04         70.1097
977.42        70.16608
977.81        69.90692
978.19        69.26879
978.58        68.58105
978.96        68.39738
979.35         68.8244
979.74        69.68687
980.12        70.60905
980.51        70.89017
980.89        70.54847
981.28        69.68937
981.66        68.58464
982.05        67.97567
982.43        68.11834
982.82        68.80859
983.20        69.72265
983.59        70.33931
983.97        70.54749
984.35        70.46211
984.74        70.12052
985.12        69.68253
985.51        69.22535
985.89        68.81825
986.28        68.48772
986.66        68.32942
987.04        68.40863
987.43        68.60361
987.81        68.75574
988.20        69.98373
988.58         72.3033
988.96        73.07932
989.35        71.56084
989.73        76.98833
990.12         73.4569
990.50        73.21511
990.88        72.17544
991.27        71.30964
991.65        70.72244
992.03          70.505
992.42         70.7212
992.80        70.86404
993.18        70.81833
993.56         70.7551
993.95         70.6813
994.33        70.55418
994.71        70.41386
995.10        70.24982
995.48        70.16593
995.86        70.34982
996.24        70.81741
996.63        71.38837
997.01        72.09539
997.39         72.7909
997.77        73.36716
998.15        73.82697
998.54        74.03311
998.92        73.66199
999.30        72.71464
999.68        71.29658
1000.06        69.68888
1000.45         68.4809
1000.83         68.0687
1001.21         68.3223
1001.59        69.16367
1001.97        70.39368
1002.35        71.78838
1002.73        73.26109
1003.12        74.55231
1003.50        75.41448
1003.88        75.82033
1004.26        75.83389
1004.64        75.54967
1005.02        75.21482
1005.40        74.93123
1005.78        74.61691
1006.16        74.33685
1006.54        74.14678
1006.92         74.0806
1007.30        74.27221
1007.69        74.44642
1008.07        74.25729
1008.45        73.62044
1008.83        72.51521
1009.21        71.59035
1009.59        72.14535
1009.97        74.24823
1010.35        77.14384
1010.73        79.62694
1011.11        80.59727
1011.49         80.0805
1011.86        78.11507
1012.24        75.02331
1012.62        75.44296
1013.00        76.75858
1013.38        78.15228
1013.76        77.81837
1014.14        82.69456
1014.52        88.27161
1014.90        81.68421
1015.28        82.35487
1015.66        83.40516
1016.04        80.42474
1016.41        81.00984
1016.79        80.56246
1017.17        80.21527
1017.55        79.41689
1017.93        78.54259
1018.31        78.04993
1018.69        78.12234
1019.06        78.87654
1019.44        80.11263
1019.82        81.34099
1020.20        81.93275
1020.58        81.77765
1020.95        80.84083
1021.33        79.56124
1021.71        79.10206
1022.09        79.94094
1022.46        81.46949
1022.84        82.78291
1023.22        83.20914
1023.60        82.80891
1023.97        81.88899
1024.35        80.75859
1024.73        80.07186
