SpectraSmart Spectrum 2.9.0.0
--------- Device Information -----------
Spectrum Name :  反射率_0
Saving Time :  2024/04/21 00:19:28
Spectro-Module Model Name : SE2030-DUVN
Spectro-Module Serial Number : OS361AC55029948
Wavelength Start : 200
Wavelength End : 1025
Wavelength Unit : Wavelength(nm)
Spectrum Unit : Reflectance(%)
-----------Spectrum Setting ------------
Integration Time : 20ms
Average : 10
Boxcar : 0
Background removal :  enabled
linearity correction :  enabled
SC :  disabled
Intensity correction :  disabled
DWT denoise :  enabled
savitzky-golay :  disabled
FFT :  disabled
Running average :  disabled
Kalman :  disabled
High pass :  disabled
---------------BEGIN--------------------
Wavelength(nm)             Reflectance(%)
200.29               0
200.75       -29.23236
201.21        30.63981
201.67        58.61638
202.13        63.44847
202.58         53.8331
203.04        32.82579
203.50        5.123428
203.96       -12.24578
204.42       -10.26775
204.88        4.639586
205.34         23.9304
205.80        36.21188
206.26        38.28711
206.72         33.5187
207.18        20.63924
207.64      -0.8378281
208.10       -26.09633
208.55       -53.16196
209.01       -63.82744
209.47       -40.06467
209.93       -7.413023
210.39        18.63074
210.85        35.84452
211.31        45.17229
211.77        49.99031
212.23        53.01853
212.69        54.03002
213.14         51.1703
213.60        35.89225
214.06        -35.6788
214.52       -253.8701
214.98       -118.8873
215.44        -10.1298
215.90        29.86203
216.36        42.11808
216.81        37.94907
217.27        14.81676
217.73       -89.76216
218.19        1153.947
218.65        497.1982
219.11       -1101.828
219.57       -50.02578
220.02        17.93601
220.48         32.4398
220.94        31.37323
221.40        17.25101
221.86        -20.4071
222.32       -47.92687
222.77       -16.48993
223.23        11.90778
223.69        26.58636
224.15        32.07348
224.61        32.96853
225.06        32.21548
225.52         30.3311
225.98        27.33948
226.44        23.66128
226.90        18.47933
227.36        14.90475
227.81         18.4069
228.27          26.311
228.73        34.53955
229.19        39.84156
229.65        40.46572
230.10        37.12943
230.56        31.20024
231.02        23.72838
231.48        18.76957
231.93         19.2911
232.39         23.7823
232.85         28.8584
233.31        31.61861
233.77        32.19157
234.22        31.87809
234.68        30.88562
235.14        29.56663
235.60        28.43295
236.05        26.64663
236.51        24.36434
236.97        27.68382
237.43        37.09577
237.88        42.71372
238.34         40.4955
238.80        61.27097
239.26        50.75324
239.71        48.86005
240.17        40.86993
240.63         31.6368
241.08        24.18866
241.54        21.61826
242.00        25.67924
242.46        27.18378
242.91        23.47339
243.37        15.82239
243.83        5.976667
244.28       0.9691123
244.74        4.906306
245.20        12.70586
245.66        19.24786
246.11         20.2215
246.57        14.90359
247.03        4.731763
247.48       -9.663552
247.94       -27.64811
248.40       -54.20697
248.85       -115.6574
249.31       -306.7917
249.77       -496.1684
250.22       -218.0861
250.68       -91.35905
251.14       -46.68962
251.59       -29.44515
252.05       -21.33742
252.51       -14.54122
252.96       -9.034167
253.42       -6.813387
253.88       -7.850868
254.33       -9.650876
254.79       -4.403737
255.25        11.27308
255.70        29.63777
256.16        44.81152
256.62        55.06655
257.07        59.83133
257.53        61.27678
257.99        61.16483
258.44        60.02459
258.90        58.88522
259.35        57.54352
259.81        56.29807
260.27        55.32836
260.72        54.94226
261.18        55.23804
261.63        55.62477
262.09        55.85389
262.55         55.2649
263.00        53.86333
263.46        52.16376
263.91        50.37934
264.37        49.21788
264.83        48.64761
265.28        48.37425
265.74        48.23621
266.19        47.82044
266.65        47.11828
267.11        46.20457
267.56        45.14542
268.02        44.12578
268.47        43.15133
268.93        42.21207
269.38        41.24151
269.84        40.21483
270.30        39.12399
270.75        37.99985
271.21        36.95199
271.66        36.06761
272.12        35.38591
272.57        34.84565
273.03        34.36342
273.48        33.76861
273.94        33.05678
274.39        32.25362
274.85        31.47554
275.31         30.8251
275.76        30.32225
276.22        29.96165
276.67         29.6765
277.13        29.45538
277.58        29.23569
278.04        29.04225
278.49        28.82771
278.95        28.61256
279.40        28.34394
279.86        28.04728
280.31        27.66766
280.77        27.21909
281.22        26.68646
281.68        26.15709
282.13        25.63009
282.59        25.18055
283.04        24.80291
283.50        24.49894
283.95        24.30726
284.41        24.31553
284.86        24.49554
285.32         24.8164
285.77        25.11565
286.22        25.17833
286.68        24.99603
287.13        24.60761
287.59         24.2174
288.04        24.02987
288.50        24.07312
288.95        24.39284
289.41        24.89959
289.86        24.97567
290.32        24.51129
290.77        25.45741
291.22        24.68734
291.68        24.88656
292.13        25.14713
292.59        25.52916
293.04        26.01644
293.50        26.66157
293.95        27.47941
294.40        28.43476
294.86        29.48708
295.31        30.55662
295.77        31.61851
296.22        32.67452
296.68        33.75295
297.13        34.89359
297.58        36.12047
298.04        37.41894
298.49        38.77933
298.95        40.20743
299.40         41.6777
299.85        43.19806
300.31        44.73118
300.76        46.19544
301.21        47.59017
301.67         48.9579
302.12        50.34641
302.58         51.9303
303.03        53.70376
303.48        55.65613
303.94        57.69094
304.39        59.60714
304.84         61.3644
305.30        63.02722
305.75        64.64021
306.20        66.37843
306.66        68.26349
307.11        70.17729
307.57        72.04744
308.02        73.70079
308.47        75.12592
308.93        76.42322
309.38        77.60583
309.83        78.73612
310.29        79.92396
310.74        81.06623
311.19        82.20966
311.65        83.38126
312.10        84.55889
312.55        85.73737
313.00        86.86433
313.46        87.85497
313.91        88.67389
314.36        89.35507
314.82        89.94404
315.27          90.511
315.72        91.09014
316.18        91.66461
316.63         92.2327
317.08        92.79405
317.53        93.33701
317.99        93.85818
318.44        94.33449
318.89         94.7109
319.35        94.97845
319.80        95.16437
320.25        95.29874
320.70        95.43819
321.16        95.59863
321.61        95.78596
322.06        96.00385
322.51        96.26226
322.97        96.54412
323.42         96.8796
323.87        97.22591
324.32        97.52681
324.78        97.74789
325.23        97.93176
325.68        98.09265
326.13        98.28964
326.59        98.51339
327.04        98.79436
327.49        99.08127
327.94        99.32085
328.39        99.50168
328.85        99.61945
329.30        99.75792
329.75        99.93187
330.20        100.1528
330.66        100.3665
331.11         100.635
331.56        100.9328
332.01        101.2549
332.46        101.6128
332.92        101.9109
333.37        102.1216
333.82        102.1962
334.27        102.1653
334.72        102.1609
335.17        102.4043
335.63         102.915
336.08        103.6812
336.53        104.5229
336.98        105.1808
337.43        105.5705
337.88         105.754
338.34        105.8106
338.79        105.9363
339.24        106.1734
339.69        106.4781
340.14        106.8046
340.59        107.0878
341.05        107.3156
341.50        107.5269
341.95        107.7741
342.40        108.1336
342.85        108.6144
343.30        109.1796
343.75        109.7355
344.20        110.1467
344.66        110.3842
345.11        110.4581
345.56        110.4616
346.01        110.5435
346.46        110.7408
346.91        111.0078
347.36        111.2355
347.81        111.2907
348.26        111.1613
348.72        110.7912
349.17        110.5313
349.62         110.428
350.07        110.5898
350.52        110.9234
350.97         111.288
351.42        111.4517
351.87        111.3414
352.32        111.0326
352.77        110.5977
353.22        110.1452
353.67        109.7236
354.13        109.3234
354.58        108.9296
355.03        108.5761
355.48        108.2641
355.93        107.9848
356.38        107.7319
356.83         107.485
357.28        107.2163
357.73        106.9114
358.18        106.5079
358.63        105.9185
359.08        105.1454
359.53        104.2371
359.98        103.2843
360.43        102.4214
360.88        101.6843
361.33        101.0359
361.78        100.4524
362.23         99.8886
362.68        99.32319
363.13         98.7768
363.58         98.2077
364.03        97.54542
364.48        96.78382
364.93        95.93751
365.38        95.09093
365.83        94.39075
366.28        93.86296
366.73        93.45354
367.18        93.07318
367.63        92.57716
368.08        91.92823
368.53        91.18322
368.98        90.37581
369.43         89.5473
369.88        88.71999
370.33        87.87679
370.78        87.06438
371.23        86.38192
371.68        85.85181
372.13        85.44598
372.58         85.0957
373.03        84.67245
373.48        84.13486
373.93        83.52413
374.38        82.85036
374.83        82.14614
375.28        81.45029
375.72        80.74525
376.17        80.12793
376.62        79.67639
377.07        79.38051
377.52        79.19775
377.97        79.02327
378.42        78.68985
378.87        78.16525
379.32         77.5136
379.77        76.81314
380.22        76.16482
380.67           75.59
381.11        75.05924
381.56        74.55759
382.01        74.08397
382.46        73.64657
382.91        73.26431
383.36        72.91866
383.81        72.57077
384.26        72.20566
384.71        71.81805
385.15        71.42104
385.60        71.10213
386.05        70.84529
386.50        70.63127
386.95        70.39622
387.40        70.04809
387.85        69.59174
388.29        69.03713
388.74        68.55566
389.19        68.20435
389.64        67.98695
390.09        67.85147
390.54        67.75694
390.98        67.62415
391.43        67.46841
391.88        67.31075
392.33        67.12653
392.78        66.89416
393.23        66.62384
393.67        66.24236
394.12        65.91091
394.57        65.80772
395.02        65.89173
395.47        65.89526
395.91        65.76014
396.36        65.57312
396.81        65.33966
397.26        65.00632
397.71        64.61672
398.15        64.27863
398.60        64.08745
399.05        63.86263
399.50        63.66845
399.95        63.78166
400.39        64.09727
400.84        64.15297
401.29        63.90454
401.74        63.50021
402.18        63.06622
402.63        62.86177
403.08        62.84313
403.53        62.61845
403.97        62.17524
404.42        61.80173
404.87        61.57285
405.32        61.45573
405.76         61.4421
406.21        61.62312
406.66        61.85622
407.11        61.73695
407.55          61.318
408.00        61.05878
408.45        61.03083
408.90        60.88304
409.34        60.65378
409.79        60.68929
410.24          60.916
410.68        61.00987
411.13        60.93676
411.58        60.83134
412.03        60.70734
412.47        60.56588
412.92        60.40839
413.37        60.24925
413.81        60.10872
414.26        60.06681
414.71        60.11364
415.15        60.24305
415.60        60.38936
416.05        60.48611
416.49        60.50778
416.94        60.46009
417.39         60.3654
417.83        60.25623
418.28         60.1454
418.73        60.01478
419.17        59.86709
419.62        59.72221
420.07        59.58758
420.51        59.46555
420.96        59.36256
421.41        59.24961
421.85        59.10444
422.30        58.94594
422.74        58.79225
423.19        58.82429
423.64        59.01025
424.08        59.20072
424.53        59.29058
424.98        59.40567
425.42        59.55196
425.87         59.4595
426.31        59.24832
426.76        59.52749
427.21        60.15855
427.65        60.20961
428.10        59.70026
428.54        59.49702
428.99        59.65929
429.44        59.73299
429.88        59.66169
430.33        59.57774
430.77         59.4567
431.22        59.46736
431.66        59.58668
432.11         59.6743
432.56        59.77074
433.00        59.84113
433.45         59.6649
433.89        59.58268
434.34        59.85897
434.78        58.35785
435.23        59.28631
435.67        59.64676
436.12        59.86132
436.57        60.00019
437.01        59.91862
437.46        59.76889
437.90        60.17258
438.35        59.89636
438.79        59.91308
439.24        59.80859
439.68        59.83217
440.13        59.90683
440.57        59.99314
441.02        60.09076
441.46        60.14572
441.91        60.10324
442.35        59.97947
442.80        60.13537
443.24        60.48021
443.69        60.67247
444.13        60.64237
444.58        60.53151
445.02        60.39597
445.47        60.40446
445.91        60.60741
446.36        60.67136
446.80        60.60291
447.24        60.53633
447.69        60.50261
448.13        60.60265
448.58        60.63657
449.02        60.55653
449.47        60.35144
449.91        60.25062
450.36        60.28622
450.80        60.25788
451.25        60.19543
451.69        60.26926
452.13        60.43106
452.58        60.39093
453.02        60.15975
453.47        60.02289
453.91        59.98376
454.36        59.88865
454.80         59.7518
455.24        59.67968
455.69        59.69451
456.13        59.74653
456.58         59.7991
457.02        59.84239
457.46        59.58041
457.91        59.51926
458.35        59.64525
458.79         59.6289
459.24        59.51077
459.68        59.44392
460.13        59.47298
460.57        59.34217
461.01         59.0417
461.46        59.07375
461.90        59.01303
462.34        58.50878
462.79        58.77282
463.23        58.82054
463.68        58.97795
464.12        58.82491
464.56        58.47351
465.01        58.69058
465.45        59.20997
465.89        59.15643
466.34        58.64177
466.78        58.28752
467.22        58.18182
467.67        58.47729
468.11         58.4315
468.55        58.40813
468.99        58.20457
469.44        58.08586
469.88        58.04858
470.32        57.93465
470.77        57.70853
471.21        57.63404
471.65        57.70503
472.10        57.86732
472.54        58.01841
472.98        58.05186
473.42        57.95326
473.87        57.69409
474.31        57.36447
474.75        57.38565
475.20        57.67554
475.64        57.67362
476.08        57.41216
476.52        57.34645
476.97        57.45331
477.41        57.60486
477.85        57.75624
478.29        57.54611
478.74        57.28734
479.18        57.53602
479.62        57.73828
480.06        57.86952
480.50         57.6978
480.95        57.75931
481.39         58.0999
481.83        57.51428
482.27        58.09909
482.72        58.17713
483.16        58.02972
483.60        58.39089
484.04         58.4654
484.48        57.98097
484.93        57.42836
485.37        57.79209
485.81        58.55587
486.25        57.61356
486.69        58.20687
487.14        58.19415
487.58        58.21607
488.02        58.05427
488.46        57.89193
488.90        58.09156
489.34        57.48969
489.79        57.78025
490.23        58.08238
490.67        58.37665
491.11        58.44201
491.55        58.27888
491.99        57.99713
492.43        57.86831
492.88        57.93755
493.32        58.04381
493.76        58.09571
494.20        58.14899
494.64        58.20744
495.08        57.88408
495.52        57.83006
495.96        57.88136
496.41        58.12726
496.85        58.20063
497.29         58.0503
497.73        58.01199
498.17        57.83299
498.61         57.9742
499.05        58.26453
499.49        58.20543
499.93        57.85685
500.37        57.79074
500.82        58.06916
501.26        57.97049
501.70        58.46604
502.14        58.15533
502.58        57.95584
503.02        57.57544
503.46        57.92007
503.90        58.07356
504.34        58.15866
504.78        58.19214
505.22        58.16193
505.66        58.01213
506.10        57.80831
506.54        57.77498
506.98        57.95269
507.42        57.78095
507.86        58.37173
508.30        58.06292
508.74        58.25621
509.18        58.07646
509.62         57.9078
510.06        57.83273
510.50          57.855
510.94        57.86953
511.38        57.85072
511.82        57.85587
512.26        57.87431
512.70        57.87579
513.14        57.84572
513.58        57.78911
514.02        57.71127
514.46        57.58863
514.90        57.43811
515.34        57.46189
515.78        57.47347
516.22        57.56997
516.66        57.50991
517.10        57.86992
517.54        57.67974
517.98        57.70315
518.42        57.67654
518.86        57.64978
519.30        57.63207
519.74        57.58174
520.18        57.53529
520.62        57.61835
521.06        57.78943
521.50        57.82846
521.93        57.73242
522.37        57.67886
522.81        57.67443
523.25        57.61328
523.69        57.49894
524.13        57.39098
524.57        57.30045
525.01        57.21624
525.45        57.15993
525.89         57.1636
526.32        57.22621
526.76        57.34024
527.20        57.46957
527.64        57.55732
528.08        57.58622
528.52        57.57172
528.96        57.53084
529.40         57.4868
529.83        57.44681
530.27        57.42881
530.71        57.41887
531.15        57.39358
531.59        57.35121
532.03        57.30935
532.46        57.26612
532.90        57.22829
533.34        57.19483
533.78        57.16471
534.22        57.14419
534.66        57.14305
535.09        57.15318
535.53        57.18984
535.97        57.22798
536.41        57.24414
536.85        57.23411
537.28        57.20401
537.72        57.17302
538.16        57.17498
538.60         57.2132
539.04        57.27332
539.47         57.3211
539.91        57.35235
540.35        57.34807
540.79        57.32473
541.22        57.28436
541.66        57.24391
542.10        57.20605
542.54        57.16088
542.97        57.12761
543.41        57.16584
543.85        57.27457
544.29        57.44998
544.72        57.61197
545.16        57.68672
545.60        57.64716
546.04        57.44798
546.47        57.20896
546.91        57.25811
547.35        57.54286
547.79        57.73425
548.22        57.74234
548.66        57.59751
549.10        57.38139
549.53        57.33911
549.97         57.4699
550.41        57.48109
550.84        57.36335
551.28        57.33107
551.72        57.41028
552.15        57.43235
552.59        57.47812
553.03        57.60373
553.46        57.80209
553.90        57.61169
554.34        57.63179
554.77        57.55514
555.21        57.42405
555.65        57.30259
556.08        57.52654
556.52        57.79057
556.96        58.07887
557.39        58.13471
557.83        57.97567
558.27        57.79988
558.70        57.68023
559.14        57.59549
559.57        57.56543
560.01        57.71688
560.45        57.92537
560.88        57.90845
561.32        57.72797
561.75        57.47502
562.19        57.30437
562.63        57.50752
563.06        57.95918
563.50         58.0651
563.93        57.80974
564.37        57.67322
564.80        57.68415
565.24        57.74072
565.68        57.81952
566.11        57.84767
566.55        57.83837
566.98        57.90614
567.42        58.04239
567.85         58.0099
568.29        57.87643
568.72        57.88857
569.16        58.10897
569.60        58.10323
570.03        58.13893
570.47        58.29082
570.90        58.56812
571.34        58.18424
571.77        58.51708
572.21        58.00412
572.64        58.44525
573.08        58.25206
573.51        58.22004
573.95        58.69685
574.38        58.81976
574.82        59.03578
575.25        58.64452
575.69        58.92883
576.12        58.38376
576.56        58.42266
576.99        58.59628
577.42        58.56691
577.86        58.68378
578.29        58.77306
578.73        59.38521
579.16         58.5913
579.60        58.83058
580.03        58.51721
580.47        58.52069
580.90        58.60868
581.33        58.61811
581.77        58.95411
582.20        58.92199
582.64        58.88438
583.07         58.6079
583.51        58.47245
583.94         58.2719
584.37        58.42174
584.81        58.16203
585.24         58.2108
585.68        58.69095
586.11        58.51195
586.54        58.57458
586.98         58.2966
587.41        58.60378
587.85        58.71887
588.28        58.61197
588.71        58.44754
589.15        58.57001
589.58         58.2787
590.01        58.12612
590.45         58.1572
590.88        58.31919
591.31        57.95091
591.75        57.72925
592.18        57.68544
592.61        58.01612
593.05        58.23114
593.48        58.66006
593.91        58.57839
594.35        58.51543
594.78        58.52835
595.21        58.36324
595.65        58.37294
596.08        58.40068
596.51        58.51809
596.94        58.34882
597.38        58.30234
597.81        58.31669
598.24        58.40562
598.68        58.17354
599.11        58.34956
599.54        58.73669
599.97        58.50379
600.41        58.57019
600.84         59.0297
601.27         58.8922
601.70        58.51883
602.14        58.29171
602.57        58.20691
603.00        58.38393
603.43        58.78164
603.87        58.77666
604.30        58.61831
604.73        58.60539
605.16        58.51979
605.60        58.72198
606.03        58.82611
606.46        58.82949
606.89        58.86187
607.32        58.53415
607.76        58.89894
608.19        58.76241
608.62        58.96652
609.05        59.53357
609.48        59.01934
609.92        58.88652
610.35         59.0127
610.78        59.14193
611.21        58.91362
611.64        58.97114
612.07        58.89452
612.50        58.93751
612.94        58.92066
613.37        58.85287
613.80         59.1013
614.23        58.98103
614.66        59.02235
615.09        59.01537
615.52        58.94252
615.96        58.82281
616.39        58.74987
616.82        58.74102
617.25        58.71965
617.68        58.74763
618.11        58.76276
618.54        58.88421
618.97        58.95848
619.40        59.06181
619.84         58.5522
620.27        58.74733
620.70        58.68013
621.13        58.73997
621.56        58.82728
621.99        58.92141
622.42        59.02907
622.85        59.12058
623.28        58.79609
623.71        59.20741
624.14        58.86335
624.57        58.84676
625.00         59.2182
625.43        58.71796
625.86        58.81467
626.29        59.06165
626.72        58.85331
627.15        58.90442
627.58        58.81789
628.01        59.01701
628.44          58.664
628.87        58.50749
629.30        59.04192
629.73        58.84011
630.16        58.88035
630.59        58.71766
631.02        58.95889
631.45        58.75275
631.88        58.76798
632.31         58.7854
632.74        58.51854
633.17         58.5856
633.60        58.51387
634.03        58.49393
634.46         58.5531
634.89        58.57656
635.32        58.60039
635.75        58.57925
636.18        58.53334
636.61        58.47518
637.04        58.42911
637.47        58.40445
637.89        58.39929
638.32        58.40492
638.75        58.41407
639.18        58.42066
639.61        58.46095
640.04        58.53487
640.47        58.46161
640.90        58.52256
641.33          58.488
641.76        58.45394
642.18        58.43849
642.61        58.43644
643.04        58.44999
643.47        58.46016
643.90        58.44761
644.33        58.40979
644.76         58.3413
645.18        58.27505
645.61        58.28772
646.04        58.37123
646.47        58.44016
646.90        58.47384
647.33        58.49278
647.75          58.485
648.18         58.4622
648.61        58.44122
649.04        58.39809
649.47        58.32727
649.89        58.50608
650.32        58.33144
650.75        58.51672
651.18        58.77977
651.61        58.77417
652.03        58.54069
652.46        58.31449
652.89         58.1998
653.32        58.37346
653.74        58.76253
654.17        58.59306
654.60        58.40817
655.03         58.2431
655.46        58.49088
655.88        58.87683
656.31        59.58587
656.74        62.26918
657.16        61.21061
657.59        59.86064
658.02        58.26214
658.45        58.42459
658.87        58.95317
659.30        59.22122
659.73         58.9142
660.15        58.29014
660.58        58.98029
661.01         59.3144
661.44        59.58389
661.86        59.34107
662.29        58.72073
662.72        58.45565
663.14         58.6079
663.57        58.73059
664.00        58.76549
664.42        58.84393
664.85        58.95324
665.27        58.94524
665.70        59.00036
666.13         58.9665
666.55        58.90887
666.98        58.81477
667.41        58.72217
667.83        58.70276
668.26        58.77737
668.69        58.87391
669.11        58.93608
669.54         59.0804
669.96         59.3373
670.39        58.88626
670.82         59.1651
671.24        59.08789
671.67        59.07627
672.09        59.01307
672.52        58.94231
672.94         58.9888
673.37        59.09762
673.80        59.01092
674.22        58.78174
674.65        58.69737
675.07        58.79938
675.50        58.90477
675.92        58.99307
676.35        59.08867
676.77        59.17356
677.20        59.25616
677.62        59.33958
678.05        59.34298
678.47        59.25016
678.90        59.37485
679.32        59.22418
679.75        59.23113
680.17         59.2408
680.60        59.37185
681.02        59.40057
681.45        59.43502
681.87        59.41104
682.30        59.36494
682.72        59.32926
683.15        59.25159
683.57         59.1557
684.00        59.31322
684.42        59.31953
684.85        59.37284
685.27         59.3415
685.70        59.30405
686.12        59.26326
686.54        59.23605
686.97        59.22535
687.39        59.24907
687.82        59.30392
688.24        59.36194
688.66         59.3965
689.09        59.63173
689.51        59.60328
689.94         59.7191
690.36        59.80741
690.78        59.74651
691.21        59.58084
691.63        59.45718
692.06        59.44415
692.48        59.57558
692.90        59.79198
693.33        59.90715
693.75        59.90503
694.17         59.8386
694.60        59.72568
695.02        59.79193
695.44        59.78079
695.87        59.69308
696.29        59.52706
696.71        59.56283
697.14        59.77729
697.56        59.99356
697.98        60.15445
698.41        60.13241
698.83         60.2228
699.25        60.13065
699.68        59.97625
700.10        59.84459
700.52        59.76122
700.94        59.70172
701.37        59.65977
701.79        59.67397
702.21        59.72404
702.64        59.81362
703.06        59.91186
703.48        59.97275
703.90        59.98755
704.33        59.96105
704.75        59.91665
705.17        59.87684
705.59        59.85275
706.01        59.83631
706.44        59.83294
706.86        59.86828
707.28        59.93101
707.70        60.01784
708.12        60.11312
708.55        60.18012
708.97        60.20464
709.39        60.20539
709.81        60.19212
710.23        60.18848
710.66        60.20421
711.08        60.23894
711.50        60.27795
711.92        60.31559
712.34        60.34844
712.76        60.37841
713.19        60.39194
713.61        60.41026
714.03        60.41374
714.45        60.41753
714.87        60.43183
715.29        60.43073
715.71        60.40873
716.13        60.52621
716.56        60.48523
716.98        60.55227
717.40        60.62457
717.82         60.7034
718.24        60.77175
718.66        60.80785
719.08        60.81039
719.50        60.78483
719.92        60.74754
720.34        60.72368
720.76        60.72173
721.19        60.72812
721.61        60.75604
722.03        60.79652
722.45        60.84717
722.87        60.91226
723.29        60.98342
723.71        61.04571
724.13        61.09564
724.55        61.13115
724.97        61.16732
725.39        61.23278
725.81        61.32772
726.23        61.43638
726.65        61.52942
727.07        61.56604
727.49        61.54105
727.91        61.46244
728.33        61.35292
728.75        61.28672
729.17        61.26733
729.59        61.19949
730.01        61.11358
730.43        61.17028
730.85        61.37776
731.27        61.57575
731.69        61.68034
732.10        61.92789
732.52        61.84712
732.94        61.59109
733.36        61.14693
733.78         60.9038
734.20        60.92547
734.62        61.03619
735.04        61.18715
735.46        61.34754
735.88        61.48815
736.30        61.62236
736.72        61.71781
737.13        61.76349
737.55        61.71855
737.97        61.51824
738.39        61.26476
738.81        61.28636
739.23        61.55885
739.65        61.71377
740.06         61.6704
740.48         61.7002
740.90        61.76261
741.32        61.69949
741.74        61.56543
742.16        61.55233
742.57        61.69987
742.99        61.93393
743.41        62.17261
743.83        62.27178
744.25        62.20046
744.67        61.99749
745.08        61.79243
745.50        61.75642
745.92         61.9437
746.34        62.29815
746.75        62.66555
747.17        62.79553
747.59        62.63469
748.01        62.23128
748.42        61.76851
748.84        61.56382
749.26         61.6554
749.68        61.91267
750.09        62.19114
750.51        62.16955
750.93        61.90897
751.35        61.91362
751.76        62.17823
752.18        62.26731
752.60        62.17175
753.01        62.17457
753.43        62.23041
753.85        62.17926
754.27        62.01853
754.68        61.80519
755.10         61.6169
755.52        61.54776
755.93        61.61753
756.35        61.79461
756.77        62.02466
757.18        62.18618
757.60        62.24958
758.02        62.27601
758.43        62.30515
758.85        62.08237
759.26        62.42115
759.68        62.12436
760.10        62.12902
760.51        61.82708
760.93        62.23532
761.34        62.05783
761.76        62.31834
762.18          62.476
762.59        62.72657
763.01        62.72003
763.42        62.41374
763.84        62.52123
764.26        62.65036
764.67        62.82671
765.09        62.91711
765.50        63.07068
765.92        63.21977
766.33        63.07926
766.75        62.69361
767.16        62.40491
767.58        62.27488
768.00        62.50456
768.41         63.0136
768.83        63.06485
769.24        62.64389
769.66        62.98265
770.07        63.07846
770.49        62.96278
770.90        62.47083
771.32        62.41119
771.73         62.7688
772.15        62.92585
772.56        62.87716
772.97        62.94974
773.39        63.11492
773.80        63.22915
774.22        63.24704
774.63        63.23119
775.05        63.17513
775.46        63.12039
775.88        63.06279
776.29        63.01565
776.70        62.96833
777.12        62.92238
777.53        62.89664
777.95        62.88264
778.36        62.89042
778.77        62.92693
779.19         62.9888
779.60        63.07914
780.02        63.16969
780.43        63.23703
780.84        63.27465
781.26        63.26212
781.67         63.2583
782.09        63.32306
782.50         63.4492
782.91         63.5998
783.33        63.72213
783.74        63.81435
784.15        63.82491
784.57        63.77121
784.98        63.70748
785.39        63.70372
785.81        63.77704
786.22         63.8974
786.63        64.03348
787.04        64.13816
787.46        64.20526
787.87        64.23057
788.28        64.22884
788.70        64.19841
789.11        64.12819
789.52        64.06868
789.93        64.04264
790.35        63.98938
790.76        63.96965
791.17        64.17768
791.58        64.54014
792.00        64.72725
792.41        64.72379
792.82        64.68867
793.23        64.70353
793.65        64.72287
794.06         64.7911
794.47        65.11607
794.88        65.61462
795.29        65.46664
795.71        65.63461
796.12        65.46291
796.53         65.2914
796.94        65.11951
797.35        65.00515
797.76        65.02386
798.18        65.12212
798.59        65.14005
799.00         65.0518
799.41        64.95132
799.82        64.86567
800.23        64.80534
800.64        64.78471
801.06        64.77499
801.47        64.81834
801.88        64.91272
802.29        65.05255
802.70        65.23015
803.11        65.40829
803.52        65.52419
803.93        65.56115
804.34        65.52971
804.75        65.46786
805.17         65.4445
805.58        65.50558
805.99        65.58337
806.40         65.6517
806.81        65.74806
807.22        65.81493
807.63        65.68207
808.04        65.42333
808.45        65.33207
808.86        65.44541
809.27         65.6152
809.68        65.77636
810.09        65.87473
810.50        65.87934
810.91        65.80778
811.32        65.70023
811.73        65.62434
812.14         65.6008
812.55         65.6063
812.96        65.62715
813.37        65.63879
813.78        65.63515
814.19        65.63853
814.60        65.63886
815.01        65.61552
815.42        65.56943
815.83        65.49674
816.24        65.45148
816.65        65.53042
817.05        65.75488
817.46        66.07017
817.87        66.39067
818.28        66.54951
818.69         66.5147
819.10         66.3204
819.51        66.09666
819.92        66.07836
820.33        66.31902
820.74        66.73769
821.14        67.16024
821.55         67.3384
821.96        67.20238
822.37        66.83117
822.78        66.36319
823.19        66.04433
823.60        65.95863
824.00        66.04827
824.41        66.19328
824.82        66.25379
825.23        66.18156
825.64        66.04568
826.04        65.90178
826.45        65.78725
826.86        65.74027
827.27        65.74016
827.68        65.80346
828.08        65.98949
828.49        66.22077
828.90        66.51419
829.31        66.83662
829.72        67.03919
830.12        67.09686
830.53         67.3979
830.94        67.21211
831.35        67.01943
831.75        66.64341
832.16        66.10519
832.57        65.61433
832.97        65.51129
833.38        65.85103
833.79        66.51361
834.20        67.25038
834.60        67.68231
835.01        67.71395
835.42        67.45361
835.82        67.05074
836.23        66.72496
836.64        66.58424
837.04        66.57236
837.45        66.62706
837.86        66.70782
838.26        66.79946
838.67        66.91758
839.08        67.06203
839.48        67.20353
839.89        67.32428
840.29        67.41679
840.70        67.48978
841.11        67.56731
841.51        67.66943
841.92        67.75711
842.33        67.82552
842.73        67.86497
843.14        67.83002
843.54        67.75692
843.95        67.66884
844.35        67.62526
844.76        67.63193
845.17         67.6826
845.57        67.75277
845.98        67.76495
846.38        67.73266
846.79        67.65453
847.19         67.6009
847.60        67.60561
848.00         67.7137
848.41        67.87534
848.81         68.0919
849.22        68.29263
849.62        68.48515
850.03        68.63623
850.43        68.77163
850.84        68.83356
851.24        68.86316
851.65        68.79861
852.05        68.70686
852.46         68.6115
852.86         68.5326
853.27        68.51903
853.67        68.45713
854.07        68.31688
854.48        68.06368
854.88         67.7324
855.29        67.39246
855.69         67.3384
856.10        67.53957
856.50        68.00566
856.90        68.47921
857.31        68.57362
857.71        68.25256
858.12        67.57644
858.52         66.7934
858.92        66.26558
859.33        66.10439
859.73        66.25905
860.13         66.5872
860.54        66.84605
860.94        67.00671
861.34        67.09022
861.75        67.12271
862.15        67.22034
862.55        67.36402
862.96        67.48774
863.36        67.53741
863.76        67.39281
864.17        67.03645
864.57        66.55051
864.97        66.02612
865.38        65.59258
865.78        65.34668
866.18        65.26131
866.58        65.34272
866.99        65.55685
867.39        65.89722
867.79        66.33269
868.19        66.78146
868.60        67.04057
869.00        67.15017
869.40        67.32309
869.80         67.4929
870.21        67.35702
870.61        66.96175
871.01        66.46401
871.41        65.99307
871.81        65.64376
872.22        65.46845
872.62        65.45177
873.02        65.56428
873.42         65.9044
873.82        66.24841
874.22        66.11277
874.63        65.73167
875.03         65.5896
875.43        65.75228
875.83        66.90285
876.23        66.43902
876.63        65.82029
877.03        64.79671
877.44        62.81071
877.84        166.1897
878.24        63.96967
878.64        64.94259
879.04         66.6425
879.44         67.3435
879.84        64.33388
880.24        68.87897
880.64        68.83366
881.04        66.30633
881.44        64.38189
881.84        63.67132
882.24        64.25885
882.65        65.46296
883.05        65.80458
883.45        64.98978
883.85        63.90377
884.25        63.03604
884.65        62.76898
885.05        63.22836
885.45        64.16573
885.85        65.21684
886.25        65.89828
886.65        66.07971
887.05        65.93137
887.45        65.54523
887.85         65.0731
888.25        64.62085
888.65        64.14333
889.04        63.80031
889.44        63.86996
889.84         64.3615
890.24        65.16544
890.64        66.01766
891.04        66.51717
891.44        66.57764
891.84        66.32779
892.24        65.88003
892.64        65.44682
893.04        65.13895
893.44        64.90392
893.83        64.83297
894.23         65.0353
894.63        65.51061
895.03        66.22888
895.43        67.00034
895.83        67.48627
896.23        67.59978
896.63        67.42678
897.02        67.11642
897.42        66.97125
897.82        67.03207
898.22        67.20327
898.62        67.39667
899.01        67.48089
899.41        67.39311
899.81        67.21345
900.21        66.95623
900.61        66.63177
901.00        66.25537
901.40        65.88925
901.80        65.62172
902.20        65.46022
902.59         65.4016
902.99        65.69984
903.39        66.36624
903.79        65.83649
904.18        66.55508
904.58         66.5321
904.98          66.495
905.38        66.36983
905.77        66.16028
906.17        65.89751
906.57        65.59197
906.96        65.36923
907.36        65.25857
907.76        65.25416
908.15        65.36639
908.55        65.45589
908.95        65.54068
909.34        65.60909
909.74        65.71343
910.14        65.89624
910.53        66.15054
910.93        66.42702
911.33        66.63351
911.72        66.62748
912.12        66.39788
912.52        66.01193
912.91        65.54778
913.31        65.21378
913.70        65.04234
914.10        64.96946
914.49        65.00842
914.89        65.09241
915.29        65.21061
915.68        65.36812
916.08        65.50363
916.47         65.4611
916.87        65.26442
917.26        64.97196
917.66        64.70001
918.05        64.66721
918.45        64.89359
918.84        65.28018
919.24        65.77741
919.64        66.35996
920.03        66.96937
920.42         67.6032
920.82        68.02222
921.21        67.86331
921.61        67.13427
922.00        66.02898
922.40        65.04583
922.79        64.85849
923.19        65.23948
923.58        66.79713
923.98        69.40144
924.37         70.1685
924.77        67.76809
925.16        74.56459
925.55        68.55221
925.95        68.45335
926.34        68.06422
926.74        67.13281
927.13        65.68214
927.52         64.9311
927.92        65.34607
928.31        66.26369
928.70        67.39669
929.10        68.24199
929.49        68.69086
929.89        68.90959
930.28        68.83833
930.67        68.29198
931.07        67.33392
931.46         65.9138
931.85         64.5553
932.24        64.57957
932.64        66.15595
933.03        68.31169
933.42        69.95237
933.82        72.48407
934.21        70.91583
934.60        69.20963
934.99        67.33471
935.39        66.77582
935.78        67.71141
936.17        70.24928
936.56        76.67974
936.96        70.91666
937.35        74.28694
937.74        71.15961
938.13        68.64196
938.53         66.6056
938.92        65.86018
939.31         66.8347
939.70        68.29747
940.09        68.98158
940.49        68.59776
940.88        67.60246
941.27        66.49329
941.66        66.17212
942.05        66.90738
942.44        68.27827
942.84        69.68962
943.23        70.43302
943.62         70.3222
944.01        69.57114
944.40        68.59395
944.79        68.08905
945.18         68.2588
945.57         68.8971
945.97        69.55762
946.36        69.65285
946.75        69.00916
947.14        67.84724
947.53        66.62131
947.92        66.09571
948.31         66.4632
948.70          67.442
949.09        68.58067
949.48        69.19393
949.87        69.11427
950.26        68.58743
950.65        67.85625
951.04        67.31794
951.43        67.11314
951.82        67.06989
952.21        67.20187
952.60        67.54686
952.99         68.0377
953.38        68.67602
953.77        69.19153
954.16        69.15833
954.55        68.53705
954.94        67.45799
955.33        66.28114
955.72        65.69987
956.11        65.93069
956.50        66.74728
956.89        67.87331
957.28        68.83661
957.66        69.48877
958.05        69.91022
958.44        70.07127
958.83        69.91322
959.22        69.45926
959.61        68.65286
960.00        67.76504
960.39        67.35883
960.78        67.57677
961.16        68.30934
961.55        69.03584
961.94        69.09693
962.33        68.37603
962.72         67.0445
963.11         65.5303
963.49        64.75092
963.88        65.01265
964.27        65.98993
964.66        67.18118
965.04          67.909
965.43        67.95599
965.82        67.58736
966.21        66.99204
966.60        66.50053
966.98        66.25971
967.37        66.13763
967.76        66.15262
968.15         66.3489
968.53        66.72637
968.92        67.28444
969.31         67.8732
969.69        68.21207
970.08        68.20097
970.47        67.87661
970.86        67.46391
971.24        67.37932
971.63        67.69506
972.02        68.29109
972.40        68.87183
972.79        68.90869
973.17        68.36994
973.56        67.42913
973.95        66.44756
974.33        66.06059
974.72        66.43813
975.11        67.34258
975.49        68.53944
975.88        69.56398
976.26        70.30283
976.65         70.8077
977.04        71.03583
977.42        70.89023
977.81        70.34427
978.19        69.34272
978.58        68.35858
978.96        68.21626
979.35        69.05712
979.74        70.57903
980.12        72.12434
980.51        72.67223
980.89        72.20559
981.28        70.89639
981.66        69.22205
982.05        68.39127
982.43        68.84607
982.82        70.24106
983.20        71.95268
983.59        73.01826
983.97        73.22466
984.35        72.81561
984.74        72.01933
985.12        71.33883
985.51        70.94402
985.89        70.75623
986.28        70.65967
986.66        70.55347
987.04        70.44565
987.43        70.30526
987.81        70.01199
988.20        70.70477
988.58        72.53049
988.96        72.90595
989.35        71.07937
989.73        76.55185
990.12        73.13017
990.50        73.23639
990.88        72.66991
991.27        72.30782
991.65        72.17961
992.03        72.36031
992.42        72.78471
992.80        72.80489
993.18        72.29003
993.56        71.46456
993.95        70.52788
994.33        69.76115
994.71        69.29839
995.10        69.04377
995.48        69.03511
995.86        69.32193
996.24        69.85529
996.63        70.52275
997.01        71.25069
997.39        71.71426
997.77        71.81718
998.15        71.61932
998.54        71.24578
998.92        70.80686
999.30        70.41331
999.68        70.07978
1000.06        69.82059
1000.45        69.62786
1000.83        69.61346
1001.21        69.75589
1001.59         70.1592
1001.97        70.94156
1002.35        72.00801
1002.73         73.2071
1003.12        74.24825
1003.50         74.8376
1003.88        74.93087
1004.26        74.61977
1004.64        74.08064
1005.02        73.69746
1005.40         73.6283
1005.78        73.77453
1006.16         74.0139
1006.54        74.10502
1006.92        73.98336
1007.30        73.78865
1007.69        73.52209
1008.07        73.25966
1008.45        72.99844
1008.83        72.68204
1009.21        72.49941
1009.59        72.84286
1009.97        73.70605
1010.35        74.81913
1010.73        75.79057
1011.11        76.44493
1011.49        76.89692
1011.86        76.87679
1012.24        76.26123
1012.62        78.06742
1013.00         79.2724
1013.38        79.64851
1013.76          77.771
1014.14        81.35768
1014.52        86.63266
1014.90        78.07806
1015.28        78.12563
1015.66        79.17624
1016.04        75.72803
1016.41        77.38332
1016.79        78.03287
1017.17        78.31406
1017.55        77.44233
1017.93        75.90837
1018.31        74.72569
1018.69         75.0528
1019.06        77.13096
1019.44         80.2763
1019.82        83.24888
1020.20        84.52011
1020.58        83.76125
1020.95        81.02554
1021.33         76.9538
1021.71         74.0781
1022.09        74.03633
1022.46        75.95564
1022.84        78.18467
1023.22        79.36459
1023.60        79.45338
1023.97        78.92531
1024.35        78.28555
1024.73        78.44421
