SpectraSmart Spectrum 2.9.0.0
--------- Device Information -----------
Spectrum Name :  反射率_0
Saving Time :  2024/04/21 00:23:11
Spectro-Module Model Name : SE2030-DUVN
Spectro-Module Serial Number : OS361AC55029948
Wavelength Start : 200
Wavelength End : 1025
Wavelength Unit : Wavelength(nm)
Spectrum Unit : Reflectance(%)
-----------Spectrum Setting ------------
Integration Time : 20ms
Average : 10
Boxcar : 0
Background removal :  enabled
linearity correction :  enabled
SC :  disabled
Intensity correction :  disabled
DWT denoise :  enabled
savitzky-golay :  disabled
FFT :  disabled
Running average :  disabled
Kalman :  disabled
High pass :  disabled
---------------BEGIN--------------------
Wavelength(nm)             Reflectance(%)
200.29               0
200.75        27.36562
201.21        46.78151
201.67        55.67468
202.13        57.05607
202.58        53.57691
203.04        47.12139
203.50        38.83723
203.96        33.14117
204.42          32.432
204.88        34.12789
205.34        37.58323
205.80        42.15642
206.26        47.70949
206.72        56.65627
207.18        63.20633
207.64        53.28153
208.10        23.94572
208.55       -18.08338
209.01       -45.96571
209.47       -27.56464
209.93        8.824064
210.39        39.69662
210.85        60.61598
211.31        72.11557
211.77        77.88358
212.23        81.09569
212.69        80.78768
213.14        71.78158
213.60        38.04472
214.06       -90.21958
214.52       -460.2053
214.98       -230.2411
215.44       -45.91445
215.90        21.15448
216.36        45.82613
216.81        52.98519
217.27        50.02742
217.73        21.40868
218.19        398.6788
218.65        213.0237
219.11       -391.5757
219.57        11.18158
220.02        37.10328
220.48        40.53907
220.94        35.58739
221.40        20.40683
221.86        -13.2373
222.32       -28.86769
222.77         7.77154
223.23        36.22223
223.69        49.54139
224.15        53.14499
224.61        51.61039
225.06        47.38987
225.52        41.54828
225.98         35.5453
226.44        30.36154
226.90        24.73318
227.36        21.72516
227.81        26.29976
228.27        35.13036
228.73        44.10147
229.19          49.723
229.65        50.13321
230.10        46.06844
230.56        38.65802
231.02        29.24594
231.48         23.4578
231.93        24.96795
232.39        31.39676
232.85        38.41495
233.31         42.5624
233.77        44.05492
234.22        44.44405
234.68        44.01048
235.14        43.16377
235.60        42.40101
236.05        40.91359
236.51        39.07831
236.97        42.38163
237.43        51.15957
237.88        57.52056
238.34         58.4236
238.80        74.16223
239.26        67.52067
239.71        65.48449
240.17         58.3794
240.63        50.92776
241.08        46.81135
241.54        48.30974
242.00        55.95381
242.46         62.4417
242.91         66.2501
243.37        68.64149
243.83        70.04804
244.28        71.11538
244.74        71.71029
245.20        70.63766
245.66        67.40859
246.11        61.57343
246.57        52.96631
247.03        42.09952
247.48        28.89501
247.94        12.52925
248.40       -12.16957
248.85       -69.01482
249.31       -241.1848
249.77       -384.9367
250.22       -123.8097
250.68       -12.41974
251.14        24.72778
251.59        37.56654
252.05         41.9749
252.51        42.69427
252.96        41.15371
253.42        41.91803
253.88        46.94549
254.33        53.41123
254.79        60.28014
255.25          65.508
255.70        68.59251
256.16        70.70643
256.62        72.09055
257.07        72.91541
257.53        73.80595
257.99        74.43858
258.44        74.39411
258.90        74.12299
259.35        73.14081
259.81        72.06368
260.27        70.86921
260.72        69.64656
261.18        68.81145
261.63        67.94086
262.09         67.1294
262.55         65.9149
263.00        64.24516
263.46         62.5343
263.91        60.85676
264.37        59.82662
264.83        59.34805
265.28        59.12927
265.74        59.03451
266.19        58.62456
266.65        57.90628
267.11        56.94188
267.56        55.76739
268.02        54.54652
268.47        53.28777
268.93        52.00746
269.38        50.71004
269.84        49.48778
270.30        48.34918
270.75        47.28656
271.21        46.32891
271.66        45.42544
272.12        44.58862
272.57        43.79248
273.03        43.01929
273.48        42.17646
273.94        41.28828
274.39        40.34425
274.85        39.43639
275.31        38.62251
275.76        37.90931
276.22        37.31552
276.67        36.79471
277.13        36.38074
277.58        36.00676
278.04        35.69849
278.49        35.36117
278.95        34.97021
279.40        34.46447
279.86        33.90152
280.31        33.27705
280.77        32.69614
281.22        32.14388
281.68        31.67401
282.13        31.21841
282.59        30.77112
283.04        30.30162
283.50        29.84746
283.95        29.47559
284.41         29.3273
284.86        29.38929
285.32         29.6244
285.77         29.8583
286.22        29.86915
286.68        29.64474
287.13        29.22024
287.59        28.80995
288.04         28.6268
288.50        28.69885
288.95        29.04909
289.41        29.56141
289.86        29.59896
290.32        29.06155
290.77        29.81257
291.22        28.95189
291.68        29.06719
292.13         29.3189
292.59         29.7459
293.04        30.33335
293.50        31.13391
293.95         32.1463
294.40        33.33075
294.86        34.60053
295.31        35.80234
295.77        36.89955
296.22        37.91375
296.68        38.92707
297.13        40.06237
297.58        41.36922
298.04        42.81293
298.49        44.35221
298.95        45.94234
299.40        47.53899
299.85         49.1637
300.31        50.79997
300.76        52.39117
301.21        53.94227
301.67        55.48723
302.12        57.04557
302.58        58.76239
303.03        60.63071
303.48        62.66621
303.94        64.81189
304.39        66.91702
304.84        68.95367
305.30        70.96698
305.75        72.97493
306.20        75.12275
306.66        77.42052
307.11        79.75042
307.57        82.03773
308.02        84.09132
308.47        85.91156
308.93        87.60669
309.38        89.20615
309.83        90.83132
310.29         92.5593
310.74        94.29025
311.19        96.05055
311.65        97.85234
312.10         99.6554
312.55        101.4571
313.00        103.1611
313.46        104.6154
313.91        105.7771
314.36        106.7036
314.82        107.5231
315.27         108.432
315.72        109.4963
316.18        110.6618
316.63        111.8505
317.08        112.9319
317.53        113.8529
317.99        114.6405
318.44        115.3229
318.89        115.9279
319.35        116.4686
319.80        116.9462
320.25        117.3456
320.70        117.6569
321.16        117.8803
321.61        118.0496
322.06        118.2249
322.51        118.5021
322.97        118.8852
323.42        119.3979
323.87        119.9326
324.32        120.3267
324.78        120.5201
325.23        120.5944
325.68        120.6523
326.13        120.9033
326.59        121.3643
327.04        122.0288
327.49        122.7276
327.94        123.2177
328.39        123.4338
328.85        123.4174
329.30        123.3728
329.75        123.4868
330.20        123.8319
330.66        124.3054
331.11        124.9034
331.56        125.4581
332.01        125.9195
332.46        126.3269
332.92        126.6591
333.37        127.0436
333.82        127.4487
334.27        127.8588
334.72        128.2634
335.17        128.6569
335.63        129.0057
336.08        129.3853
336.53        129.7985
336.98        130.3005
337.43        130.8943
337.88        131.5571
338.34        132.1901
338.79        132.7028
339.24        133.0406
339.69         133.247
340.14        133.4057
340.59        133.6545
341.05        134.0372
341.50        134.5279
341.95        135.0909
342.40        135.6674
342.85        136.2276
343.30        136.7829
343.75        137.3152
344.20        137.8011
344.66        138.2362
345.11        138.5819
345.56         138.852
346.01        139.0815
346.46        139.2886
346.91        139.4407
347.36        139.4898
347.81        139.4835
348.26        139.4506
348.72         138.955
349.17        138.9115
349.62        138.8116
350.07         138.933
350.52        139.2033
350.97         139.517
351.42        139.6834
351.87         139.633
352.32        139.4142
352.77        139.0918
353.22        138.7708
353.67        138.4778
354.13        138.1915
354.58        137.8354
355.03        137.3545
355.48         136.743
355.93        136.0374
356.38        135.3088
356.83          134.65
357.28        134.0755
357.73        133.5571
358.18        133.0202
358.63        132.3515
359.08        131.5354
359.53        130.6158
359.98        129.6786
360.43        128.8486
360.88        128.1448
361.33        127.5181
361.78        126.8923
362.23        126.1505
362.68        125.2667
363.13        124.2868
363.58         123.256
364.03        122.2426
364.48          121.27
364.93        120.3144
365.38        119.3814
365.83        118.4838
366.28        117.6182
366.73        116.7838
367.18         115.951
367.63        115.0685
368.08        114.1314
368.53        113.1646
368.98         112.188
369.43        111.2217
369.88        110.2691
370.33        109.3165
370.78        108.3868
371.23        107.5374
371.68        106.7892
372.13        106.1338
372.58         105.527
373.03        104.8816
373.48         104.165
373.93        103.3924
374.38        102.5936
374.83        101.8326
375.28        101.1378
375.72        100.4748
376.17        99.85873
376.62         99.2169
377.07        98.52319
377.52        97.78122
377.97        97.02827
378.42        96.34562
378.87         95.7664
379.32        95.27822
379.77        94.81715
380.22         94.2729
380.67        93.61308
381.11         92.8683
381.56        92.10186
382.01        91.45391
382.46        90.97253
382.91         90.6245
383.36        90.32112
383.81        89.92191
384.26        89.39283
384.71        88.77579
385.15        88.14252
385.60        87.67346
386.05        87.37046
386.50        87.17538
386.95        86.98771
387.40        86.66232
387.85        86.17927
388.29        85.55119
388.74        84.96973
389.19        84.46957
389.64        84.06226
390.09        83.71185
390.54        83.39173
390.98        83.04914
391.43         82.7194
391.88        82.40898
392.33          82.129
392.78         81.8711
393.23         81.6276
393.67        81.40063
394.12        81.25622
394.57        80.97895
395.02        80.61208
395.47        80.44026
395.91        80.41765
396.36        80.18674
396.81         79.7483
397.26         79.3218
397.71        78.95099
398.15        78.57596
398.60        78.29607
399.05        78.03923
399.50        77.82978
399.95        77.73154
400.39        77.70972
400.84        77.65456
401.29        77.52765
401.74        77.15664
402.18        76.65618
402.63        76.48823
403.08        76.59052
403.53        76.41733
403.97        75.94144
404.42         75.5097
404.87        75.19335
405.32        74.98763
405.76        74.90563
406.21         74.9353
406.66        74.98678
407.11        75.00771
407.55        74.96073
408.00        74.64104
408.45        74.17651
408.90        74.00245
409.34        74.11058
409.79         74.1452
410.24        74.04987
410.68        73.98139
411.13         73.9231
411.58        73.76595
412.03        73.54369
412.47        73.40009
412.92        73.33279
413.37        73.31567
413.81        73.30006
414.26        73.27022
414.71        73.19568
415.15        73.11166
415.60        73.00082
416.05        72.89632
416.49        72.81375
416.94        72.73507
417.39        72.66764
417.83        72.61766
418.28        72.58192
418.73        72.54521
419.17        72.49422
419.62        72.41856
420.07        72.32542
420.51        72.22393
420.96        72.12743
421.41        72.04849
421.85        71.97353
422.30        71.81149
422.74        71.61559
423.19        71.88108
423.64        72.46033
424.08        72.62103
424.53        72.29606
424.98        72.21713
425.42        72.43151
425.87        72.39129
426.31        72.16891
426.76        72.26805
427.21        72.62444
427.65        72.74717
428.10         72.5707
428.54        72.43396
428.99        72.38183
429.44        72.22723
429.88        72.01093
430.33        71.93596
430.77        71.97157
431.22         72.2308
431.66        72.59664
432.11        72.83073
432.56        72.91254
433.00        72.71499
433.45        72.11308
433.89        71.95631
434.34        72.48951
434.78        71.33845
435.23        71.61962
435.67        72.82043
436.12        72.54448
436.57        72.68221
437.01        72.39272
437.46        72.12188
437.90        72.66125
438.35         72.3205
438.79        72.57373
439.24        72.49168
439.68        72.44403
440.13        72.41712
440.57         72.4318
441.02        72.42242
441.46        72.39105
441.91        72.62702
442.35        72.93494
442.80        73.05871
443.24        72.96463
443.69        73.00404
444.13        73.13358
444.58        72.96172
445.02        72.56567
445.47         72.5332
445.91         72.8102
446.36        72.91847
446.80        72.82565
447.24         72.7203
447.69        72.66384
448.13        72.86166
448.58        73.05234
449.02        73.05437
449.47        72.82671
449.91        72.69371
450.36        72.68774
450.80        72.54649
451.25        72.33172
451.69         72.2809
452.13        72.36686
452.58        72.30315
453.02        72.07983
453.47        71.93184
453.91        71.85259
454.36         71.7175
454.80        71.53989
455.24        71.42805
455.69        71.41011
456.13         71.3935
456.58        71.36863
457.02        71.43466
457.46        71.21291
457.91        71.15742
458.35        71.23359
458.79        71.13557
459.24        70.89718
459.68        70.68385
460.13        70.61069
460.57        70.40951
461.01        70.06241
461.46        70.68532
461.90        70.37199
462.34        70.34543
462.79        70.24803
463.23        70.14581
463.68        70.35973
464.12        70.07764
464.56        69.55482
465.01        69.77574
465.45        70.45215
465.89         70.3855
466.34        69.66208
466.78        69.28474
467.22        69.37238
467.67         69.0042
468.11        68.91692
468.55        68.83709
468.99        68.93289
469.44        68.94432
469.88        68.84972
470.32        68.71616
470.77        68.55579
471.21        68.39776
471.65        68.25577
472.10        68.12316
472.54        68.01208
472.98        67.96215
473.42         67.9752
473.87        68.06744
474.31        68.15849
474.75        68.19552
475.20        68.15517
475.64        68.07362
476.08        67.98196
476.52        67.85386
476.97        67.66042
477.41        67.65113
477.85         67.7972
478.29         67.3334
478.74        66.81104
479.18        67.16997
479.62        67.44791
480.06        67.70036
480.50        67.59271
480.95        67.57545
481.39        67.63237
481.83        67.59996
482.27         67.9976
482.72        67.72296
483.16        67.81312
483.60        68.09705
484.04        68.00577
484.48        67.49674
484.93        67.08688
485.37        67.28152
485.81        67.53215
486.25        67.04753
486.69        69.25494
487.14          69.487
487.58        68.93392
488.02        67.92814
488.46        67.46408
488.90        67.33301
489.34        67.33845
489.79        66.74214
490.23        67.21732
490.67        67.20795
491.11        67.22644
491.55        67.13184
491.99        66.96702
492.43        66.82756
492.88        66.71364
493.32         66.6188
493.76        66.51555
494.20        66.47286
494.64        66.50494
495.08        66.30801
495.52         66.3688
495.96        66.44145
496.41        66.59409
496.85        66.69038
497.29        66.61658
497.73        66.51485
498.17         66.0972
498.61        65.90626
499.05        65.89931
499.49         65.9535
499.93        66.03024
500.37        66.13644
500.82        66.26698
501.26        66.11647
501.70        66.53809
502.14        66.17742
502.58        65.91778
503.02        65.72254
503.46        65.73778
503.90        65.80729
504.34          65.856
504.78        65.89175
505.22         65.9132
505.66         65.8472
506.10        65.71062
506.54        65.75523
506.98        66.03535
507.42        65.44376
507.86        66.15132
508.30        65.68422
508.74        65.90714
509.18        65.77223
509.62         65.6797
510.06        65.64745
510.50        65.65147
510.94        65.61095
511.38        65.51072
511.82        65.43616
512.26        65.38667
512.70        65.31769
513.14        65.23667
513.58        65.17558
514.02         65.1375
514.46        65.11474
514.90        65.08872
515.34        65.06038
515.78        65.03042
516.22        64.98738
516.66        64.78529
517.10        64.99329
517.54         64.8154
517.98        64.86594
518.42        64.90019
518.86        64.92662
519.30        64.93849
519.74         64.8978
520.18        64.84369
520.62        64.92023
521.06        65.08376
521.50        65.08627
521.93        64.93002
522.37        64.82729
522.81        64.79153
523.25        64.70301
523.69        64.57425
524.13        64.48294
524.57        64.43903
525.01        64.42365
525.45        64.43903
525.89        64.48639
526.32        64.55647
526.76        64.65034
527.20        64.74567
527.64        64.80994
528.08        64.83327
528.52        64.82433
528.96        64.79642
529.40        64.76451
529.83        64.73537
530.27        64.73906
530.71        64.75611
531.15        64.75353
531.59        64.72665
532.03        64.68652
532.46        64.65003
532.90        64.65707
533.34         64.7051
533.78        64.78259
534.22        64.84232
534.66        64.81281
535.09        64.67693
535.53         64.4825
535.97        64.27966
536.41        64.16559
536.85        64.16172
537.28        64.23636
537.72        64.34114
538.16         64.3974
538.60        64.38115
539.04        64.32234
539.47         64.2288
539.91        64.16409
540.35        64.12748
540.79        64.10822
541.22        64.10547
541.66        64.13969
542.10        64.20921
542.54        64.28291
542.97        64.33724
543.41        64.43582
543.85        64.57971
544.29        64.50626
544.72        64.64569
545.16        64.63628
545.60        64.60887
546.04         64.4794
546.47        64.31935
546.91        64.41214
547.35        64.67869
547.79        64.70857
548.22        64.48978
548.66        64.36653
549.10        64.36269
549.53        64.31612
549.97        64.24076
550.41        64.18369
550.84        64.12788
551.28        64.13122
551.72        64.22542
552.15        64.23238
552.59        64.11536
553.03        64.71925
553.46        64.52633
553.90        64.58479
554.34         64.4427
554.77        64.26303
555.21        63.93571
555.65        63.90602
556.08        64.10932
556.52        64.33109
556.96        64.47739
557.39        64.56433
557.83        64.57179
558.27        64.41122
558.70        64.15432
559.14        63.99958
559.57        63.97255
560.01        64.04761
560.45        64.15286
560.88        64.18923
561.32        64.19744
561.75        64.12706
562.19        64.06219
562.63        64.23744
563.06        64.53553
563.50        64.42371
563.93         63.9698
564.37        63.77678
564.80        63.86763
565.24        64.01743
565.68        64.15907
566.11        64.26723
566.55        64.34086
566.98        64.37354
567.42        64.40582
567.85        64.46172
568.29        64.55347
568.72        64.54456
569.16        64.52683
569.60        64.48249
570.03        64.72365
570.47        64.89766
570.90        65.01663
571.34        65.12396
571.77         65.3491
572.21         65.0929
572.64        65.56641
573.08        65.12887
573.51        65.01571
573.95        65.26479
574.38        65.48084
574.82         66.1319
575.25        66.08699
575.69        65.99053
576.12        65.37056
576.56        65.50338
576.99        65.48277
577.42        65.55292
577.86        65.66366
578.29        66.54368
578.73        66.59329
579.16        66.49809
579.60        65.25068
580.03        65.56905
580.47        65.61165
580.90        65.80025
581.33         65.8659
581.77        65.80788
582.20        66.52724
582.64        66.82563
583.07        66.31688
583.51        65.95219
583.94        65.41212
584.37        65.10098
584.81        65.00281
585.24        65.12293
585.68        65.69725
586.11        65.89139
586.54        65.82896
586.98        65.59724
587.41        65.27426
587.85        65.64007
588.28        65.72133
588.71        65.86121
589.15        65.58788
589.58        65.18717
590.01          64.967
590.45        64.61832
590.88        65.04633
591.31        64.70345
591.75        64.60159
592.18         64.4384
592.61        64.45969
593.05        65.17465
593.48        65.23428
593.91        65.72486
594.35        65.44624
594.78        65.51892
595.21         65.1144
595.65        65.11154
596.08        65.25011
596.51        65.38765
596.94        64.94595
597.38        64.82289
597.81        64.89812
598.24        65.07271
598.68        64.93577
599.11        65.07822
599.54        65.29031
599.97        65.36436
600.41        65.15965
600.84        65.02813
601.27        65.22978
601.70        65.03293
602.14        64.82206
602.57        64.68845
603.00        64.72374
603.43        65.02299
603.87         65.2149
604.30        65.13601
604.73        65.19357
605.16        64.72791
605.60        64.76974
606.03         64.8252
606.46        65.06515
606.89        65.04507
607.32        64.59107
607.76        64.99782
608.19        65.02341
608.62        65.01104
609.05        65.59837
609.48        65.10641
609.92        65.01862
610.35        64.77617
610.78        64.94616
611.21        64.62236
611.64        64.60954
612.07        64.52458
612.50        64.59458
612.94          64.573
613.37        64.44245
613.80        64.79919
614.23         64.6754
614.66        64.67573
615.09        64.61116
615.52        64.65723
615.96        64.78191
616.39        64.81956
616.82        64.78042
617.25        64.49245
617.68        64.52882
618.11        64.36256
618.54        64.31387
618.97        64.30135
619.40        64.34745
619.84         64.1401
620.27        64.05123
620.70        63.99485
621.13        64.05517
621.56        64.06197
621.99        64.01322
622.42        63.99881
622.85        64.06478
623.28        64.11926
623.71         64.4228
624.14        64.73872
624.57        64.60685
625.00        64.72319
625.43        64.47317
625.86         64.3897
626.29        64.19372
626.72        64.12248
627.15         63.9998
627.58        64.00163
628.01        64.05699
628.44        64.12756
628.87        63.87159
629.30        64.11662
629.73        63.92265
630.16        63.89763
630.59        63.69566
631.02        63.99002
631.45        63.81919
631.88        63.90397
632.31        63.98754
632.74        63.77507
633.17        63.90116
633.60        63.78266
634.03        63.62466
634.46        63.47882
634.89        63.30445
635.32        63.27692
635.75        63.37275
636.18        63.56929
636.61        63.78834
637.04        63.90512
637.47        63.88958
637.89        63.78561
638.32        63.63695
638.75        63.54447
639.18        63.53822
639.61        63.58529
640.04        63.66467
640.47        63.74471
640.90        63.80761
641.33        63.86308
641.76        63.89898
642.18        63.89877
642.61        63.84755
643.04        63.75963
643.47        63.65263
643.90        63.56437
644.33        63.50737
644.76        63.46005
645.18        63.43343
645.61        63.46123
646.04        63.53391
646.47        63.59879
646.90        63.63107
647.33         63.6615
647.75        63.67684
648.18         63.5998
648.61        63.50739
649.04        63.61065
649.47        63.83094
649.89         64.1571
650.32        63.86499
650.75        63.84526
651.18         63.8721
651.61         63.6358
652.03        63.27881
652.46        63.24033
652.89        63.47398
653.32        63.94081
653.74        63.75645
654.17        63.58326
654.60        63.85923
655.03         63.4119
655.46        63.26354
655.88        64.07494
656.31        65.51627
656.74        70.70796
657.16        69.94064
657.59         68.1029
658.02        65.24303
658.45        64.11357
658.87        64.09777
659.30        63.96923
659.73        63.96422
660.15         63.3179
660.58        63.72118
661.01        63.90321
661.44        64.14156
661.86        64.12126
662.29         63.9144
662.72         63.3275
663.14        63.57114
663.57        63.61808
664.00        63.74782
664.42        63.82184
664.85        63.83275
665.27        63.73073
665.70        63.74188
666.13        63.73387
666.55        63.78052
666.98        63.85486
667.41        63.93045
667.83        63.97705
668.26        63.99268
668.69         63.9289
669.11         63.7999
669.54        63.84741
669.96        64.13369
670.39        63.76118
670.82        64.22681
671.24        64.19277
671.67        64.11844
672.09        64.05985
672.52        64.06133
672.94         64.1006
673.37        64.13344
673.80        64.02162
674.22        63.81609
674.65        63.71773
675.07         63.7675
675.50         63.8315
675.92        63.88456
676.35        63.92365
676.77        63.93552
677.20        63.93305
677.62        63.95066
678.05        63.96955
678.47        63.97956
678.90        64.22424
679.32        64.22135
679.75        64.30305
680.17        64.32314
680.60         64.3224
681.02        64.29671
681.45        64.22198
681.87        64.13064
682.30        64.04151
682.72        64.00285
683.15        64.07416
683.57        64.20659
684.00        64.35455
684.42        64.19322
684.85        64.20216
685.27         64.2761
685.70        64.30264
686.12        64.26308
686.54        64.22974
686.97        64.19994
687.39        64.18365
687.82        64.18619
688.24        64.18569
688.66        64.15901
689.09        64.37062
689.51        64.32267
689.94         64.4104
690.36         64.4702
690.78        64.48061
691.21        64.44884
691.63        64.36974
692.06        64.29942
692.48        64.35299
692.90        64.50249
693.33        64.57688
693.75        64.57534
694.17        64.54789
694.60        64.48474
695.02        64.58717
695.44        64.56534
695.87        64.41901
696.29        64.18356
696.71        64.23302
697.14        64.53572
697.56        64.84825
697.98        65.08761
698.41        64.98718
698.83        65.12071
699.25        64.92941
699.68        64.66637
700.10        64.51115
700.52        64.50758
700.94         64.6004
701.37        64.70774
701.79        64.75464
702.21        64.69448
702.64        64.57174
703.06        64.44215
703.48        64.39365
703.90         64.4499
704.33        64.57578
704.75        64.72208
705.17         64.7915
705.59          64.763
706.01        64.66677
706.44        64.56414
706.86        64.57437
707.28        64.70729
707.70        64.91877
708.12        65.15063
708.55        65.30807
708.97          65.358
709.39        65.33952
709.81        65.27271
710.23        65.19732
710.66        65.13691
711.08        65.09317
711.50         65.0587
711.92        65.03993
712.34        65.03819
712.76        65.05521
713.19        65.08379
713.61        65.15448
714.03        65.23927
714.45        65.34339
714.87        65.45008
715.29        65.49106
715.71        65.45229
716.13        65.51985
716.56        65.39075
716.98        65.38914
717.40        65.42027
717.82        65.47919
718.24        65.55094
718.66        65.61531
719.08        65.66575
719.50        65.70395
719.92        65.73181
720.34        65.75008
720.76        65.75999
721.19        65.75306
721.61        65.74554
722.03        65.73434
722.45        65.72435
722.87        65.72095
723.29        65.73396
723.71        65.77599
724.13        65.84595
724.55        65.94146
724.97        66.07456
725.39        66.17865
725.81        66.22817
726.23        66.38655
726.65        66.67501
727.07        66.30048
727.49        66.59193
727.91         66.4822
728.33        66.39857
728.75        66.39443
729.17        66.47836
729.59        66.54896
730.01        66.59074
730.43        66.67118
730.85        66.77701
731.27        66.86592
731.69        66.92539
732.10        66.87874
732.52        66.93721
732.94        66.73547
733.36        66.42062
733.78        66.27944
734.20        66.35347
734.62        66.48995
735.04        66.64577
735.46        66.80769
735.88        66.95101
736.30        67.08875
736.72        67.17576
737.13        67.17105
737.55        67.03629
737.97        66.75089
738.39         66.4409
738.81        66.42854
739.23        66.69803
739.65        66.91805
740.06        66.96068
740.48        66.99983
740.90        66.98094
741.32        66.79156
741.74        66.50989
742.16        66.36157
742.57        66.40794
742.99        66.55734
743.41        66.75982
743.83        66.91785
744.25        66.99577
744.67         67.0209
745.08        67.02843
745.50        67.02705
745.92        67.04263
746.34        67.06815
746.75        67.08014
747.17        67.04134
747.59        66.95196
748.01        66.79599
748.42        66.64543
748.84        66.64354
749.26        66.76921
749.68        66.91721
750.09        67.03333
750.51        66.93219
750.93         66.6754
751.35        66.74362
751.76        67.13224
752.18        66.87502
752.60        66.95789
753.01        66.82809
753.43        66.77641
753.85        66.70542
754.27        66.63094
754.68        66.56628
755.10        66.52989
755.52         66.5518
755.93         66.6274
756.35        66.75303
756.77        66.91277
757.18        66.99941
757.60        66.98113
758.02        67.04256
758.43        67.21753
758.85        66.84194
759.26        67.07933
759.68        67.28429
760.10        66.89131
760.51        67.24831
760.93        67.06116
761.34        67.28506
761.76        67.53915
762.18        67.52208
762.59        67.23589
763.01        67.32189
763.42        66.92622
763.84        67.06194
764.26        67.14396
764.67         67.3302
765.09        67.50883
765.50        67.89938
765.92        68.36628
766.33        68.27728
766.75        67.70299
767.16        67.43414
767.58        67.51556
768.00        67.70585
768.41        67.94207
768.83        67.88262
769.24        67.53841
769.66        67.81857
770.07        67.84801
770.49        67.78091
770.90        67.43362
771.32        67.31723
771.73          67.451
772.15        67.50444
772.56        67.48689
772.97        67.56746
773.39         67.7018
773.80        67.79589
774.22        67.80118
774.63        67.78009
775.05          67.712
775.46        67.61781
775.88        67.48892
776.29        67.33699
776.70        67.20247
777.12        67.16998
777.53        67.27203
777.95        67.48356
778.36        67.70787
778.77         67.7747
779.19        67.65279
779.60        67.40951
780.02        67.17389
780.43        67.15353
780.84        67.40898
781.26        67.88654
781.67         68.4648
782.09        68.84794
782.50        68.92212
782.91        68.74893
783.33        68.43846
783.74        68.25216
784.15        68.21658
784.57        68.40819
784.98        68.69477
785.39        68.49413
785.81        67.94738
786.22        67.95143
786.63        68.47514
787.04        68.73389
787.46         68.7096
787.87        68.83136
788.28        69.07431
788.70        69.18164
789.11        69.11971
789.52        68.96776
789.93        68.80034
790.35         68.7281
790.76         68.8003
791.17        68.99014
791.58         69.2095
792.00        69.32342
792.41        69.33447
792.82        69.19176
793.23        69.03758
793.65        69.23594
794.06        69.74003
794.47        70.12829
794.88         70.3322
795.29        70.25435
795.71        70.46669
796.12        70.31286
796.53        70.00088
796.94        69.78358
797.35        69.67841
797.76         69.4679
798.18        69.18774
798.59        69.05848
799.00          69.091
799.41        69.19086
799.82        69.31068
800.23        69.40818
800.64        69.45785
801.06        69.44305
801.47        69.42202
801.88        69.42256
802.29        69.45483
802.70        69.49526
803.11        69.54358
803.52        69.60323
803.93        69.68208
804.34         69.7903
804.75        69.89551
805.17        69.99816
805.58        70.13335
805.99        70.08016
806.40        69.92146
806.81        70.30348
807.22        70.99708
807.63        70.82964
808.04         69.9641
808.45        69.70784
808.86        70.16363
809.27        70.59324
809.68        70.83855
810.09        70.96441
810.50         70.9129
810.91        70.67909
811.32        70.34734
811.73        70.05707
812.14        69.86572
812.55        69.75169
812.96        69.72411
813.37        69.78532
813.78        69.92188
814.19        70.13441
814.60        70.37402
815.01        70.55932
815.42        70.66935
815.83        70.71556
816.24         70.7129
816.65        70.70045
817.05        70.70238
817.46        70.68096
817.87        70.67536
818.28        70.70119
818.69        70.76146
819.10        70.85654
819.51        70.97648
819.92        71.09365
820.33        71.19211
820.74        71.27054
821.14        71.31795
821.55         71.3428
821.96        71.33591
822.37        71.29367
822.78        71.22552
823.19        71.15277
823.60        71.08225
824.00        71.02745
824.41        70.94711
824.82        70.84173
825.23        70.71611
825.64        70.59521
826.04        70.50806
826.45         70.4538
826.86        70.45394
827.27        70.50664
827.68        70.63122
828.08        70.88166
828.49        71.17692
828.90        71.52951
829.31        71.89159
829.72        72.11639
830.12        72.17952
830.53         72.3931
830.94        72.17425
831.35         71.9827
831.75         71.6861
832.16        71.29392
832.57        70.92213
832.97        70.74741
833.38        70.80736
833.79        71.05083
834.20        71.39409
834.60        71.70373
835.01         71.9299
835.42        72.09933
835.82        72.21493
836.23        72.23445
836.64        72.17976
837.04        72.06747
837.45        71.91797
837.86        71.83496
838.26        71.85587
838.67        71.94556
839.08        72.08956
839.48        72.24229
839.89        72.37228
840.29        72.49084
840.70        72.58837
841.11        72.65057
841.51        72.69176
841.92        72.67958
842.33        72.63293
842.73        72.58522
843.14        72.50645
843.54        72.42967
843.95        72.37125
844.35        72.37947
844.76        72.45253
845.17        72.58403
845.57        72.75107
845.98        72.87714
846.38         72.9675
846.79        73.00494
847.19        73.03789
847.60        73.06699
848.00         73.1333
848.41        73.19859
848.81        73.28289
849.22        73.34077
849.62        73.40395
850.03        73.44356
850.43        73.50929
850.84        73.57058
851.24        73.67654
851.65        73.76041
852.05        73.86702
852.46        73.95749
852.86        74.02557
853.27         74.1251
853.67         74.1573
854.07        74.13721
854.48        74.03918
854.88        73.88665
855.29        73.72511
855.69        73.82066
856.10        74.11662
856.50         74.6347
856.90        75.12569
857.31        75.21982
857.71        74.89697
858.12        74.21429
858.52        73.41151
858.92        72.82537
859.33        72.56364
859.73        72.58283
860.13        72.78917
860.54        73.01803
860.94         73.2551
861.34        73.50069
861.75        73.68092
862.15        73.75212
862.55        73.66004
862.96        73.38316
863.36         73.0013
863.76        72.61017
864.17        72.24477
864.57        71.93423
864.97        71.63377
865.38        71.23932
865.78        70.78717
866.18        70.31121
866.58        69.95273
866.99        69.92776
867.39        70.30553
867.79        70.96141
868.19        71.67481
868.60        72.07175
869.00        72.14152
869.40        72.11443
869.80        72.01851
870.21        71.75862
870.61        71.44849
871.01        71.16893
871.41        70.92908
871.81        70.66397
872.22         70.3874
872.62        70.13609
873.02        70.01086
873.42        70.31228
873.82        70.89011
874.22        71.25172
874.63        71.43997
875.03         71.5955
875.43         71.6978
875.83        72.39668
876.23        71.67957
876.63        70.98375
877.03        70.16845
877.44        68.71384
877.84        155.1953
878.24        70.03837
878.64        70.69073
879.04        71.81157
879.44        72.08627
879.84        69.33602
880.24        73.27097
880.64        73.38052
881.04        71.40314
881.44        69.81396
881.84        69.06167
882.24        69.26623
882.65        69.96078
883.05        70.04858
883.45        69.29718
883.85        68.43285
884.25        67.78252
884.65        67.51308
885.05        67.70979
885.45        68.23457
885.85        68.87766
886.25        69.36954
886.65        69.62702
887.05        69.73537
887.45        69.71482
887.85         69.5996
888.25        69.43257
888.65        69.19587
889.04         69.0079
889.44        69.07677
889.84        69.42133
890.24        69.96201
890.64        70.52431
891.04        70.85053
891.44        70.87816
891.84        70.67714
892.24        70.33096
892.64        69.99336
893.04         69.7373
893.44        69.54275
893.83        69.41617
894.23        69.32816
894.63        69.29535
895.03        69.36218
895.43        69.54437
895.83        69.84959
896.23        70.24725
896.63        70.65816
897.02         71.0604
897.42        71.51339
897.82        71.96293
898.22        72.39084
898.62        72.62386
899.01        72.39744
899.41        71.67669
899.81        70.59733
900.21        69.46316
900.61        68.76877
901.00        68.64277
901.40        69.01553
901.80        69.67502
902.20        70.15887
902.59        70.32368
902.99        70.48566
903.39        70.80723
903.79        70.18595
904.18        70.82886
904.58        70.91907
904.98        70.96983
905.38        70.74747
905.77        70.23479
906.17        69.55067
906.57         68.8763
906.96        68.58388
907.36        68.75952
907.76        69.32413
908.15        70.09174
908.55        70.59289
908.95        70.74128
909.34        70.58752
909.74        70.37223
910.14        70.45217
910.53        70.89267
910.93        71.55536
911.33        72.12462
911.72        72.11173
912.12        71.45353
912.52        70.34901
912.91        69.16403
913.31        68.54477
913.70        68.62201
914.10        69.20214
914.49         70.0195
914.89        70.52582
915.29        70.57702
915.68        70.32352
916.08        69.95241
916.47        69.70672
916.87         69.7057
917.26        69.85716
917.66        70.09581
918.05        70.35792
918.45         70.5831
918.84        70.79011
919.24        71.00626
919.64        71.32507
920.03        71.74029
920.42        72.18845
920.82         72.4777
921.21        72.33073
921.61        71.74477
922.00        70.89737
922.40        70.11868
922.79        69.81879
923.19        69.78666
923.58        70.61787
923.98        72.40443
924.37        72.84406
924.77        70.76606
925.16        77.23259
925.55        72.32135
925.95        72.54549
926.34        72.29299
926.74        71.42916
927.13        70.00572
927.52         69.1451
927.92        69.31004
928.31        69.89103
928.70        70.71828
929.10        71.46674
929.49        72.04969
929.89        72.59453
930.28        72.91934
930.67        72.60332
931.07        71.64164
931.46        70.06264
931.85        68.49583
932.24        68.41109
932.64        70.01266
933.03        72.30634
933.42        74.18994
933.82        76.62605
934.21        75.30355
934.60        73.67847
934.99        71.75499
935.39        70.87236
935.78         71.2621
936.17        73.05181
936.56        78.53783
936.96        73.06915
937.35        76.33079
937.74        73.88496
938.13         72.1517
938.53        70.63844
938.92        69.90881
939.31         70.4054
939.70        71.30527
940.09        71.83897
940.49        71.80137
940.88         71.5192
941.27        71.19424
941.66        71.16298
942.05        71.53665
942.44        72.11442
942.84        72.70248
943.23        73.14594
943.62        73.36958
944.01        73.40867
944.40        73.36333
944.79        73.39171
945.18        73.52912
945.57        73.73834
945.97        73.82267
946.36        73.58328
946.75        72.95609
947.14        72.03232
947.53         71.1164
947.92        70.72435
948.31        70.98017
948.70        71.71884
949.09        72.58839
949.48        73.03787
949.87        72.93921
950.26         72.4696
950.65        71.86434
951.04        71.51778
951.43        71.54771
951.82        71.79268
952.21        72.15622
952.60        72.49028
952.99        72.69489
953.38        72.81476
953.77        72.77603
954.16        72.43805
954.55        71.81826
954.94        71.00236
955.33        70.13704
955.72        69.51937
956.11         69.2837
956.50        69.34015
956.89        69.74532
957.28        70.55804
957.66        71.70965
958.05        73.04565
958.44        74.19418
958.83        74.60603
959.22        74.17424
959.61        73.00496
960.00        71.46539
960.39        70.33786
960.78        69.93967
961.16        70.13847
961.55        70.54234
961.94        70.64891
962.33         70.3429
962.72        69.78582
963.11        69.23322
963.49         69.1821
963.88        69.74415
964.27        70.67227
964.66        71.62626
965.04        72.20087
965.43        72.25596
965.82        71.96732
966.21        71.47745
966.60        71.04102
966.98        70.78297
967.37        70.63206
967.76        70.61491
968.15        70.76321
968.53        71.08571
968.92        71.56785
969.31        72.11122
969.69        72.52982
970.08         72.7234
970.47        72.68848
970.86        72.53822
971.24        72.50055
971.63        72.60663
972.02        72.81354
972.40        72.92798
972.79        72.56946
973.17        71.75068
973.56        70.60641
973.95        69.50578
974.33        69.09183
974.72        69.53059
975.11        70.60786
975.49        72.03518
975.88        73.24319
976.26        74.09572
976.65        74.65474
977.04        74.95961
977.42        75.06219
977.81        74.96084
978.19        74.55651
978.58        74.17903
978.96        74.36994
979.35        75.16081
979.74        76.34352
980.12        77.41359
980.51         77.5334
980.89        76.70959
981.28        75.07243
981.66         73.0544
982.05        71.78865
982.43        71.75678
982.82        72.68094
983.20        74.07498
983.59        75.13618
983.97        75.65497
984.35        75.80778
984.74         75.6461
985.12        75.35943
985.51        75.02573
985.89         74.6719
986.28        74.31339
986.66        74.03654
987.04         73.9146
987.43        73.86034
987.81        73.82601
988.20        74.87828
988.58        77.03636
988.96        78.03345
989.35        77.18348
989.73        81.70552
990.12        78.86159
990.50        78.45738
990.88         77.2987
991.27        76.28636
991.65        75.56729
992.03        75.19247
992.42        75.20443
992.80        75.16635
993.18        74.98183
993.56        74.84753
993.95        74.77673
994.33        74.73053
994.71        74.72498
995.10        74.68678
995.48        74.74965
995.86        75.15273
996.24        75.88574
996.63        76.76402
997.01         77.5979
997.39        77.88952
997.77        77.53537
998.15        76.70363
998.54        75.67157
998.92        74.76811
999.30        74.17225
999.68         73.8495
1000.06        73.77715
1000.45        73.83952
1000.83        74.09171
1001.21        74.53987
1001.59        75.21223
1001.97        76.12838
1002.35        77.18839
1002.73        78.24017
1003.12        79.14122
1003.50        79.80146
1003.88        80.21153
1004.26         80.4342
1004.64        80.44678
1005.02        80.20755
1005.40        79.73383
1005.78        79.03822
1006.16        78.33245
1006.54        77.94524
1006.92        77.95367
1007.30        78.31716
1007.69        78.72471
1008.07        78.77948
1008.45        78.37292
1008.83        77.61687
1009.21        76.83884
1009.59        76.74641
1009.97        77.47122
1010.35         78.5846
1010.73        79.70206
1011.11        80.65254
1011.49        81.51907
1011.86        82.19914
1012.24        82.38113
1012.62        83.77309
1013.00        84.06316
1013.38        83.23776
1013.76        80.51227
1014.14        83.47043
1014.52        88.67385
1014.90        83.09311
1015.28        84.91241
1015.66        86.43832
1016.04        83.77583
1016.41        83.48954
1016.79        82.16847
1017.17        81.36667
1017.55        80.74787
1017.93        80.41102
1018.31        80.59565
1018.69        81.20092
1019.06        82.17785
1019.44        83.41512
1019.82           84.49
1020.20        84.82069
1020.58        84.31751
1020.95        82.94554
1021.33         81.0958
1021.71        80.04314
1022.09        80.50444
1022.46        81.91245
1022.84        83.49459
1023.22        84.73895
1023.60        85.66359
1023.97        86.51279
1024.35         87.2679
1024.73        87.77103
