SpectraSmart Spectrum 2.9.0.0
--------- Device Information -----------
Spectrum Name :  反射率_0
Saving Time :  2024/04/20 23:58:30
Spectro-Module Model Name : SE2030-DUVN
Spectro-Module Serial Number : OS361AC55029948
Wavelength Start : 200
Wavelength End : 1025
Wavelength Unit : Wavelength(nm)
Spectrum Unit : Reflectance(%)
-----------Spectrum Setting ------------
Integration Time : 20ms
Average : 10
Boxcar : 0
Background removal :  enabled
linearity correction :  enabled
SC :  disabled
Intensity correction :  disabled
DWT denoise :  enabled
savitzky-golay :  disabled
FFT :  disabled
Running average :  disabled
Kalman :  disabled
High pass :  disabled
---------------BEGIN--------------------
Wavelength(nm)             Reflectance(%)
200.29               0
200.75       -92.10468
201.21       -24.32004
201.67        13.74058
202.13        29.06592
202.58         31.3977
203.04        26.85008
203.50        16.94891
203.96        6.044156
204.42       -2.443745
204.88       -10.64949
205.34        -17.8161
205.80        -23.9182
206.26       -29.41504
206.72        -30.0755
207.18       -30.37154
207.64       -42.84658
208.10       -68.54693
208.55       -103.2374
209.01       -116.6594
209.47       -78.48913
209.93       -27.26407
210.39        12.72418
210.85        37.68589
211.31        48.33146
211.77        48.71994
212.23         40.1848
212.69          18.649
213.14       -19.82105
213.60       -82.82437
214.06       -247.9333
214.52        -591.034
214.98       -252.6272
215.44       -66.03714
215.90       -4.186565
216.36         15.9613
216.81        17.34328
217.27        2.688502
217.73       -75.40175
218.19        860.0759
218.65        349.5656
219.11       -694.7839
219.57        -13.6363
220.02        27.67606
220.48        31.34799
220.94         19.6679
221.40       -13.73717
221.86       -89.94154
222.32       -136.8102
222.77        -66.3045
223.23        -5.28687
223.69        25.21108
224.15        34.95699
224.61        33.83212
225.06        27.35494
225.52        18.01795
225.98        9.461553
226.44        3.650158
226.90       -1.599379
227.36       -3.018956
227.81        4.238834
228.27        15.48287
228.73        26.36094
229.19        33.20364
229.65        34.13012
230.10        30.14986
230.56        22.71796
231.02        13.11996
231.48         6.67016
231.93        7.239827
232.39        12.82954
232.85        19.30614
233.31        23.14972
233.77        24.50162
234.22        24.92994
234.68        24.56779
235.14        23.54046
235.60        22.30577
236.05         19.9552
236.51         16.8429
236.97        20.09104
237.43        30.45942
237.88        36.94503
238.34         35.0748
238.80        58.07774
239.26         46.9187
239.71        44.89242
240.17        36.47673
240.63        27.99284
241.08        23.56378
241.54        26.42769
242.00        36.13431
242.46        41.01479
242.91         37.8314
243.37        27.28294
243.83        11.61271
244.28        2.055941
244.74        5.697266
245.20        15.78948
245.66        25.87944
246.11        30.14494
246.57        27.75734
247.03        21.61201
247.48        10.96843
247.94       -6.579496
248.40       -38.56823
248.85       -122.3314
249.31       -388.6215
249.77       -611.8912
250.22       -206.4663
250.68       -34.12586
251.14        20.91147
251.59         34.2025
252.05        29.36153
252.51        12.13642
252.96       -16.06193
253.42       -38.26801
253.88       -38.71026
254.33       -24.23413
254.79       -2.804667
255.25        16.70503
255.70        30.37656
256.16        39.69505
256.62        45.10434
257.07        46.90889
257.53        46.82636
257.99        45.76681
258.44        44.35101
258.90        43.70689
259.35        43.40467
259.81        43.34669
260.27        43.35493
260.72        43.30666
261.18        43.37168
261.63        43.39776
262.09        43.23505
262.55        42.41293
263.00        40.99144
263.46        39.34066
263.91        37.83218
264.37        37.30076
264.83        37.64634
265.28        38.45551
265.74        39.26132
266.19        39.30708
266.65        38.55574
267.11        37.24513
267.56        35.67361
268.02        34.37033
268.47        33.44184
268.93        32.76527
269.38          32.184
269.84        31.51482
270.30        30.70213
270.75         29.8485
271.21        29.05709
271.66         28.4023
272.12        27.92222
272.57        27.53568
273.03        27.21301
273.48        26.89703
273.94        26.57405
274.39        26.22729
274.85        25.84888
275.31        25.36494
275.76        24.77735
276.22         24.1555
276.67        23.55614
277.13         23.1234
277.58        22.84535
278.04        22.69105
278.49        22.57709
278.95        22.44921
279.40        22.24471
279.86        22.00695
280.31        21.69706
280.77        21.33071
281.22        20.89719
281.68        20.45825
282.13        20.01372
282.59        19.63283
283.04        19.30898
283.50        19.03498
283.95        18.84394
284.41        18.80145
284.86        18.89119
285.32        19.09983
285.77        19.28483
286.22        19.24655
286.68        18.98466
287.13        18.53523
287.59        18.12512
288.04         17.9983
288.50        18.16768
288.95        18.67398
289.41        19.35494
289.86         19.4648
290.32        18.86507
290.77        19.67933
291.22        18.60066
291.68        18.61982
292.13        18.77669
292.59        19.09666
293.04        19.50072
293.50        19.94464
293.95         20.4246
294.40        20.93793
294.86        21.49337
295.31        22.09065
295.77        22.72693
296.22        23.38194
296.68        24.05687
297.13        24.75272
297.58        25.47967
298.04        26.24426
298.49        27.04416
298.95        27.89278
299.40        28.77655
299.85        29.69335
300.31           30.63
300.76        31.55617
301.21        32.46796
301.67         33.3907
302.12        34.31887
302.58        35.31612
303.03        36.37725
303.48        37.52837
303.94        38.75626
304.39        40.00687
304.84        41.27191
305.30        42.56892
305.75        43.90071
306.20        45.34646
306.66        46.89635
307.11        48.48287
307.57        50.03693
308.02        51.42371
308.47        52.62656
308.93        53.72717
309.38         54.7543
309.83        55.73899
310.29        56.85352
310.74        57.94006
311.19        59.02715
311.65        60.08044
312.10        61.07681
312.55        62.03439
313.00        62.94998
313.46        63.81661
313.91        64.62296
314.36        65.37399
314.82        66.08321
315.27        66.78127
315.72        67.47428
316.18        68.14854
316.63        68.79188
317.08        69.38817
317.53        69.92681
317.99        70.41545
318.44        70.83233
318.89        71.13111
319.35        71.31649
319.80        71.41271
320.25        71.49669
320.70        71.69611
321.16        72.02925
321.61        72.46886
322.06         72.9305
322.51           73.28
322.97        73.47014
323.42         73.5654
323.87        73.60031
324.32        73.64983
324.78        73.73154
325.23        73.84917
325.68        73.99571
326.13        74.18311
326.59        74.38933
327.04        74.65371
327.49         74.9296
327.94        75.15763
328.39        75.32339
328.85        75.41956
329.30        75.51791
329.75        75.65182
330.20        75.83712
330.66        76.03048
331.11        76.27121
331.56        76.52528
332.01        76.78852
332.46        77.07901
332.92        77.33851
333.37        77.56954
333.82        77.73701
334.27        77.84775
334.72        77.99078
335.17        78.31615
335.63           78.83
336.08        79.53655
336.53        80.27602
336.98         80.8148
337.43         81.0904
337.88        81.15897
338.34        81.15636
338.79        81.35259
339.24        81.80077
339.69        82.42538
340.14        83.08059
340.59        83.54386
341.05        83.76773
341.50        83.83119
341.95        83.86738
342.40        84.09072
342.85        84.55703
343.30        85.19712
343.75        85.87561
344.20         86.3872
344.66        86.68452
345.11        86.81071
345.56        86.89246
346.01        87.12066
346.46        87.53123
346.91        88.07378
347.36        88.60896
347.81        88.89372
348.26        88.89067
348.72        88.82862
349.17        88.60249
349.62        88.66836
350.07        89.00522
350.52        89.52831
350.97        90.07859
351.42        90.40136
351.87        90.42686
352.32        90.23909
352.77         89.9454
353.22        89.70841
353.67        89.58237
354.13        89.53001
354.58        89.49792
355.03        89.45412
355.48        89.37784
355.93        89.28255
356.38        89.17042
356.83        89.03648
357.28        88.87165
357.73        88.66549
358.18        88.39105
358.63        88.01582
359.08        87.54681
359.53        87.01056
359.98        86.45668
360.43        85.95504
360.88        85.52126
361.33        85.13264
361.78        84.76745
362.23        84.38965
362.68        83.98178
363.13         83.5528
363.58        83.08531
364.03        82.54955
364.48        81.94829
364.93        81.29809
365.38        80.63634
365.83        80.02779
366.28        79.49132
366.73        79.00348
367.18        78.56015
367.63        78.15237
368.08        77.76309
368.53        77.39291
368.98        76.98502
369.43        76.44266
369.88        75.75297
370.33        74.94769
370.78        74.11347
371.23        73.41676
371.68        72.91664
372.13        72.56897
372.58        72.32852
373.03         72.1073
373.48        71.86125
373.93        71.61399
374.38        71.32621
374.83        70.93982
375.28        70.46086
375.72        69.89577
376.17        69.34666
376.62        68.92267
377.07        68.63351
377.52         68.4315
377.97        68.24758
378.42        67.97247
378.87        67.58112
379.32        67.12209
379.77        66.62236
380.22        66.10546
380.67        65.58143
381.11        65.04505
381.56        64.52232
382.01        64.07899
382.46        63.73729
382.91         63.4842
383.36        63.28025
383.81        63.05576
384.26        62.78671
384.71        62.48939
385.15        62.16023
385.60        61.85378
386.05        61.56102
386.50         61.2701
386.95        60.98727
387.40        60.73145
387.85         60.5115
388.29        60.29181
388.74        60.13008
389.19        59.95312
389.64        59.74732
390.09        59.51077
390.54        59.27405
390.98        59.07922
391.43        58.97082
391.88        58.92425
392.33        58.87999
392.78        58.77731
393.23        58.61006
393.67         58.3007
394.12        57.99526
394.57        57.92518
395.02        58.02376
395.47        57.88842
395.91        57.53124
396.36        57.28227
396.81        57.18026
397.26        57.06563
397.71        56.90533
398.15        56.74516
398.60        56.64559
399.05        56.40993
399.50        56.17545
399.95        56.38418
400.39        56.90846
400.84        57.14464
401.29        56.98978
401.74        56.52388
402.18        55.92897
402.63        55.71581
403.08        55.86174
403.53        55.75263
403.97        55.38059
404.42        55.20813
404.87        55.22701
405.32        55.22482
405.76        55.17849
406.21        55.10287
406.66        55.02055
407.11        55.05344
407.55        55.15601
408.00        55.12731
408.45         54.9633
408.90        54.61564
409.34        54.24262
409.79        54.35302
410.24        54.83245
410.68        55.03994
411.13        54.93427
411.58        54.88782
412.03         54.9455
412.47        55.01048
412.92        55.07205
413.37        55.16363
413.81        55.25953
414.26        55.37035
414.71        55.47817
415.15        55.58847
415.60        55.67511
416.05        55.74069
416.49        55.78594
416.94        55.80623
417.39        55.79776
417.83        55.75366
418.28        55.67802
418.73        55.56298
419.17        55.45555
419.62        55.44373
420.07        55.54892
420.51        55.75036
420.96        55.96619
421.41        56.08563
421.85         56.0737
422.30        55.83685
422.74        55.52547
423.19         55.8182
423.64        56.58073
424.08        56.90314
424.53        56.68588
424.98        56.74099
425.42        57.13085
425.87        57.13149
426.31        56.88786
426.76        57.27698
427.21        58.16675
427.65         58.4812
428.10        58.17744
428.54        58.13479
428.99        58.39845
429.44        58.45966
429.88        58.32821
430.33        58.31673
430.77        58.38924
431.22        58.55994
431.66        58.78029
432.11        58.99223
432.56        59.22957
433.00        59.28235
433.45        58.96573
433.89         59.1279
434.34         59.9689
434.78        58.54625
435.23        58.84762
435.67        60.14376
436.12        60.46183
436.57         60.7883
437.01        60.40924
437.46        60.17874
437.90        60.70963
438.35        61.34977
438.79        61.25091
439.24        61.37205
439.68        61.45086
440.13         61.2936
440.57        61.03999
441.02        61.40735
441.46        62.21473
441.91        62.37925
442.35        61.96457
442.80        62.15655
443.24        62.84949
443.69         63.0746
444.13        62.78635
444.58        62.66873
445.02        62.82816
445.47        62.71898
445.91        63.32316
446.36        63.47672
446.80        63.45135
447.24        63.44861
447.69        63.51445
448.13        63.59242
448.58        63.54593
449.02        63.68968
449.47        63.91579
449.91         64.0013
450.36        63.94604
450.80        63.78154
451.25        63.61555
451.69        63.65331
452.13        63.86901
452.58        63.94072
453.02        63.83728
453.47        63.79557
453.91        63.80468
454.36         63.7355
454.80        63.63416
455.24        63.58539
455.69        63.60482
456.13        63.72408
456.58        63.98822
457.02        63.71263
457.46        64.16657
457.91        63.94346
458.35        63.61409
458.79        63.39768
459.24        63.38474
459.68        63.34521
460.13         63.2868
460.57        63.23385
461.01        63.19339
461.46        63.09927
461.90         63.2584
462.34        63.02853
462.79         62.8185
463.23        63.05399
463.68        63.65249
464.12        63.59837
464.56        63.00555
465.01        63.08372
465.45        63.64122
465.89        63.71721
466.34        63.36068
466.78         63.1324
467.22        63.09196
467.67        63.14739
468.11        62.92965
468.55        62.93448
468.99        63.00146
469.44         62.9723
469.88        62.83187
470.32        62.63992
470.77        62.45368
471.21        62.34052
471.65        62.31897
472.10        62.36695
472.54         62.4323
472.98        62.45944
473.42        62.44269
473.87        62.38868
474.31        62.27742
474.75        62.26362
475.20        62.33935
475.64        62.09419
476.08        62.20896
476.52        62.11078
476.97        61.90194
477.41        62.29566
477.85        62.67788
478.29        61.95784
478.74        61.65585
479.18        62.24347
479.62         62.0941
480.06        62.19341
480.50         62.2692
480.95        62.28464
481.39        62.25116
481.83        62.43193
482.27        62.69473
482.72        62.17788
483.16        62.51888
483.60        62.47698
484.04        62.66751
484.48        62.23423
484.93        62.01003
485.37        62.14869
485.81         62.6946
486.25        62.42045
486.69        63.34093
487.14        63.29959
487.58        62.71693
488.02        62.68514
488.46        62.21676
488.90        62.31475
489.34        62.07373
489.79        62.09816
490.23        62.35643
490.67        62.46444
491.11        62.46029
491.55        62.33604
491.99        62.16216
492.43         62.0623
492.88        62.06044
493.32        62.11237
493.76        62.14726
494.20        62.19866
494.64         62.2839
495.08        62.02079
495.52         61.9824
495.96        62.14583
496.41        62.53548
496.85         62.4377
497.29        61.91724
497.73        61.93925
498.17        62.13793
498.61        62.26273
499.05        62.13563
499.49        61.84195
499.93         61.5327
500.37        61.55516
500.82        61.85051
501.26        62.11723
501.70        62.24511
502.14        61.87036
502.58        61.59351
503.02        61.38662
503.46          61.387
503.90        61.41307
504.34        61.41386
504.78        61.45267
505.22        61.53507
505.66        61.55602
506.10        61.51161
506.54        61.65165
506.98        62.02338
507.42        61.51556
507.86         62.1265
508.30        61.83908
508.74        61.81395
509.18        61.55815
509.62        61.32312
510.06        61.22553
510.50        61.26063
510.94        61.33524
511.38        61.39516
511.82        61.43774
512.26        61.44033
512.70        61.38226
513.14        61.29082
513.58        61.23025
514.02        61.21604
514.46        61.22841
514.90        61.24066
515.34        61.25007
515.78        61.25583
516.22        61.23569
516.66        61.05608
517.10        61.33559
517.54        61.19756
517.98        61.30996
518.42        61.39094
518.86        61.42876
519.30        61.41365
519.74        61.32709
520.18        61.21286
520.62        61.21265
521.06        61.29546
521.50        61.22805
521.93        61.04522
522.37        60.99714
522.81        61.09712
523.25        61.20852
523.69        61.28444
524.13         61.3081
524.57        61.26807
525.01        61.17388
525.45        61.06707
525.89        61.01495
526.32        61.03294
526.76        61.10448
527.20        61.20287
527.64        61.28775
528.08        61.34165
528.52        61.37654
528.96        61.39412
529.40        61.38822
529.83        61.36072
530.27         61.3445
530.71        61.32681
531.15        61.28806
531.59        61.23108
532.03        61.16618
532.46        61.11609
532.90        61.12949
533.34        61.20208
533.78        61.31367
534.22        61.41257
534.66        61.41895
535.09        61.31267
535.53        61.14834
535.97        60.95895
536.41        60.81363
536.85        60.73697
537.28        60.70789
537.72        60.72991
538.16        60.80835
538.60        60.92765
539.04        61.07987
539.47        61.20424
539.91        61.25975
540.35        61.22006
540.79        61.10551
541.22        60.95176
541.66        60.83593
542.10         60.7764
542.54        60.75121
542.97        60.74449
543.41        60.76159
543.85        60.79079
544.29        60.84633
544.72        60.89378
545.16        60.93116
545.60          60.949
546.04        60.87864
546.47        60.78205
546.91        60.92984
547.35        61.24953
547.79        61.34023
548.22        61.19193
548.66        61.14228
549.10        61.20858
549.53        61.21845
549.97        61.17659
550.41        61.13558
550.84        61.10579
551.28        61.06604
551.72        61.02117
552.15        61.02836
552.59        61.11301
553.03        60.97828
553.46        61.18153
553.90         61.0678
554.34        61.09261
554.77        61.03888
555.21        60.97444
555.65        60.98301
556.08        61.04332
556.52        61.14368
556.96        61.23371
557.39        61.31314
557.83        61.35519
558.27        61.22897
558.70        61.01292
559.14        60.94568
559.57        61.03689
560.01        61.25594
560.45        61.47807
560.88        61.44434
561.32        61.23146
561.75        61.04808
562.19        60.99445
562.63        61.07236
563.06        61.22269
563.50        61.24586
563.93        61.12491
564.37        61.06369
564.80        61.06428
565.24        61.11694
565.68        61.21251
566.11        61.28361
566.55         61.3364
566.98         61.4741
567.42        61.66415
567.85        61.58404
568.29        61.34254
568.72        61.34884
569.16        61.64654
569.60        61.64686
570.03        61.63691
570.47        61.69726
570.90        61.89294
571.34        61.58023
571.77        62.39003
572.21        61.82443
572.64        61.92319
573.08        62.05738
573.51        61.57581
573.95        62.02376
574.38        61.97122
574.82        62.62657
575.25        62.38055
575.69        62.08804
576.12        61.97982
576.56        61.92138
576.99        62.28698
577.42        62.20723
577.86        62.31852
578.29        62.85981
578.73        62.97668
579.16          62.395
579.60        62.09308
580.03         62.4084
580.47           62.29
580.90        62.50393
581.33        62.04368
581.77        62.58655
582.20        62.79995
582.64        62.65552
583.07         62.4397
583.51         61.8995
583.94        62.03236
584.37        62.14964
584.81        61.94605
585.24        61.82671
585.68        62.00913
586.11        62.19774
586.54        62.21425
586.98        62.15459
587.41        61.60527
587.85        62.40933
588.28        62.29827
588.71        61.94217
589.15        62.11674
589.58        61.87839
590.01        61.47234
590.45        61.65211
590.88        62.04219
591.31        61.77124
591.75        61.46257
592.18        61.56995
592.61        61.89155
593.05        62.08953
593.48        62.02227
593.91        62.20449
594.35        61.95941
594.78        62.11325
595.21        61.69103
595.65        61.61994
596.08        61.69611
596.51        61.77924
596.94        61.97181
597.38        62.00799
597.81        61.92368
598.24        61.90412
598.68        61.93529
599.11        61.65409
599.54        62.07827
599.97        62.16394
600.41        62.28026
600.84        62.25785
601.27        62.53191
601.70        62.14317
602.14        61.97054
602.57        61.76245
603.00        61.75353
603.43         62.2261
603.87        62.42923
604.30        62.47041
604.73        62.53531
605.16        62.07574
605.60        62.29758
606.03        62.25907
606.46        62.30177
606.89        62.09495
607.32        61.70407
607.76        62.32315
608.19        62.31934
608.62        62.11693
609.05        62.96649
609.48        62.54225
609.92        62.66607
610.35         62.1524
610.78        62.38317
611.21         62.3261
611.64        62.17219
612.07        62.15681
612.50        62.22127
612.94        62.29504
613.37        62.26255
613.80        62.28923
614.23        62.25617
614.66        62.24631
615.09        62.21059
615.52        62.14592
615.96        62.08617
616.39        61.97256
616.82        61.78023
617.25        62.11179
617.68         61.9019
618.11        61.85814
618.54         61.8572
618.97        61.83702
619.40        61.83764
619.84        61.84446
620.27        61.84427
620.70        61.81397
621.13        61.80455
621.56        61.80509
621.99        62.01245
622.42        62.36236
622.85        61.81564
623.28        61.86235
623.71        62.03067
624.14        61.64634
624.57        61.81273
625.00        62.25703
625.43        61.64801
625.86        61.66735
626.29        61.83095
626.72        61.67272
627.15        61.66499
627.58        61.60083
628.01        61.67374
628.44        61.53623
628.87        61.51482
629.30        61.79964
629.73         61.6353
630.16        61.78002
630.59        61.51426
631.02         61.8104
631.45        61.64203
631.88        61.68259
632.31        61.67203
632.74        61.61927
633.17        61.62683
633.60        61.56037
634.03        61.46081
634.46        61.38939
634.89        61.27296
635.32         61.2361
635.75        61.25391
636.18        61.31492
636.61        61.38822
637.04        61.41955
637.47         61.3853
637.89        61.33942
638.32        61.29897
638.75        61.20465
639.18        61.04408
639.61        61.27059
640.04        61.08349
640.47        61.11906
640.90        61.13742
641.33        61.16353
641.76        61.18729
642.18        61.21309
642.61        61.23287
643.04        61.24232
643.47        61.25057
643.90        61.27734
644.33        61.32364
644.76         61.3703
645.18        61.40377
645.61        61.42369
646.04        61.41477
646.47        61.33008
646.90        61.20269
647.33        61.13752
647.75        61.14171
648.18        61.19473
648.61        61.29223
649.04        61.34335
649.47        61.31765
649.89        61.60958
650.32        61.53252
650.75        61.56915
651.18        61.50747
651.61        61.40454
652.03        61.31144
652.46        61.16559
652.89        61.02626
653.32        61.25618
653.74        61.76344
654.17         61.6629
654.60        60.84382
655.03          61.216
655.46        61.12001
655.88        61.49017
656.31        62.85008
656.74        66.44848
657.16        64.72117
657.59        62.90382
658.02        61.75766
658.45        61.60427
658.87        61.80976
659.30        61.75964
659.73        61.43694
660.15        60.78992
660.58        61.24225
661.01        61.53604
661.44        61.88682
661.86        61.91163
662.29         61.6226
662.72        61.36909
663.14        61.25183
663.57        61.27495
664.00        61.40472
664.42        61.46629
664.85        61.45579
665.27        61.40636
665.70        61.52023
666.13        61.56292
666.55        61.59415
666.98        61.62661
667.41        61.64847
667.83        61.64627
668.26        61.62719
668.69        61.53746
669.11        61.39891
669.54        61.44917
669.96        61.74095
670.39        61.43521
670.82         61.9507
671.24        61.86646
671.67        61.64631
672.09        61.58872
672.52         61.7132
672.94        61.65163
673.37        61.44367
673.80        61.44847
674.22        61.64811
674.65        61.71531
675.07         61.6476
675.50        61.59361
675.92        61.57294
676.35        61.54008
676.77        61.50111
677.20        61.47601
677.62        61.50183
678.05        61.55991
678.47        61.63554
678.90        61.98863
679.32        62.07467
679.75         62.2001
680.17        62.20103
680.60        62.11396
681.02        61.98593
681.45        61.90775
681.87        61.91537
682.30          61.944
682.72        61.98852
683.15        62.07108
683.57        62.12866
684.00        62.13364
684.42        61.80392
684.85        61.74155
685.27        61.85841
685.70        62.00898
686.12        62.12616
686.54        62.20419
686.97        62.21901
687.39        62.20584
687.82        62.18927
688.24        62.18023
688.66        62.16684
689.09        62.38505
689.51        62.35466
689.94         62.4682
690.36        62.56245
690.78        62.61292
691.21        62.60244
691.63         62.4875
692.06        62.32148
692.48        62.23224
692.90        62.23539
693.33         62.2368
693.75        62.25384
694.17        62.31245
694.60        62.37281
695.02        62.58438
695.44        62.65193
695.87        62.56113
696.29        62.32145
696.71        62.41964
697.14        62.83148
697.56        62.98947
697.98         62.8056
698.41        63.22958
698.83         63.0068
699.25        62.99588
699.68        62.84982
700.10        62.72467
700.52        62.63374
700.94        62.56033
701.37        62.51062
701.79        62.50027
702.21        62.51249
702.64        62.55932
703.06        62.61909
703.48        62.65971
703.90         62.6763
704.33        62.66925
704.75        62.65838
705.17        62.65888
705.59        62.67716
706.01         62.7056
706.44         62.7418
706.86        62.80028
707.28         62.8669
707.70        62.94049
708.12         63.0163
708.55        63.07529
708.97        63.10598
709.39         63.1215
709.81        63.12352
710.23        63.12039
710.66        63.11903
711.08        63.12972
711.50        63.13887
711.92        63.14254
712.34        63.14024
712.76        63.13005
713.19        63.11665
713.61         63.1534
714.03        63.22132
714.45        63.32562
714.87        63.43519
715.29        63.45834
715.71         63.3778
716.13        63.38012
716.56        63.20076
716.98        63.20056
717.40        63.29588
717.82        63.46611
718.24        63.65048
718.66        63.75488
719.08        63.75607
719.50        63.67876
719.92        63.57354
720.34        63.51906
720.76        63.53717
721.19        63.59744
721.61        63.67953
722.03        63.72045
722.45        63.70751
722.87        63.66534
723.29        63.62984
723.71        63.65597
724.13        63.75675
724.55        63.90722
724.97        64.07899
725.39        64.22881
725.81        64.33647
726.23        64.40876
726.65        64.44492
727.07        64.45045
727.49         64.4327
727.91        64.38072
728.33        64.30716
728.75        64.26803
729.17        64.25947
729.59        64.20669
730.01        64.13637
730.43        64.15089
730.85        64.25317
731.27        64.38068
731.69        64.50398
732.10        64.53439
732.52        64.65645
732.94        64.49844
733.36        64.20179
733.78        64.05993
734.20        64.11434
734.62        64.20937
735.04        64.29942
735.46        64.37231
735.88         64.4142
736.30         64.4447
736.72        64.45174
737.13        64.46497
737.55         64.4611
737.97        64.33852
738.39        64.18142
738.81        64.39446
739.23        64.87939
739.65        64.96902
740.06        64.64655
740.48        64.54736
740.90        64.65302
741.32        64.62566
741.74          64.478
742.16        64.42058
742.57        64.48243
742.99        64.58446
743.41        64.69981
743.83        64.76382
744.25        64.75813
744.67        64.70396
745.08        64.64993
745.50        64.62988
745.92        64.67249
746.34        64.76488
746.75         64.8667
747.17        64.90987
747.59        64.88551
748.01        64.78415
748.42        64.67135
748.84        64.70142
749.26        64.86202
749.68        64.98785
750.09        65.03541
750.51        65.03147
750.93        64.98986
751.35        64.96919
751.76        64.97986
752.18        64.96111
752.60        64.91969
753.01         64.9257
753.43        64.94018
753.85        64.91621
754.27        64.84863
754.68        64.75382
755.10        64.68377
755.52        64.68272
755.93        64.76834
756.35        64.95893
756.77        65.18527
757.18        65.29411
757.60        65.27217
758.02        65.13132
758.43        64.97779
758.85        64.80236
759.26        65.43503
759.68        65.04721
760.10        65.02648
760.51        64.57386
760.93        64.88493
761.34        64.89709
761.76        65.15204
762.18        65.23161
762.59        65.15493
763.01        65.15391
763.42        64.47938
763.84        64.53235
764.26        64.73033
764.67        65.22732
765.09        65.73036
765.50        65.85185
765.92        65.64828
766.33         65.5258
766.75        65.53109
767.16        65.50115
767.58        65.40112
768.00        65.51875
768.41        65.79891
768.83        65.70859
769.24         65.2975
769.66        65.47114
770.07        65.37617
770.49        65.61369
770.90        65.83365
771.32        65.75074
771.73        65.42963
772.15        65.31588
772.56         65.4573
772.97        65.56935
773.39        65.60155
773.80        65.68616
774.22        65.78106
774.63        65.87382
775.05        65.93192
775.46        65.95536
775.88        65.92289
776.29        65.86563
776.70        65.78339
777.12        65.69176
777.53        65.62015
777.95        65.55929
778.36         65.5234
778.77        65.52499
779.19        65.56957
779.60        65.66439
780.02        65.78004
780.43        65.92372
780.84        66.09357
781.26        66.15129
781.67        66.15891
782.09        66.44347
782.50        66.85759
782.91        66.78712
783.33         66.3017
783.74        66.13704
784.15         66.3181
784.57        66.50579
784.98        66.63319
785.39        66.63094
785.81        66.52809
786.22        66.55147
786.63        66.70407
787.04        66.78633
787.46         66.8053
787.87        66.85949
788.28        66.94804
788.70        66.99456
789.11        66.97746
789.52        66.94266
789.93        66.89966
790.35        66.84843
790.76        66.80883
791.17        66.78144
791.58         66.7907
792.00         66.8316
792.41        66.92395
792.82         67.1361
793.23        67.44276
793.65        67.49951
794.06        67.39226
794.47        67.77034
794.88        68.49681
795.29        68.34163
795.71        68.31549
796.12        67.87508
796.53        67.46772
796.94        67.33634
797.35        67.50895
797.76        67.60571
798.18        67.54443
798.59        67.60527
799.00        67.78702
799.41        67.49611
799.82        67.54237
800.23        67.39233
800.64        67.30695
801.06        67.20412
801.47         67.1681
801.88        67.24975
802.29         67.4473
802.70        67.75747
803.11        68.08549
803.52        68.26304
803.93         68.2422
804.34         68.0581
804.75        67.82142
805.17        67.69076
805.58        67.73753
805.99        67.95864
806.40        68.24112
806.81        68.26129
807.22        68.03339
807.63         67.9071
808.04        67.95135
808.45        68.01026
808.86        68.09386
809.27        68.32688
809.68        68.61927
810.09         68.7337
810.50        68.62646
810.91        68.37312
811.32        68.07175
811.73         67.8838
812.14        67.85956
812.55         67.9469
812.96        68.09504
813.37        68.21597
813.78        68.27522
814.19        68.30779
814.60        68.31269
815.01        68.28507
815.42        68.23242
815.83         68.1429
816.24        68.06337
816.65        68.08746
817.05        68.23683
817.46        68.45679
817.87        68.68928
818.28        68.79882
818.69        68.76296
819.10        68.62765
819.51        68.47089
819.92        68.43362
820.33        68.55614
820.74        68.77726
821.14         69.0474
821.55        69.31691
821.96        69.54123
822.37        69.73277
822.78        69.84106
823.19        69.77973
823.60         69.5384
824.00        69.15893
824.41        68.70102
824.82        68.34387
825.23        68.15015
825.64        68.10352
826.04        68.17542
826.45        68.26368
826.86        68.34979
827.27        68.45932
827.68         68.6098
828.08        68.84845
828.49        69.10155
828.90          69.382
829.31         69.6612
829.72        69.82381
830.12        69.85812
830.53        70.10204
830.94        69.93309
831.35        69.86228
831.75        69.72959
832.16        69.52698
832.57        69.32558
832.97        69.23093
833.38        69.26101
833.79        69.39039
834.20        69.55018
834.60        69.63042
835.01        69.60254
835.42        69.49448
835.82        69.36627
836.23        69.27528
836.64         69.2615
837.04        69.31419
837.45        69.37307
837.86        69.40121
838.26        69.39813
838.67         69.3706
839.08        69.35486
839.48        69.39162
839.89        69.48375
840.29        69.61526
840.70        69.77578
841.11        69.95118
841.51        70.14047
841.92        70.30302
842.33        70.42999
842.73        70.50452
843.14        70.48148
843.54        70.40965
843.95        70.29478
844.35         70.1746
844.76        70.06172
845.17        69.95538
845.57        69.91657
845.98        70.00247
846.38        70.24216
846.79        70.58835
847.19        70.96134
847.60        71.15192
848.00        71.14523
848.41        70.94687
848.81        70.71094
849.22        70.63212
849.62        70.80309
850.03        71.12717
850.43        71.49033
850.84        71.60782
851.24        71.46783
851.65        71.07594
852.05         70.6516
852.46        70.47821
852.86        70.63497
853.27        71.06178
853.67         71.4619
854.07        71.56965
854.48        71.30569
854.88        70.78284
855.29        70.18394
855.69          70.015
856.10        70.31593
856.50        71.03592
856.90        71.83138
857.31        72.17465
857.71        71.97879
858.12        71.33591
858.52        70.53576
858.92        70.00292
859.33        69.86581
859.73        70.04691
860.13        70.36233
860.54        70.51058
860.94        70.45848
861.34        70.26128
861.75          70.003
862.15        69.89026
862.55        69.93317
862.96         70.0433
863.36        70.13571
863.76        70.03413
864.17        69.69789
864.57        69.22473
864.97        68.70379
865.38         68.2629
865.78        68.00107
866.18         67.8783
866.58        67.91403
866.99        68.10516
867.39        68.45642
867.79         68.9349
868.19        69.42854
868.60        69.69618
869.00        69.76614
869.40        69.83566
869.80          69.896
870.21        69.77139
870.61        69.52658
871.01        69.25803
871.41        68.97414
871.81        68.60004
872.22        68.15536
872.62        67.68748
873.02        67.27727
873.42        67.22465
873.82        67.39703
874.22        67.26665
874.63        67.01537
875.03        67.03255
875.43        67.33228
875.83        68.57784
876.23        68.25253
876.63        67.67738
877.03        66.59824
877.44        64.47533
877.84        163.7331
878.24          65.126
878.64        66.03827
879.04        67.78417
879.44        68.62809
879.84        65.89474
880.24        70.33387
880.64        70.35205
881.04        68.04314
881.44        66.45586
881.84         66.1749
882.24        67.19888
882.65        68.71233
883.05        69.14291
883.45        68.17847
883.85        66.68479
884.25        65.27804
884.65        64.58339
885.05        64.80795
885.45        65.67023
885.85        66.71883
886.25         67.3258
886.65        67.33125
887.05        66.94899
887.45        66.37608
887.85        65.93555
888.25         65.7555
888.65        65.71169
889.04        65.79845
889.44        66.02883
889.84         66.3548
890.24        66.77115
890.64        67.15673
891.04        67.31768
891.44        67.22958
891.84        66.95654
892.24        66.59367
892.64         66.3221
893.04        66.21444
893.44        66.22103
893.83          66.363
894.23        66.63869
894.63         67.0312
895.03        67.54066
895.43        68.04367
895.83        68.32499
896.23         68.3425
896.63        68.15046
897.02        67.88378
897.42        67.82179
897.82        67.98392
898.22        68.27682
898.62        68.58031
899.01        68.70567
899.41        68.57973
899.81        68.30375
900.21        67.91504
900.61        67.46821
901.00        67.00397
901.40        66.57617
901.80        66.30255
902.20        66.23896
902.59        66.37636
902.99        66.93294
903.39        67.84431
903.79        67.49412
904.18         68.1851
904.58        68.07687
904.98        67.89338
905.38        67.61836
905.77        67.28381
906.17        66.89684
906.57        66.54581
906.96        66.47723
907.36        66.72995
907.76        67.27634
908.15        67.94165
908.55        68.26915
908.95        68.20183
909.34         67.7977
909.74        67.36194
910.14         67.3546
910.53        67.85903
910.93        68.70296
911.33        69.51279
911.72        69.70028
912.12        69.16243
912.52        68.11839
912.91        66.92599
913.31        66.22487
913.70        66.15289
914.10        66.51247
914.49        67.08305
914.89         67.4039
915.29        67.35429
915.68        67.07082
916.08        66.69082
916.47        66.36797
916.87        66.20193
917.26        66.13417
917.66         66.1497
918.05        66.25912
918.45        66.43417
918.84        66.68583
919.24        67.01184
919.64        67.45794
920.03        67.99816
920.42        68.56078
920.82        69.00897
921.21        69.15545
921.61        68.99711
922.00        68.67474
922.40        68.36424
922.79        68.22695
923.19        68.00075
923.58         68.4167
923.98        69.81771
924.37        70.03223
924.77        67.83479
925.16        75.23331
925.55        70.35108
925.95        70.93141
926.34        70.79913
926.74        69.88712
927.13        68.25033
927.52           67.07
927.92        66.89241
928.31        67.11117
928.70        67.62595
929.10        68.20226
929.49        68.76318
929.89        69.40263
930.28        69.93698
930.67        69.93011
931.07        69.33508
931.46        68.16195
931.85        66.89762
932.24        66.80022
932.64          68.063
933.03        69.75693
933.42        70.94846
933.82        73.20195
934.21        71.70249
934.60        70.28054
934.99        68.74693
935.39        68.22861
935.78        68.84108
936.17        70.82271
936.56        76.73463
936.96        70.78575
937.35        74.34971
937.74        71.72559
938.13        69.88992
938.53        68.36107
938.92        67.73981
939.31        68.46804
939.70        69.58413
940.09         70.1672
940.49        69.98587
940.88        69.41286
941.27          68.689
941.66        68.25175
942.05        68.28146
942.44        68.56122
942.84        68.92446
943.23        69.24515
943.62        69.44977
944.01        69.60412
944.40        69.74667
944.79        69.91479
945.18        70.11706
945.57        70.31937
945.97        70.46181
946.36        70.58055
946.75        70.62873
947.14        70.59727
947.53        70.52459
947.92        70.47841
948.31         70.4678
948.70        70.47635
949.09         70.4149
949.48        70.13733
949.87        69.63925
950.26        69.00111
950.65        68.35789
951.04        67.92324
951.43        67.76497
951.82        67.81506
952.21        68.03199
952.60        68.33581
952.99        68.65134
953.38        68.97068
953.77        69.20445
954.16        69.22299
954.55        69.02231
954.94        68.65513
955.33         68.2117
955.72        67.88141
956.11         67.7487
956.50        67.75716
956.89        67.95086
957.28        68.37749
957.66        69.02747
958.05        69.80535
958.44        70.49175
958.83        70.74854
959.22         70.5069
959.61        69.81107
960.00        68.92751
960.39        68.40052
960.78        68.40949
961.16        68.85085
961.55        69.31856
961.94        69.32099
962.33        68.76301
962.72        67.77763
963.11        66.71444
963.49        66.29308
963.88        66.72567
964.27        67.74672
964.66        68.87329
965.04        69.46519
965.43        69.33434
965.82         68.7165
966.21        67.90221
966.60        67.40582
966.98        67.40882
967.37        67.74242
967.76        68.22823
968.15        68.58128
968.53        68.71877
968.92         68.7092
969.31          68.644
969.69        68.64063
970.08        68.71236
970.47        68.82199
970.86        68.92176
971.24        68.95883
971.63        68.90752
972.02        68.79927
972.40        68.72148
972.79        68.70741
973.17        68.81458
973.56        69.03296
973.95        69.29208
974.33        69.46148
974.72        69.48498
975.11        69.37271
975.49        69.32419
975.88         69.5876
976.26        70.28163
976.65        71.26221
977.04        72.22535
977.42        72.69713
977.81        72.53294
978.19         71.7756
978.58         71.0088
978.96        71.23129
979.35        72.56324
979.74        74.55158
980.12        76.33958
980.51        76.70316
980.89        75.60107
981.28        73.26282
981.66        70.34451
982.05        68.52136
982.43        68.51488
982.82        69.91746
983.20        71.94839
983.59        73.35184
983.97        73.80457
984.35        73.62786
984.74         73.0545
985.12        72.57942
985.51         72.3689
985.89         72.3111
986.28        72.28485
986.66         72.2183
987.04        72.12492
987.43        71.95206
987.81        71.65813
988.20        72.42832
988.58        74.38567
988.96        75.08019
989.35        73.67944
989.73        78.56841
990.12        74.93519
990.50        74.21726
990.88         72.8037
991.27        72.01629
991.65         72.0524
992.03        72.90179
992.42        74.18504
992.80        74.68098
993.18          74.093
993.56        72.81808
993.95        71.36151
994.33        70.51387
994.71        70.54248
995.10         71.1469
995.48        72.15995
995.86        73.30765
996.24        74.39613
996.63        75.40293
997.01        76.23956
997.39        76.55545
997.77        76.29401
998.15        75.52823
998.54         74.5176
998.92         73.5948
999.30        72.93636
999.68         72.5455
1000.06        72.37546
1000.45        72.24806
1000.83        72.22777
1001.21        72.35567
1001.59        72.78371
1001.97        73.70267
1002.35        75.00314
1002.73        76.43919
1003.12        77.70688
1003.50        78.51363
1003.88        78.80729
1004.26        78.69312
1004.64        78.22313
1005.02        77.54475
1005.40        76.76105
1005.78        75.83367
1006.16        74.93305
1006.54        74.29675
1006.92        73.99652
1007.30        74.10479
1007.69         74.3048
1008.07        74.15206
1008.45        73.56104
1008.83        72.64496
1009.21        71.93936
1009.59        72.52309
1009.97        74.44941
1010.35        76.95277
1010.73        79.31506
1011.11        81.10377
1011.49        82.39725
1011.86        83.21134
1012.24        83.19308
1012.62        83.95199
1013.00        83.42078
1013.38        81.59224
1013.76        77.67223
1014.14        80.60385
1014.52        86.59344
1014.90        80.13134
1015.28        82.57365
1015.66        84.44264
1016.04        81.16138
1016.41        80.36124
1016.79         78.4218
1017.17        77.68667
1017.55        77.83473
1017.93        78.82262
1018.31        80.47379
1018.69        81.89411
1019.06        82.82648
1019.44        83.45718
1019.82        83.73765
1020.20        83.55651
1020.58        82.91672
1020.95        81.57829
1021.33         79.9398
1021.71         79.2011
1022.09        79.91445
1022.46        81.59662
1022.84        83.16135
1023.22        83.71642
1023.60        83.33152
1023.97        82.33483
1024.35        81.21949
1024.73        81.01125
