SpectraSmart Spectrum 2.9.0.0
--------- Device Information -----------
Spectrum Name :  反射率_0
Saving Time :  2024/04/21 00:08:05
Spectro-Module Model Name : SE2030-DUVN
Spectro-Module Serial Number : OS361AC55029948
Wavelength Start : 200
Wavelength End : 1025
Wavelength Unit : Wavelength(nm)
Spectrum Unit : Reflectance(%)
-----------Spectrum Setting ------------
Integration Time : 20ms
Average : 10
Boxcar : 0
Background removal :  enabled
linearity correction :  enabled
SC :  disabled
Intensity correction :  disabled
DWT denoise :  enabled
savitzky-golay :  disabled
FFT :  disabled
Running average :  disabled
Kalman :  disabled
High pass :  disabled
---------------BEGIN--------------------
Wavelength(nm)             Reflectance(%)
200.29               0
200.75       -25.80801
201.21        12.20954
201.67        29.39528
202.13        32.65282
202.58        27.36823
203.04        16.20313
203.50        1.281858
203.96       -9.507152
204.42       -11.50205
204.88       -8.051815
205.34       -1.156488
205.80        6.390826
206.26        14.60915
206.72        28.07447
207.18        41.71287
207.64        41.89811
208.10        24.28561
208.55       -8.060061
209.01       -29.94518
209.47       -10.47467
209.93        24.20393
210.39        53.23443
210.85        71.55921
211.31        78.14692
211.77        75.44154
212.23         63.7278
212.69        38.33899
213.14       -4.125611
213.60       -68.87955
214.06       -224.4952
214.52       -508.0347
214.98       -171.7628
215.44       -10.45595
215.90        38.58743
216.36        54.03675
216.81        56.10011
217.27        48.15887
217.73        2.728032
218.19         567.428
218.65        277.7452
219.11       -525.2844
219.57        6.669592
220.02        40.48142
220.48        44.97596
220.94        38.34999
221.40        17.80809
221.86       -29.90248
222.32       -60.35217
222.77       -17.33675
223.23        20.12371
223.69        38.77304
224.15        44.57127
224.61         43.5183
225.06        39.04934
225.52        32.55416
225.98        25.82785
226.44        20.07717
226.90        13.98339
227.36        10.49398
227.81        14.64156
228.27        23.16143
228.73        31.93928
229.19        37.69579
229.65        38.71226
230.10        35.80363
230.56        30.47019
231.02        23.45223
231.48        17.98409
231.93        17.01674
232.39        19.71127
232.85        23.64675
233.31        26.60512
233.77        28.62325
234.22        30.81111
234.68        32.82772
235.14        33.82043
235.60        33.78437
236.05        32.20559
236.51         29.7768
236.97        33.29922
237.43        43.44252
237.88        50.75554
238.34        51.92698
238.80           70.62
239.26        64.39296
239.71        64.26616
240.17        59.65317
240.63        55.01951
241.08        53.41265
241.54        56.22504
242.00        63.85033
242.46         71.0772
242.91        77.25951
243.37        83.39793
243.83        89.04078
244.28        91.14626
244.74        87.99476
245.20        81.45576
245.66        72.82993
246.11        62.71916
246.57        51.10612
247.03        37.84631
247.48        24.22938
247.94        12.76601
248.40        3.196402
248.85       -8.477173
249.31       -20.28044
249.77        23.70576
250.22        58.80938
250.68        57.04793
251.14        53.95826
251.59        54.09839
252.05        57.06126
252.51        62.83988
252.96        69.81339
253.42        72.15842
253.88        66.89365
254.33        58.33659
254.79        55.24966
255.25        61.08692
255.70        70.51848
256.16        79.54607
256.62        85.53088
257.07        87.24841
257.53        86.61718
257.99         84.6684
258.44        82.35847
258.90        81.39095
259.35        80.93034
259.81        80.91692
260.27         80.4493
260.72        78.75143
261.18        76.59713
261.63        74.15598
262.09        72.13031
262.55        70.54885
263.00        69.23813
263.46         68.2639
263.91        67.38194
264.37        66.85259
264.83        66.49417
265.28        66.16399
265.74        65.79961
266.19        65.00161
266.65        63.83398
267.11        62.33867
267.56        60.63976
268.02        59.05789
268.47        57.62478
268.93        56.32404
269.38        55.06449
269.84        53.77916
270.30        52.43667
270.75        51.08074
271.21        49.80616
271.66         48.6591
272.12        47.68654
272.57        46.83127
273.03        46.04536
273.48         45.1899
273.94        44.27644
274.39        43.29803
274.85        42.37613
275.31        41.60554
275.76        40.98469
276.22         40.5092
276.67        40.06573
277.13        39.60773
277.58        39.06094
278.04         38.4958
278.49         37.8873
278.95         37.3163
279.40        36.73826
279.86        36.18241
280.31         35.5923
280.77        35.00316
281.22        34.38263
281.68        33.81229
282.13        33.25808
282.59        32.76693
283.04        32.31352
283.50        31.91605
283.95        31.60483
284.41         31.4733
284.86        31.49959
285.32        31.67036
285.77        31.84277
286.22        31.84345
286.68        31.66935
287.13         31.3347
287.59        31.03123
288.04        30.93574
288.50        31.06736
288.95        31.45192
289.41         31.9806
289.86        32.03928
290.32        31.53536
290.77        32.26295
291.22        31.43104
291.68        31.54683
292.13        31.80676
292.59        32.26126
293.04        32.89042
293.50        33.73522
293.95        34.79629
294.40        36.03667
294.86        37.40658
295.31        38.80917
295.77        40.20765
296.22        41.59481
296.68        42.98002
297.13        44.37538
297.58        45.80885
298.04         47.2771
298.49        48.80495
298.95        50.45724
299.40        52.21572
299.85        54.06862
300.31        55.94909
300.76        57.71749
301.21         59.3627
301.67        60.95137
302.12         62.5357
302.58         64.3187
303.03        66.29608
303.48        68.45148
303.94        70.70569
304.39        72.87171
304.84        74.91177
305.30        76.89455
305.75        78.81866
306.20        80.80559
306.66        82.87997
307.11        84.93398
307.57        86.96296
308.02        88.87337
308.47         90.6719
308.93        92.41845
309.38        94.05885
309.83        95.59585
310.29        97.06156
310.74        98.41532
311.19         99.7157
311.65         101.034
312.10         102.361
312.55        103.6781
313.00        104.9348
313.46        106.0518
313.91         106.991
314.36        107.7939
314.82        108.5003
315.27        109.1577
315.72        109.8047
316.18        110.4348
316.63        111.0624
317.08        111.7122
317.53        112.3772
317.99          113.04
318.44        113.6742
318.89        114.2182
319.35        114.6521
319.80         115.003
320.25        115.2727
320.70        115.4751
321.16        115.6197
321.61        115.7273
322.06        115.8429
322.51        116.0465
322.97        116.3368
323.42         116.736
323.87        117.1669
324.32        117.5142
324.78        117.7267
325.23        117.8784
325.68        118.0064
326.13        118.2114
326.59        118.4917
327.04        118.8667
327.49        119.2734
327.94         119.649
328.39        119.9677
328.85         120.215
329.30        120.4619
329.75        120.6748
330.20        120.8612
330.66        120.9831
331.11        121.1421
331.56        121.3533
332.01        121.6358
332.46        121.9905
332.92        122.3454
333.37        122.7322
333.82        123.0909
334.27        123.4366
334.72        123.8127
335.17        124.2918
335.63        124.8532
336.08         125.535
336.53        126.2464
336.98        126.8964
337.43        127.4498
337.88        127.9168
338.34        128.3073
338.79        128.7159
339.24        129.1311
339.69        129.5333
340.14        129.8907
340.59        130.1581
341.05        130.3377
341.50        130.4735
341.95        130.6167
342.40        130.8488
342.85        131.1926
343.30        131.6215
343.75        132.0999
344.20        132.5718
344.66        133.0194
345.11          133.43
345.56        133.7936
346.01           134.1
346.46        134.3557
346.91        134.5235
347.36        134.6064
347.81        134.7269
348.26         134.913
348.72        134.7441
349.17        134.9405
349.62        134.9099
350.07        134.8757
350.52        134.8245
350.97        134.7548
351.42        134.6515
351.87        134.4998
352.32        134.2977
352.77        134.0556
353.22        133.7877
353.67        133.4949
354.13        133.1991
354.58        132.8314
355.03        132.3394
355.48        131.7313
355.93        131.0384
356.38        130.3684
356.83        129.8808
357.28        129.5873
357.73        129.4177
358.18        129.2377
358.63        128.8352
359.08        128.1572
359.53        127.2763
359.98        126.2752
360.43        125.2796
360.88        124.3339
361.33        123.4019
361.78        122.4923
362.23        121.6198
362.68         120.788
363.13        120.0165
363.58        119.2617
364.03        118.4404
364.48         117.537
364.93        116.5655
365.38        115.6007
365.83        114.7733
366.28        114.1009
366.73        113.5274
367.18        112.9551
367.63        112.2313
368.08        111.3243
368.53         110.301
368.98        109.2181
369.43        108.1475
369.88        107.1203
370.33        106.1155
370.78        105.1715
371.23        104.3716
371.68        103.7344
372.13        103.2359
372.58        102.8087
373.03        102.3279
373.48        101.7423
373.93        101.0728
374.38        100.3197
374.83        99.50563
375.28        98.66638
375.72        97.79202
376.17        96.97123
376.62        96.24057
377.07        95.59562
377.52        95.01292
377.97        94.46745
378.42        93.92838
378.87        93.39292
379.32        92.87841
379.77         92.3677
380.22        91.82011
380.67        91.22141
381.11        90.58154
381.56        89.92742
382.01        89.34085
382.46        88.85552
382.91        88.45553
383.36        88.10249
383.81        87.73132
384.26        87.31677
384.71        86.87133
385.15        86.39959
385.60        85.97731
386.05        85.59061
386.50        85.22562
386.95         84.8484
387.40        84.41974
387.85        83.94697
388.29        83.40271
388.74        82.94494
389.19        82.56796
389.64        82.26891
390.09        82.03051
390.54        81.79967
390.98        81.47514
391.43        81.07654
391.88        80.63279
392.33        80.25537
392.78        79.89242
393.23        79.52158
393.67        79.51704
394.12        79.90487
394.57        78.78951
395.02        78.62141
395.47        78.27779
395.91        78.42799
396.36        78.27312
396.81        77.83163
397.26        77.59854
397.71        77.41911
398.15        77.16365
398.60        76.89976
399.05        76.42984
399.50        75.94757
399.95        76.15771
400.39        76.87293
400.84        76.98301
401.29        76.43302
401.74        75.94444
402.18        75.64108
402.63        75.32966
403.08        75.00737
403.53        74.66312
403.97        74.32347
404.42        73.96328
404.87        73.90704
405.32        73.77882
405.76        73.63751
406.21        73.59323
406.66        73.59645
407.11        73.35812
407.55        72.95196
408.00         72.8712
408.45          73.065
408.90        72.78414
409.34        72.11995
409.79        71.91011
410.24        72.12276
410.68        72.16155
411.13         72.0093
411.58        71.97636
412.03        72.06365
412.47        72.14063
412.92        72.15987
413.37          72.158
413.81        72.11389
414.26         72.0593
414.71        71.97873
415.15        71.88285
415.60         71.7355
416.05        71.55009
416.49        71.34163
416.94        71.10808
417.39        70.89273
417.83        70.74603
418.28         70.6767
418.73        70.66658
419.17        70.66121
419.62         70.5812
420.07        70.41127
420.51        70.17239
420.96        69.94539
421.41        69.80805
421.85        69.75399
422.30        69.78132
422.74         69.8218
423.19        69.93574
423.64        70.06397
424.08        70.11739
424.53        70.05776
424.98        70.06436
425.42        70.16584
425.87        70.21493
426.31        70.20344
426.76        70.29034
427.21        70.46992
427.65        70.47416
428.10        70.21848
428.54        70.56652
428.99        70.22443
429.44        70.17595
429.88        70.02626
430.33        69.98897
430.77        69.97279
431.22        69.90611
431.66        69.78677
432.11        69.80437
432.56        69.99023
433.00        69.94065
433.45        69.52068
433.89        69.65572
434.34        70.32842
434.78        69.56022
435.23          68.854
435.67        69.74218
436.12        70.23936
436.57        70.45202
437.01        69.79013
437.46        69.48306
437.90        70.34903
438.35        69.87621
438.79        70.29716
439.24        70.16695
439.68        70.10107
440.13        69.96381
440.57        69.80916
441.02        69.84077
441.46        69.97188
441.91        69.95827
442.35        69.79601
442.80         69.9362
443.24        70.30352
443.69        70.63403
444.13         70.7776
444.58        70.68255
445.02        70.32424
445.47        70.16124
445.91        70.19773
446.36        70.17915
446.80        70.10655
447.24        70.12869
447.69        70.25623
448.13        70.47646
448.58        70.72825
449.02        70.68927
449.47        70.41801
449.91        70.28324
450.36         70.3308
450.80        70.25935
451.25        70.10805
451.69        70.12339
452.13        70.25146
452.58        70.14346
453.02        69.80981
453.47         69.5752
453.91         69.4461
454.36        69.25485
454.80        69.01008
455.24        68.84369
455.69        68.78707
456.13          68.719
456.58        68.64644
457.02        68.75935
457.46        68.62698
457.91        68.58263
458.35        68.37124
458.79         68.2724
459.24        68.26997
459.68        68.27321
460.13        68.27396
460.57        68.18819
461.01        68.02899
461.46        67.76528
461.90        67.61499
462.34        67.40633
462.79        67.27453
463.23        67.48598
463.68         67.8831
464.12        67.71349
464.56        67.06519
465.01        66.96491
465.45        67.26711
465.89        67.13223
466.34        66.68951
466.78        66.65351
467.22        66.94066
467.67        67.22604
468.11        66.56704
468.55        66.45663
468.99        66.60122
469.44        66.53097
469.88         66.2328
470.32         66.0235
470.77         65.8354
471.21        65.73894
471.65        65.70281
472.10        65.73784
472.54        65.78196
472.98        65.74573
473.42        65.61858
473.87        65.48026
474.31        65.32387
474.75        65.17231
475.20        65.07639
475.64        65.05953
476.08        65.29211
476.52        65.38354
476.97        65.28624
477.41         65.3418
477.85        65.49388
478.29        65.18604
478.74        64.66119
479.18        64.85336
479.62        65.13085
480.06        65.31099
480.50        65.18652
480.95        65.16664
481.39        65.21098
481.83        65.20033
482.27        65.37638
482.72        65.11162
483.16        65.05213
483.60        65.30385
484.04        65.37144
484.48        65.06258
484.93        64.95069
485.37        65.04575
485.81        65.17062
486.25        65.07653
486.69        65.92062
487.14        65.83864
487.58        65.25793
488.02        64.78069
488.46        64.73241
488.90        64.65169
489.34        64.36291
489.79         64.2664
490.23        64.87275
490.67        65.16659
491.11        65.24316
491.55        65.02631
491.99        64.63589
492.43        64.40849
492.88         64.3931
493.32        64.43125
493.76         64.4275
494.20        64.44589
494.64        64.49468
495.08        64.16579
495.52        64.05016
495.96         64.2551
496.41        64.76724
496.85        64.79877
497.29        64.34177
497.73        64.20566
498.17        64.10264
498.61        64.19247
499.05        64.28416
499.49        64.13056
499.93        63.82966
500.37        63.75565
500.82        63.90868
501.26        64.22893
501.70         64.5743
502.14        64.23456
502.58         63.8332
503.02        63.59514
503.46        63.66692
503.90        63.71951
504.34        63.70591
504.78        63.74726
505.22        63.82183
505.66        63.90303
506.10        64.01006
506.54         64.0737
506.98        64.05965
507.42        64.19415
507.86        64.42416
508.30        63.94952
508.74        64.17908
509.18        63.96254
509.62         63.7627
510.06        63.64226
510.50        63.61311
510.94        63.57048
511.38        63.48682
511.82        63.42287
512.26        63.37072
512.70        63.29301
513.14        63.21589
513.58        63.20062
514.02        63.25388
514.46        63.35485
514.90        63.45222
515.34        63.50001
515.78        63.48566
516.22        63.40137
516.66        63.13734
517.10        63.33578
517.54        63.17881
517.98        63.29701
518.42        63.39582
518.86        63.41963
519.30        63.35209
519.74        63.18278
520.18        63.00471
520.62        63.03967
521.06        63.25992
521.50        63.39233
521.93        63.38844
522.37        63.37383
522.81        63.33897
523.25        63.19638
523.69        62.97984
524.13        62.79945
524.57        62.68026
525.01        62.58984
525.45        62.54945
525.89        62.59171
526.32        62.70871
526.76        62.89704
527.20          63.088
527.64        63.17139
528.08        63.12445
528.52        62.97892
528.96         62.8072
529.40        62.71866
529.83        62.73758
530.27         62.8594
530.71        63.01134
531.15        63.07503
531.59        63.02504
532.03        62.90613
532.46        62.76839
532.90        62.70264
533.34        62.72569
533.78        62.80705
534.22        62.90114
534.66        62.94094
535.09        62.90176
535.53        62.82806
535.97        62.74157
536.41         62.6921
536.85        62.69207
537.28        62.72271
537.72        62.76328
538.16        62.78336
538.60        62.77274
539.04        62.74584
539.47        62.69698
539.91        62.66784
540.35        62.64923
540.79        62.63722
541.22        62.62969
541.66        62.63936
542.10        62.65977
542.54        62.68341
542.97        62.69986
543.41        62.72509
543.85        62.75362
544.29        62.79482
544.72        62.81622
545.16         62.8243
545.60        62.80801
546.04        62.69428
546.47        62.55426
546.91         62.6548
547.35        62.91821
547.79        62.99949
548.22        62.86024
548.66        62.66387
549.10         62.4958
549.53        62.49866
549.97         62.6501
550.41        62.68414
550.84        62.58411
551.28        62.53253
551.72        62.54563
552.15        62.55506
552.59        62.57418
553.03        62.60757
553.46        62.63873
553.90        62.63792
554.34        62.58941
554.77         62.5143
555.21        62.46068
555.65        62.43927
556.08        62.44183
556.52        62.66161
556.96        62.67843
557.39        62.78297
557.83        62.83311
558.27        62.70523
558.70         62.4687
559.14         62.3482
559.57        62.35891
560.01        62.50671
560.45        62.67801
560.88        62.56848
561.32        62.29756
561.75         62.1925
562.19        62.31126
562.63        62.51846
563.06        62.70213
563.50        62.62421
563.93        62.32263
564.37        62.15275
564.80        62.14316
565.24        62.23841
565.68        62.40193
566.11         62.4783
566.55        62.45427
566.98        62.55109
567.42        62.78483
567.85        62.44797
568.29        62.43164
568.72        62.41008
569.16         62.6261
569.60        62.69787
570.03        62.73619
570.47        62.76962
570.90        62.79331
571.34        62.99194
571.77        63.02979
572.21        63.11457
572.64        63.03289
573.08        62.78823
573.51        62.97016
573.95        63.37396
574.38        63.18143
574.82        63.48698
575.25        63.57532
575.69         63.3147
576.12         62.8704
576.56        62.84728
576.99        63.18843
577.42        63.07744
577.86        63.24902
578.29        63.73317
578.73        63.78111
579.16        63.30853
579.60        63.33241
580.03        63.45225
580.47        63.25437
580.90        62.80829
581.33          63.518
581.77        63.61169
582.20        64.00267
582.64        63.86393
583.07         63.3925
583.51         63.1896
583.94        63.06898
584.37        63.16301
584.81        62.82168
585.24        62.73966
585.68        63.22144
586.11        62.90661
586.54        63.12221
586.98        63.16577
587.41        63.35541
587.85        63.23127
588.28         63.1227
588.71        63.57464
589.15        63.30555
589.58        62.85459
590.01         62.7294
590.45        62.90395
590.88        62.85614
591.31        62.51783
591.75        62.44252
592.18        62.42427
592.61        62.60709
593.05         63.1574
593.48        63.05844
593.91        63.29589
594.35        63.02799
594.78        63.16406
595.21        62.74292
595.65        62.81123
596.08        63.10738
596.51        63.01368
596.94        62.99714
597.38        62.92551
597.81        63.03558
598.24        62.85129
598.68        62.44584
599.11        62.84872
599.54        63.10145
599.97        62.75848
600.41        62.83366
600.84        63.24493
601.27        63.00613
601.70        63.04816
602.14        62.60252
602.57        62.61005
603.00        62.89115
603.43        62.98843
603.87        62.92044
604.30        62.85855
604.73        63.03116
605.16        62.66903
605.60        62.73674
606.03        62.69698
606.46        62.81426
606.89        62.74784
607.32         62.3941
607.76         63.0415
608.19        62.82519
608.62        62.75661
609.05        63.31983
609.48        62.89232
609.92        63.02045
610.35        62.70259
610.78        62.96079
611.21        62.68562
611.64        62.76775
612.07         62.7795
612.50        62.91849
612.94        62.88431
613.37         62.6386
613.80        63.06005
614.23        62.65085
614.66        62.68324
615.09        62.71077
615.52        62.67601
615.96         62.5711
616.39        62.53524
616.82        62.60063
617.25        62.38371
617.68        62.57524
618.11        62.31862
618.54        62.07379
618.97        61.97671
619.40        62.07387
619.84        62.05751
620.27        62.05318
620.70        61.99571
621.13         61.9546
621.56        62.08768
621.99        62.37156
622.42         62.4914
622.85        62.40032
623.28        62.55521
623.71        62.50476
624.14        62.73376
624.57        62.42227
625.00        62.75917
625.43        62.36221
625.86        62.40559
626.29        62.51786
626.72        62.44469
627.15        62.40898
627.58        62.35375
628.01        62.35612
628.44        62.29233
628.87        62.21139
629.30        62.28629
629.73        62.20261
630.16        62.45439
630.59        62.19631
631.02        62.46276
631.45        62.15808
631.88        62.16803
632.31        62.25038
632.74        62.03075
633.17         62.1364
633.60        62.04637
634.03        61.95995
634.46        61.91288
634.89        61.83624
635.32        61.85328
635.75        61.93057
636.18        62.06105
636.61        62.20195
637.04        62.27531
637.47        62.24407
637.89        62.19747
638.32         62.1761
638.75        62.05631
639.18        61.81112
639.61        62.30632
640.04        62.00818
640.47        62.10419
640.90        62.13319
641.33        62.13928
641.76        62.12967
642.18        62.15176
642.61        62.20992
643.04        62.28329
643.47        62.33925
643.90        62.32554
644.33        62.22688
644.76        62.07275
645.18         61.9267
645.61        61.83394
646.04        61.78903
646.47         62.0238
646.90        61.96278
647.33        62.04471
647.75        62.08947
648.18        62.07333
648.61        62.04004
649.04        62.12761
649.47         62.2753
649.89        62.50856
650.32         62.1815
650.75        62.24821
651.18         62.4549
651.61        62.39109
652.03        62.08441
652.46        61.84911
652.89        61.79407
653.32        61.86006
653.74        61.98335
654.17        62.14753
654.60        61.96181
655.03        61.67298
655.46        61.76359
655.88        62.09938
656.31        63.27419
656.74        66.85082
657.16        65.22533
657.59        63.32943
658.02        61.87146
658.45        62.43656
658.87        62.37484
659.30        62.19743
659.73         62.1252
660.15        61.78671
660.58        61.97831
661.01        62.11071
661.44        62.25824
661.86        62.29101
662.29        62.19075
662.72        62.07534
663.14        62.00346
663.57        62.02631
664.00        62.12119
664.42        62.15055
664.85        62.11529
665.27        62.00034
665.70        62.02138
666.13        61.98853
666.55        61.99066
666.98        62.00579
667.41        62.03094
667.83        62.05825
668.26        62.09209
668.69        62.07767
669.11         62.0111
669.54        62.09881
669.96        62.38768
670.39        62.01374
670.82        62.44806
671.24        62.37554
671.67        62.25093
672.09         62.2356
672.52        62.33745
672.94        62.27345
673.37         62.0812
673.80        62.06271
674.22        62.22298
674.65        62.29743
675.07        62.28479
675.50        62.32511
675.92        62.40832
676.35        62.36383
676.77        62.25872
677.20        62.18951
677.62        62.04479
678.05        61.99492
678.47        61.98178
678.90        62.27203
679.32        62.34373
679.75        62.48924
680.17        62.53371
680.60        62.67475
681.02        62.63285
681.45        62.61604
681.87        62.61781
682.30        62.56332
682.72        62.49871
683.15        62.46635
683.57        62.44542
684.00        62.48196
684.42         62.2541
684.85        62.20996
685.27        62.24621
685.70        62.29399
686.12        62.32335
686.54        62.35911
686.97        62.38745
687.39         62.4281
687.82        62.47678
688.24        62.49736
688.66        62.46583
689.09        62.63966
689.51        62.55155
689.94        62.61868
690.36        62.68831
690.78         62.7282
691.21        62.73521
691.63        62.68428
692.06        62.62419
692.48        62.69091
692.90        62.83027
693.33        62.90673
693.75         62.9114
694.17        62.88576
694.60        62.82708
695.02        62.94183
695.44        62.94717
695.87         62.8489
696.29        62.65447
696.71          62.666
697.14        62.85399
697.56         63.0404
697.98        63.18545
698.41        63.02165
698.83        63.16815
699.25        63.04964
699.68        62.88445
700.10        62.76287
700.52        62.71053
700.94        62.69689
701.37        62.69121
701.79        62.70346
702.21        62.70684
702.64        62.71417
703.06        62.72758
703.48        62.75366
703.90        62.79432
704.33        62.83885
704.75         62.8763
705.17        62.87134
705.59        62.82156
706.01        62.73855
706.44        62.65777
706.86        62.65601
707.28        62.73502
707.70        62.87145
708.12        63.03159
708.55        63.15315
708.97        63.21195
709.39        63.23581
709.81        63.23158
710.23         63.2164
710.66        63.20293
711.08        63.19514
711.50        63.19126
711.92        63.20757
712.34        63.24676
712.76        63.30511
713.19        63.36371
713.61        63.43487
714.03        63.48881
714.45        63.53822
714.87        63.58498
715.29        63.58931
715.71        63.54416
716.13        63.62448
716.56        63.52092
716.98        63.52177
717.40        63.52916
717.82        63.54605
718.24        63.56994
718.66        63.61923
719.08        63.69709
719.50         63.7589
719.92         63.7853
720.34        63.92638
720.76        63.88728
721.19        63.90143
721.61        63.90033
722.03        63.89251
722.45        63.88175
722.87        63.86813
723.29        63.87472
723.71        63.92951
724.13        64.03587
724.55        64.18475
724.97        64.33482
725.39         64.4183
725.81        64.41888
726.23        64.35221
726.65        64.26308
727.07        64.22998
727.49        64.27188
727.91        64.35378
728.33        64.43481
728.75        64.48196
729.17        64.46931
729.59        64.33921
730.01        64.12589
730.43        64.07347
730.85        64.22914
731.27        64.26984
731.69        64.10256
732.10        64.74937
732.52         64.4617
732.94        64.42231
733.36        64.18829
733.78        64.07362
734.20        64.10423
734.62        64.15193
735.04        64.21526
735.46        64.30068
735.88        64.39953
736.30        64.51304
736.72        64.60725
737.13        64.65511
737.55        64.61542
737.97        64.46793
738.39        64.28299
738.81         64.3016
739.23        64.51235
739.65        64.56664
740.06        64.41053
740.48        64.46432
740.90        64.73075
741.32        64.40067
741.74        64.63808
742.16        64.62859
742.57        64.73586
742.99        64.87782
743.41        65.01258
743.83        65.03326
744.25        64.91233
744.67         64.6893
745.08        64.47681
745.50        64.41814
745.92        64.56331
746.34        64.87053
746.75        65.20273
747.17        65.32836
747.59        65.19733
748.01        64.86056
748.42        64.48649
748.84         64.3342
749.26        64.44756
749.68        64.78066
750.09        65.16653
750.51        65.16924
750.93        64.85059
751.35        64.79715
751.76        65.02383
752.18        65.07317
752.60        64.92337
753.01        64.94109
753.43        65.10085
753.85        65.02608
754.27        64.65159
754.68         65.0149
755.10        64.48071
755.52         64.4885
755.93        64.55522
756.35         64.7132
756.77        64.89378
757.18        64.97913
757.60        64.95026
758.02        64.86588
758.43        64.85593
758.85        64.63187
759.26        65.25703
759.68        65.44984
760.10        65.06467
760.51        64.97343
760.93          65.146
761.34        64.73174
761.76        65.11791
762.18         65.1631
762.59        65.20041
763.01        65.35145
763.42        64.79983
763.84        64.93092
764.26        65.12725
764.67        65.45656
765.09        65.71426
765.50         65.8287
765.92        65.80824
766.33        65.66599
766.75        65.45477
767.16        65.35246
767.58        65.33734
768.00        65.48641
768.41        65.74825
768.83        65.67057
769.24         65.3023
769.66        65.59574
770.07        65.63549
770.49        65.78535
770.90        65.74114
771.32        65.54327
771.73        65.29863
772.15        65.24641
772.56        65.43772
772.97        65.73492
773.39        66.01262
773.80         66.1935
774.22        66.20224
774.63        66.08798
775.05        65.91044
775.46        65.82021
775.88         65.8357
776.29        65.93865
776.70        66.06211
777.12        66.10676
777.53        66.06897
777.95        65.98727
778.36        65.90015
778.77        65.85456
779.19        65.86241
779.60        65.90422
780.02        65.98684
780.43        66.11646
780.84        66.27591
781.26        66.52281
781.67        66.81111
782.09        66.78445
782.50        66.51913
782.91        66.53537
783.33        66.78126
783.74        66.83043
784.15        66.63062
784.57        66.47589
784.98        66.43256
785.39        66.45465
785.81        66.55244
786.22          66.731
786.63         66.9323
787.04         67.0635
787.46        67.11456
787.87        67.08533
788.28        67.02354
788.70        67.00258
789.11         67.0181
789.52         67.0474
789.93        67.08932
790.35        67.13436
790.76        67.19614
791.17        67.29595
791.58        67.38519
792.00        67.39478
792.41        67.35395
792.82        67.17055
793.23        66.99741
793.65        67.24585
794.06        67.82822
794.47         68.2473
794.88        68.46033
795.29        68.22997
795.71        68.57037
796.12        68.43748
796.53        68.16349
796.94        67.90408
797.35        67.72892
797.76        67.67142
798.18        67.69749
798.59        67.68567
799.00        67.61381
799.41        67.56404
799.82        67.55726
800.23        67.58846
800.64         67.6573
801.06        67.73564
801.47        67.82965
801.88        67.87589
802.29        67.86578
802.70        67.81816
803.11        67.76186
803.52        67.74654
803.93        67.78989
804.34        67.87403
804.75        68.00079
805.17        68.15827
805.58        68.35714
805.99        68.58759
806.40        68.80301
806.81        68.89582
807.22        68.85699
807.63        68.76773
808.04        68.67198
808.45        68.58935
808.86        68.53954
809.27        68.53703
809.68        68.55605
810.09         68.5301
810.50        68.44772
810.91        68.34439
811.32        68.23254
811.73        68.12704
812.14         68.0393
812.55        67.95719
812.96        67.91601
813.37        67.97724
813.78        68.14037
814.19         68.3801
814.60        68.61119
815.01        68.70298
815.42        68.63139
815.83        68.43375
816.24        68.19289
816.65        68.06936
817.05        68.12498
817.46        68.28468
817.87        68.51785
818.28        68.73422
818.69        68.90424
819.10        69.05608
819.51        69.18933
819.92        69.29774
820.33        69.37696
820.74        69.40855
821.14        69.40616
821.55        69.42267
821.96        69.45503
822.37        69.49683
822.78         69.5123
823.19        69.43575
823.60        69.25751
824.00        69.02197
824.41        68.75344
824.82         68.5611
825.23        68.47924
825.64         68.4925
826.04        68.58566
826.45        68.69024
826.86        68.79726
827.27        68.92068
827.68        69.06632
828.08        69.26391
828.49          69.441
828.90        69.62762
829.31         69.8174
829.72        69.92551
830.12        69.94646
830.53        70.20407
830.94        70.07143
831.35        70.04243
831.75        69.95268
832.16        69.80986
832.57        69.65862
832.97        69.56094
833.38        69.53367
833.79        69.55659
834.20        69.64314
834.60        69.81217
835.01        70.04871
835.42        70.34088
835.82        70.61822
836.23        70.70964
836.64        70.59825
837.04        70.34219
837.45        70.02106
837.86        69.83255
838.26        69.83825
838.67        69.96709
839.08        70.16567
839.48        70.32639
839.89        70.40649
840.29        70.45453
840.70        70.47663
841.11        70.48029
841.51        70.48974
841.92        70.44753
842.33         70.4155
842.73        70.50118
843.14          70.671
843.54        70.93304
843.95        71.16525
844.35        71.19256
844.76         70.9774
845.17        70.58532
845.57        70.18225
845.98        70.00416
846.38        70.14194
846.79        70.49834
847.19        70.96255
847.60        71.27113
848.00        71.38379
848.41        71.33118
848.81        71.24149
849.22        71.25874
849.62        71.45826
850.03        71.73061
850.43        72.00938
850.84        72.09632
851.24        71.99883
851.65         71.7142
852.05        71.37837
852.46        71.12412
852.86        71.01679
853.27        71.06454
853.67        71.12343
854.07        71.13331
854.48        71.04232
854.88        70.89764
855.29         70.7422
855.69         70.8232
856.10        71.08777
856.50        71.55051
856.90        71.98104
857.31        72.05221
857.71        71.74745
858.12        71.10635
858.52        70.35789
858.92         69.8223
859.33        69.59898
859.73        69.66016
860.13        69.87196
860.54        70.00326
860.94          70.037
861.34        69.99065
861.75        69.91226
862.15        69.95476
862.55        70.10659
862.96        70.29964
863.36        70.44163
863.76        70.34595
864.17        69.97793
864.57        69.43005
864.97        68.84546
865.38        68.44683
865.78        68.34911
866.18        68.48902
866.58        68.78809
866.99        69.06223
867.39        69.27603
867.79          69.466
868.19        69.63411
868.60        69.68745
869.00        69.68397
869.40        69.77619
869.80        69.92044
870.21        69.86979
870.61        69.65928
871.01        69.41817
871.41        69.15073
871.81        68.77246
872.22        68.30882
872.62        67.80063
873.02        67.37751
873.42        67.42471
873.82        67.82664
874.22         68.0471
874.63        68.18467
875.03        68.47432
875.43        68.88102
875.83        70.04631
876.23        69.68624
876.63        69.24417
877.03        68.52257
877.44        66.99677
877.84        158.4794
878.24        67.97269
878.64        68.30673
879.04        69.13072
879.44        69.12045
879.84        65.97386
880.24        70.47458
880.64        70.90936
881.04        69.20384
881.44        67.96603
881.84        67.58177
882.24        68.14833
882.65        69.12735
883.05        69.34711
883.45        68.58192
883.85        67.58939
884.25        66.74187
884.65        66.28732
885.05        66.35109
885.45        66.78013
885.85        67.40105
886.25        67.99086
886.65        68.45362
887.05        68.85797
887.45        69.11435
887.85        69.06579
888.25        68.71747
888.65        68.11548
889.04        67.50499
889.44        67.31622
889.84        67.63367
890.24        68.30376
890.64        69.09587
891.04        69.66572
891.44        69.91557
891.84        69.95356
892.24         69.8091
892.64        69.53863
893.04        69.20187
893.44        68.78799
893.83         68.4291
894.23        68.30182
894.63        68.45039
895.03        68.85327
895.43        69.36652
895.83        69.72688
896.23        69.85811
896.63        69.80521
897.02        69.69463
897.42        69.79623
897.82        70.11274
898.22        70.54395
898.62        70.89966
899.01        70.88991
899.41        70.43877
899.81        69.68871
900.21        68.82677
900.61        68.15038
901.00         67.7623
901.40        67.65739
901.80        67.79574
902.20         67.9847
902.59        68.14887
902.99        68.54817
903.39        69.24015
903.79        68.87603
904.18         69.6957
904.58        69.85533
904.98        69.91491
905.38        69.66619
905.77        69.11288
906.17        68.35876
906.57        67.60044
906.96        67.25175
907.36        67.40401
907.76         67.9595
908.15        68.73475
908.55        69.25656
908.95         69.4289
909.34        69.31611
909.74        69.09188
910.14        69.00385
910.53        69.12057
910.93        69.35075
911.33        69.53182
911.72        69.41613
912.12          68.979
912.52        68.33102
912.91        67.67921
913.31         67.4175
913.70          67.605
914.10        68.12114
914.49        68.77119
914.89        69.13702
915.29        69.12398
915.68        68.83034
916.08        68.44905
916.47        68.23823
916.87        68.30836
917.26        68.57809
917.66         68.9188
918.05        69.15414
918.45        69.20576
918.84        69.12159
919.24        69.02864
919.64        69.18496
920.03        69.62991
920.42        70.26658
920.82        70.80183
921.21        70.79193
921.61        70.19498
922.00        69.23013
922.40        68.34546
922.79        68.13626
923.19        68.39919
923.58        69.68288
923.98        71.90653
924.37        72.48792
924.77        70.20018
925.16        76.46822
925.55          70.917
925.95        70.82783
926.34        70.44478
926.74        69.53593
927.13        68.13548
927.52        67.39175
927.92        67.75475
928.31        68.62384
928.70        69.68845
929.10        70.41798
929.49        70.70878
929.89        70.71256
930.28        70.50721
930.67        70.13817
931.07        69.69617
931.46        69.07378
931.85        68.49786
932.24        68.74009
932.64        69.87277
933.03        71.18456
933.42        71.96634
933.82        74.01308
934.21        72.72669
934.60        71.69762
934.99         70.6534
935.39        70.51286
935.78        71.30076
936.17        73.28069
936.56        78.72383
936.96        73.07883
937.35        75.97523
937.74        72.88857
938.13        70.46067
938.53        68.65057
938.92        68.21226
939.31         69.4904
939.70        71.22264
940.09        72.10366
940.49        71.84573
940.88        70.91259
941.27        69.72781
941.66        69.08757
942.05        69.29601
942.44        70.02196
942.84        70.90018
943.23        71.53194
943.62        71.77715
944.01        71.75818
944.40        71.68026
944.79        71.85931
945.18        72.35364
945.57        73.03327
945.97        73.56399
946.36        73.55937
946.75        72.90324
947.14        71.73737
947.53        70.45844
947.92         69.7472
948.31        69.79533
948.70        70.40917
949.09        71.18928
949.48         71.5024
949.87        71.20399
950.26        70.51207
950.65        69.72476
951.04        69.32366
951.43        69.45419
951.82         69.9395
952.21        70.61138
952.60        71.19431
952.99        71.55131
953.38        71.74742
953.77        71.80131
954.16        71.73249
954.55        71.56884
954.94        71.30788
955.33        70.95931
955.72        70.57476
956.11        70.20009
956.50         69.8409
956.89        69.60812
957.28         69.6472
957.66        69.99534
958.05        70.54711
958.44         71.0848
958.83        71.26259
959.22        71.00713
959.61        70.37448
960.00        69.62781
960.39        69.29043
960.78        69.51249
961.16        70.15827
961.55        70.82285
961.94         71.0381
962.33        70.72172
962.72        70.01658
963.11        69.21608
963.49         68.9237
963.88        69.31409
964.27        70.14993
964.66        71.09048
965.04        71.70215
965.43        71.82468
965.82        71.63472
966.21         71.2416
966.60        70.84044
966.98        70.53002
967.37        70.23988
967.76        70.00381
968.15        69.87677
968.53        69.88699
968.92        70.03393
969.31        70.24579
969.69        70.36884
970.08        70.32751
970.47        70.13052
970.86         69.9111
971.24        69.92063
971.63        70.17725
972.02            70.6
972.40        70.96069
972.79        70.83453
973.17        70.21862
973.56        69.26462
973.95        68.29211
974.33        67.86479
974.72        68.14569
975.11         68.9381
975.49        70.09534
975.88        71.28339
976.26        72.40192
976.65        73.43181
977.04        74.22355
977.42        74.54442
977.81        74.32914
978.19        73.55891
978.58        72.69115
978.96        72.54492
979.35          73.271
979.74        74.56725
980.12        75.84245
980.51        76.15989
980.89        75.49217
981.28        73.99257
981.66        72.07725
982.05        70.82741
982.43        70.70853
982.82         71.4828
983.20         72.6488
983.59        73.37955
983.97        73.49391
984.35        73.18551
984.74        72.70925
985.12        72.58975
985.51        72.92578
985.89        73.57422
986.28        74.21191
986.66        74.46674
987.04        74.30847
987.43        73.77045
987.81        72.95827
988.20        73.31783
988.58        75.10612
988.96        75.82551
989.35        74.64837
989.73        79.57862
990.12        76.39845
990.50        76.04468
990.88        74.97169
991.27        74.18462
991.65        73.81718
992.03        73.91423
992.42        74.32767
992.80        74.28641
993.18        73.63876
993.56        72.67243
993.95        71.75084
994.33        71.41032
994.71        71.79739
995.10        72.66305
995.48        73.79704
995.86        74.85234
996.24         75.6556
996.63        76.22665
997.01        76.57304
997.39        76.51403
997.77        76.05671
998.15        75.23843
998.54        74.35908
998.92        73.80053
999.30        73.73727
999.68        74.18855
1000.06        74.91383
1000.45        75.32344
1000.83        75.33042
1001.21        75.03703
1001.59        74.88789
1001.97        75.54556
1002.35        76.98421
1002.73        78.80027
1003.12        80.45167
1003.50        81.31965
1003.88        81.29209
1004.26        80.56545
1004.64        79.36882
1005.02        78.21369
1005.40        77.37948
1005.78        76.78155
1006.16        76.37273
1006.54        76.01186
1006.92        75.66277
1007.30        75.47143
1007.69         75.4196
1008.07        75.51681
1008.45        75.74487
1008.83        76.09403
1009.21        76.61939
1009.59        77.42144
1009.97        78.37631
1010.35        79.23318
1010.73        79.95987
1011.11        80.81229
1011.49        81.94698
1011.86        83.16127
1012.24        83.95747
1012.62        85.36121
1013.00        85.14769
1013.38        83.53049
1013.76        79.90161
1014.14        82.45875
1014.52        87.86126
1014.90        81.96107
1015.28        84.15023
1015.66        85.96708
1016.04         83.3159
1016.41        83.00189
1016.79        81.64832
1017.17        81.07405
1017.55        80.98341
1017.93        81.42999
1018.31        82.35583
1018.69        83.18233
1019.06        83.77242
1019.44        84.18526
1019.82        84.46791
1020.20        84.65264
1020.58        84.78997
1020.95        84.83303
1021.33        84.77721
1021.71        84.44701
1022.09         83.9237
1022.46        83.41118
1022.84        83.15067
1023.22        83.35989
1023.60        84.00716
1023.97        85.04321
1024.35        86.25188
1024.73        87.10609
