SpectraSmart Spectrum 2.9.0.0
--------- Device Information -----------
Spectrum Name :  反射率_0
Saving Time :  2024/04/21 00:51:37
Spectro-Module Model Name : SE2030-DUVN
Spectro-Module Serial Number : OS361AC55029948
Wavelength Start : 200
Wavelength End : 1025
Wavelength Unit : Wavelength(nm)
Spectrum Unit : Reflectance(%)
-----------Spectrum Setting ------------
Integration Time : 20ms
Average : 10
Boxcar : 0
Background removal :  enabled
linearity correction :  enabled
SC :  disabled
Intensity correction :  disabled
DWT denoise :  enabled
savitzky-golay :  disabled
FFT :  disabled
Running average :  disabled
Kalman :  disabled
High pass :  disabled
---------------BEGIN--------------------
Wavelength(nm)             Reflectance(%)
200.29               0
200.75         2.08564
201.21        12.85313
201.67        17.75213
202.13        21.67668
202.58        25.83517
203.04        31.39594
203.50         37.2192
203.96        38.78596
204.42        33.89119
204.88        23.74611
205.34        12.16505
205.80        3.265842
206.26       -2.037675
206.72       -1.804578
207.18     0.009617768
207.64       -7.315247
208.10       -25.67311
208.55       -51.34686
209.01       -61.46768
209.47        -32.9549
209.93        5.333932
210.39        35.10912
210.85        53.24309
211.31        59.82808
211.77        57.48369
212.23        46.30735
212.69        21.35818
213.14       -22.35099
213.60       -93.68666
214.06       -277.4119
214.52       -649.8054
214.98       -269.5103
215.44       -65.59925
215.90       0.5669056
216.36        21.61881
216.81         22.4022
217.27        5.445031
217.73       -82.22554
218.19        970.8503
218.65        403.8182
219.11       -844.1029
219.57       -27.14702
220.02        23.75479
220.48        30.91184
220.94        22.18438
221.40       -6.017568
221.86       -72.11073
222.32       -114.6865
222.77       -55.26366
223.23       -3.382533
223.69        22.90587
224.15        32.04366
224.61        32.34416
225.06         28.6161
225.52        22.20093
225.98        14.57904
226.44        7.009638
226.90       -2.023582
227.36       -7.970239
227.81       -2.745351
228.27        9.354055
228.73        22.11229
229.19        30.62448
229.65        32.53187
230.10        29.02353
230.56        21.82876
231.02        12.33805
231.48        5.991038
231.93        6.684662
232.39        12.35643
232.85          18.713
233.31        22.06926
233.77        22.61988
234.22        22.04135
234.68        20.83172
235.14        19.82905
235.60        19.73986
236.05        19.45162
236.51        18.99869
236.97         24.4748
237.43        35.86794
237.88        43.06654
238.34        42.30404
238.80        63.04062
239.26        53.08692
239.71        50.54832
240.17        41.65569
240.63        32.55788
241.08        27.64392
241.54         30.3829
242.00        40.62811
242.46        47.21898
242.91        47.25859
243.37        41.71351
243.83        32.46563
244.28        27.68176
244.74         32.1069
245.20        40.83727
245.66        48.43281
246.11         50.0032
246.57        45.07051
247.03        35.40118
247.48         22.8972
247.94        10.91096
248.40       -1.165075
248.85       -22.74204
249.31       -77.38857
249.77       -109.9115
250.22       -24.43781
250.68        8.385994
251.14        19.04449
251.59        23.26475
252.05        25.75267
252.51        28.52367
252.96        30.94065
253.42         31.6253
253.88        30.35979
254.33        28.81027
254.79        31.74175
255.25        40.35116
255.70        50.25582
256.16        58.61041
256.62        64.18563
257.07        66.54609
257.53        67.09774
257.99        66.58125
258.44        65.33368
258.90        64.32694
259.35        63.13963
259.81        62.10184
260.27        60.97032
260.72         59.6291
261.18         58.4909
261.63        57.31891
262.09        56.33678
262.55        55.30283
263.00        54.11213
263.46        52.99983
263.91        51.86411
264.37        51.01499
264.83        50.37767
265.28        49.83637
265.74        49.39253
266.19        48.82835
266.65         48.1734
267.11        47.40771
267.56         46.5498
268.02        45.73226
268.47         44.9185
268.93        44.10209
269.38        43.18692
269.84        42.09672
270.30        40.82385
270.75        39.43692
271.21        38.06229
271.66        36.81454
272.12        35.77566
272.57        34.90117
273.03        34.20205
273.48        33.63719
273.94        33.19578
274.39        32.83325
274.85        32.52062
275.31        32.14435
275.76        31.66898
276.22        31.15169
276.67        30.60895
277.13        30.15637
277.58         29.7737
278.04         29.4628
278.49        29.15095
278.95        28.82498
279.40        28.42865
279.86         28.0035
280.31        27.53677
280.77         27.0978
281.22         26.6653
281.68        26.29284
282.13        25.90251
282.59        25.46128
283.04        24.95318
283.50        24.42883
283.95        24.00466
284.41        23.88257
284.86        24.06808
285.32        24.50026
285.77        24.97814
286.22        25.22934
286.68        25.22547
287.13        25.01317
287.59        24.81196
288.04        24.84916
288.50        25.14301
288.95        25.70817
289.41        26.40936
289.86        26.57676
290.32        26.10175
290.77        26.93112
291.22        26.05029
291.68        26.16094
292.13        26.40195
292.59        26.82581
293.04        27.42265
293.50         28.2488
293.95        29.31291
294.40        30.57857
294.86        31.98423
295.31        33.41186
295.77        34.82184
296.22        36.21661
296.68        37.62799
297.13        39.10681
297.58        40.68559
298.04        42.34693
298.49        44.08607
298.95        45.91853
299.40        47.81263
299.85        49.76678
300.31        51.73447
300.76        53.61362
301.21         55.3978
301.67        57.13589
302.12        58.86172
302.58        60.74715
303.03        62.78337
303.48        64.96269
303.94        67.21761
304.39        69.38152
304.84        71.41953
305.30         73.3905
305.75        75.28632
306.20        77.21503
306.66        79.19724
307.11        81.13433
307.57        83.02312
308.02        84.77715
308.47        86.40316
308.93        87.95973
309.38        89.39819
309.83        90.71792
310.29        91.96704
310.74        93.09607
311.19        94.16386
311.65        95.23175
312.10        96.29569
312.55        97.34888
313.00         98.3512
313.46        99.23987
313.91        99.98092
314.36        100.6013
314.82        101.1466
315.27        101.6768
315.72          102.22
316.18         102.764
316.63         103.272
317.08        103.6885
317.53        104.0007
317.99        104.2252
318.44        104.4174
318.89        104.6469
319.35        104.9299
319.80        105.2583
320.25        105.5761
320.70        105.7976
321.16        105.8974
321.61        105.9195
322.06        105.9328
322.51        106.0556
322.97        106.3001
323.42        106.6673
323.87        107.0593
324.32        107.3341
324.78        107.4326
325.23        107.4285
325.68        107.3943
326.13         107.482
326.59        107.7027
327.04        108.0664
327.49        108.4466
327.94        108.6704
328.39         108.695
328.85        108.5437
329.30        108.3975
329.75        108.4219
330.20        108.6709
330.66        109.0526
331.11         109.526
331.56        109.8796
332.01        110.0607
332.46        110.1292
332.92        110.1182
333.37        110.2306
333.82        110.4718
334.27        110.8033
334.72         111.205
335.17        111.6472
335.63        112.0782
336.08        112.5675
336.53        113.0697
336.98        113.5537
337.43        114.0063
337.88        114.4217
338.34        114.7774
338.79        115.1096
339.24           115.4
339.69        115.6471
340.14        115.8726
340.59        116.1116
341.05        116.3791
341.50        116.6885
341.95        117.0139
342.40        117.3132
342.85        117.5776
343.30        117.8111
343.75        118.0545
344.20        118.3795
344.66        118.7923
345.11        119.2339
345.56        119.6256
346.01         119.844
346.46        119.8767
346.91         119.768
347.36        119.5682
347.81        119.4178
348.26        119.3635
348.72        119.1471
349.17        119.2063
349.62        119.2999
350.07        119.5437
350.52         119.906
350.97        120.2294
351.42        120.2479
351.87        119.9038
352.32        119.2708
352.77        118.5524
353.22        118.0674
353.67         117.881
354.13        117.9133
354.58        117.9434
355.03         117.671
355.48        117.0318
355.93        116.1395
356.38        115.1854
356.83        114.4513
357.28        113.9925
357.73        113.7035
358.18        113.4329
358.63        112.9458
359.08        112.1911
359.53        111.2733
359.98        110.2937
360.43        109.3947
360.88        108.6191
361.33        107.9055
361.78        107.2521
362.23        106.6637
362.68        106.1209
363.13        105.6272
363.58        105.0909
364.03          104.36
364.48        103.4116
364.93        102.2879
365.38        101.1217
365.83        100.1381
366.28        99.39108
366.73         98.8107
367.18        98.28616
367.63        97.63643
368.08        96.81389
368.53         95.8892
368.98        94.91173
369.43        93.94127
369.88        93.00259
370.33        92.07159
370.78        91.17349
371.23        90.37558
371.68        89.69897
372.13        89.13079
372.58        88.63953
373.03        88.15247
373.48         87.6352
373.93        87.10291
374.38        86.52617
374.83        85.87509
375.28        85.16378
375.72        84.38587
376.17        83.65149
376.62        83.05353
377.07        82.59093
377.52        82.22192
377.97        81.85213
378.42        81.33494
378.87        80.65853
379.32         79.9003
379.77        79.14462
380.22        78.49461
380.67        77.96434
381.11        77.50872
381.56        77.10974
382.01        76.76259
382.46        76.45695
382.91        76.20093
383.36        75.92606
383.81        75.52216
384.26        74.97471
384.71        74.31501
385.15        73.63451
385.60        73.14251
386.05        72.85487
386.50        72.71683
386.95        72.62297
387.40        72.40921
387.85        72.04574
388.29        71.55122
388.74        71.09259
389.19        70.71849
389.64        70.43092
390.09        70.16904
390.54        69.90643
390.98        69.59885
391.43        69.28441
391.88        68.98833
392.33        68.67421
392.78        68.32404
393.23        67.95361
393.67        67.41856
394.12        66.91853
394.57        66.85926
395.02         67.1183
395.47        66.99947
395.91        66.51169
396.36        66.23248
396.81        66.19163
397.26        66.05747
397.71        65.81645
398.15        65.57214
398.60         65.3911
399.05        65.18137
399.50        65.00781
399.95         64.9292
400.39        64.94376
400.84        65.11108
401.29        65.28661
401.74        64.90737
402.18        64.08613
402.63        63.60937
403.08        63.51695
403.53         63.2312
403.97        62.77546
404.42        62.56334
404.87        62.55759
405.32        62.55229
405.76        62.51225
406.21        62.40499
406.66        62.27336
407.11        62.35897
407.55        62.57726
408.00        62.52182
408.45        62.18125
408.90        61.64771
409.34         61.1114
409.79        61.06742
410.24        61.38929
410.68        61.39721
411.13        61.05159
411.58        60.75957
412.03        60.59566
412.47        60.50208
412.92        60.48208
413.37        60.56281
413.81        60.67554
414.26        60.76544
414.71         60.7962
415.15        60.79011
415.60        60.74712
416.05        60.72633
416.49        60.74216
416.94        60.76466
417.39        60.76695
417.83        60.70486
418.28        60.57418
418.73        60.38928
419.17        60.18935
419.62        60.04755
420.07        59.98339
420.51         59.9747
420.96         60.0037
421.41        60.00031
421.85        59.93214
422.30        59.84622
422.74         59.7567
423.19        59.82113
423.64        60.00902
424.08        60.20098
424.53        60.31287
424.98        60.41328
425.42        60.49315
425.87        60.48293
426.31        60.41052
426.76        60.32699
427.21        60.25383
427.65        60.26207
428.10        60.29796
428.54        60.25356
428.99          60.152
429.44        60.04331
429.88        59.95543
430.33        59.93705
430.77        59.93748
431.22        60.13319
431.66        60.41457
432.11        60.39064
432.56         60.1571
433.00        60.10332
433.45        60.08538
433.89        60.22835
434.34        60.60303
434.78        59.50922
435.23        59.41171
435.67        60.13032
436.12        60.26856
436.57        60.37296
437.01        59.94739
437.46        59.92024
437.90        60.04699
438.35        60.55614
438.79          60.419
439.24        60.47219
439.68        60.46624
440.13        60.21641
440.57        59.86215
441.02        60.17271
441.46         60.9417
441.91        60.91278
442.35         60.2336
442.80        60.35248
443.24        61.10614
443.69        61.28886
444.13        60.86494
444.58        60.57695
445.02        60.49666
445.47         60.5972
445.91        60.79316
446.36        60.81719
446.80        60.63551
447.24        60.43175
447.69         60.3223
448.13        60.30592
448.58        60.60769
449.02        60.70248
449.47        60.63399
449.91        60.58763
450.36         60.5745
450.80        60.38025
451.25        60.09041
451.69        59.99831
452.13         60.0825
452.58        60.01455
453.02        59.78922
453.47        59.66457
453.91        59.63161
454.36        59.55381
454.80        59.42448
455.24        59.30833
455.69        59.22437
456.13        59.12238
456.58        59.03294
457.02        58.96181
457.46        58.88614
457.91        58.79046
458.35        58.76348
458.79        58.68941
459.24        58.59523
459.68        58.52771
460.13         58.5394
460.57        58.38652
461.01        58.04024
461.46        58.41393
461.90        58.05111
462.34        57.86527
462.79         57.6466
463.23        57.63501
463.68        57.82198
464.12        57.62053
464.56        57.18514
465.01        57.49082
465.45        58.24134
465.89        58.36419
466.34        57.92271
466.78        57.58826
467.22        57.37424
467.67        57.61245
468.11        56.74995
468.55         56.7803
468.99         57.1173
469.44        57.17274
469.88        56.89224
470.32        56.59128
470.77        56.37062
471.21         56.2186
471.65        56.16721
472.10        56.21499
472.54        56.28164
472.98        56.28199
473.42         56.2028
473.87        56.03031
474.31        55.81858
474.75        55.86602
475.20        56.11014
475.64        56.15527
476.08        56.00351
476.52        55.95534
476.97        55.99042
477.41        56.03215
477.85          56.021
478.29        55.83615
478.74         55.3148
479.18        55.45073
479.62        55.70541
480.06        55.88201
480.50        55.84572
480.95        55.79585
481.39        55.67702
481.83        56.14289
482.27        55.93406
482.72        56.06804
483.16        55.95056
483.60         56.2779
484.04        56.27533
484.48        55.89645
484.93        55.60706
485.37        55.83795
485.81         56.3603
486.25        56.15202
486.69        58.01628
487.14        58.27862
487.58        57.22585
488.02         56.0105
488.46        55.49933
488.90        55.50098
489.34        55.55472
489.79        55.08377
490.23        55.39714
490.67        55.52541
491.11        55.81747
491.55        55.67548
491.99        55.21766
492.43        55.03062
492.88        55.15848
493.32        55.34071
493.76        55.45126
494.20        55.53349
494.64        55.58813
495.08        55.19149
495.52        55.05484
495.96        55.12202
496.41        55.46083
496.85        55.42021
497.29        55.00687
497.73         54.9213
498.17        54.88459
498.61        54.95469
499.05        54.96326
499.49        54.76022
499.93        54.45858
500.37        54.38597
500.82        54.54493
501.26        54.89162
501.70        55.27581
502.14        55.00465
502.58        54.62613
503.02        54.43938
503.46        54.57114
503.90        54.66539
504.34        54.65908
504.78        54.67202
505.22        54.70629
505.66        54.65923
506.10        54.54459
506.54        54.54042
506.98        54.66932
507.42        54.09179
507.86        54.66664
508.30        53.91747
508.74        54.30577
509.18        54.19755
509.62        54.16389
510.06        54.15915
510.50         54.1557
510.94        54.09036
511.38        53.95982
511.82        53.87403
512.26        53.84038
512.70        53.81122
513.14        53.78574
513.58        53.78038
514.02        53.79239
514.46        53.81429
514.90        53.82517
515.34        53.84066
515.78        53.86257
516.22        53.83132
516.66        53.60856
517.10        53.87275
517.54        53.59151
517.98         53.5794
518.42        53.53547
518.86         53.4957
519.30        53.46172
519.74        53.40764
520.18        53.36321
520.62        53.43071
521.06        53.57067
521.50        53.57801
521.93        53.46708
522.37        53.43214
522.81        53.48253
523.25          53.509
523.69        53.48563
524.13        53.42308
524.57        53.32243
525.01        53.18652
525.45        53.06314
525.89        53.02746
526.32        53.08939
526.76        53.22676
527.20        53.38346
527.64        53.47096
528.08        53.46434
528.52        53.39251
528.96        53.28717
529.40        53.19194
529.83        53.12274
530.27        53.09253
530.71        53.08387
531.15        53.06785
531.59        53.04061
532.03        53.01913
532.46        53.00889
532.90        53.02698
533.34        53.06831
533.78        53.12069
534.22        53.16783
534.66         53.1879
535.09        53.16748
535.53        53.13181
535.97        53.07545
536.41        53.00493
536.85        52.92786
537.28        52.84639
537.72        52.77748
538.16         52.7488
538.60        52.76333
539.04        52.81249
539.47        52.86371
539.91           52.91
540.35        52.93019
540.79        52.93389
541.22        52.92264
541.66         52.9126
542.10         52.9051
542.54        52.89291
542.97        52.87901
543.41        52.89807
543.85        52.94514
544.29         53.0185
544.72        53.08183
545.16        53.11496
545.60        53.10244
546.04        53.02581
546.47        52.93043
546.91         52.9524
547.35        53.07233
547.79        53.13767
548.22        53.10812
548.66        53.07008
549.10        53.03175
549.53        52.95211
549.97        52.86827
550.41        52.84144
550.84        52.89111
551.28        52.96892
551.72        53.04015
552.15        53.15035
552.59        53.31898
553.03        53.11582
553.46        53.28416
553.90        53.20932
554.34        53.10978
554.77        52.96685
555.21        52.85402
555.65        52.84465
556.08        52.93285
556.52        53.15227
556.96        53.39891
557.39        53.43488
557.83        53.28512
558.27        53.17749
558.70         53.1395
559.14        53.07943
559.57        53.00296
560.01        53.04228
560.45        53.13563
560.88          53.117
561.32        53.03519
561.75        52.91395
562.19          52.837
562.63        52.97099
563.06        53.21989
563.50        53.18686
563.93         52.8984
564.37        52.74025
564.80        52.75031
565.24        52.88606
565.68        53.09404
566.11        53.21869
566.55        53.25118
566.98        53.32468
567.42        53.43491
567.85        53.37242
568.29        53.22645
568.72         53.2229
569.16        53.40567
569.60        53.52145
570.03        53.58965
570.47        53.75048
570.90        54.00181
571.34        53.96893
571.77        54.41504
572.21         54.4118
572.64        54.63141
573.08         54.4019
573.51        53.99594
573.95        54.24547
574.38        54.31514
574.82        54.83548
575.25         54.6537
575.69        55.00404
576.12        54.15529
576.56        54.41187
576.99        54.80733
577.42        54.94229
577.86        54.95653
578.29        55.50788
578.73        55.78453
579.16        55.53509
579.60        54.55564
580.03        54.83123
580.47        54.69991
580.90        54.62283
581.33        54.93215
581.77        55.18769
582.20         55.8479
582.64        56.15763
583.07        55.72239
583.51        55.20354
583.94        54.73677
584.37        54.23294
584.81        53.89276
585.24         54.2257
585.68        55.34261
586.11        55.02155
586.54        55.01323
586.98        54.82898
587.41        54.30516
587.85        54.67763
588.28        54.63383
588.71        54.91065
589.15        54.41951
589.58        54.11385
590.01        53.91835
590.45        53.84226
590.88        54.08425
591.31        53.77092
591.75        53.59632
592.18        53.47454
592.61        53.66795
593.05        54.12116
593.48        54.15253
593.91        54.97122
594.35        54.57007
594.78        54.44731
595.21        54.09426
595.65        53.96552
596.08        54.02865
596.51        54.26045
596.94        54.14158
597.38        54.06628
597.81         53.8885
598.24        54.11134
598.68        53.83933
599.11        53.96046
599.54        54.21823
599.97        54.51842
600.41         53.9473
600.84        54.15566
601.27        54.11521
601.70         54.3154
602.14        53.97497
602.57        53.92722
603.00        53.97552
603.43        54.35941
603.87        54.51325
604.30        54.35873
604.73        54.16998
605.16        54.06329
605.60        54.02657
606.03        54.04091
606.46        54.03794
606.89        54.10502
607.32        53.82806
607.76         54.2746
608.19        54.24088
608.62         54.0281
609.05        54.83249
609.48        54.13581
609.92        53.91196
610.35        54.27658
610.78        54.36901
611.21        54.28675
611.64        54.24179
612.07        54.09097
612.50        54.06627
612.94        53.94213
613.37        53.72324
613.80        54.20642
614.23        54.02202
614.66        53.97727
615.09        53.72468
615.52         53.6331
615.96        53.71383
616.39        53.71756
616.82        53.65271
617.25          53.778
617.68        53.86677
618.11        53.85576
618.54        53.83245
618.97         53.5943
619.40        53.24445
619.84        53.33422
620.27        53.34963
620.70        53.44115
621.13        53.40231
621.56        53.35334
621.99        53.34433
622.42        53.32433
622.85        53.25717
623.28        53.47908
623.71        53.64058
624.14        53.31624
624.57        53.45881
625.00        53.69658
625.43        53.31321
625.86        53.31021
626.29        53.39342
626.72        53.22243
627.15         53.1543
627.58        53.03292
628.01        53.14624
628.44        52.82788
628.87        52.73444
629.30        53.08165
629.73          52.944
630.16        52.78049
630.59         52.7276
631.02        52.91095
631.45        52.70812
631.88        52.75238
632.31         52.8454
632.74        52.71595
633.17        52.86918
633.60        52.80796
634.03        52.69222
634.46        52.57264
634.89        52.41396
635.32        52.35821
635.75         52.3893
636.18        52.48874
636.61        52.60934
637.04        52.67717
637.47        52.67175
637.89        52.62118
638.32        52.53804
638.75        52.46642
639.18        52.42273
639.61        52.39507
640.04        52.38499
640.47        52.39661
640.90        52.42677
641.33        52.47482
641.76         52.5295
642.18        52.57542
642.61        52.59387
643.04        52.59315
643.47        52.57524
643.90         52.5511
644.33        52.52602
644.76        52.48449
645.18        52.43684
645.61        52.42584
646.04        52.44083
646.47        52.41054
646.90        52.34726
647.33        52.33271
647.75         52.3634
648.18        52.41556
648.61        52.49536
649.04        52.54581
649.47         52.5442
649.89        52.82747
650.32         52.7958
650.75        52.83013
651.18        52.75521
651.61        52.66323
652.03        52.58194
652.46        52.46461
652.89        52.38749
653.32        52.53763
653.74        52.70679
654.17        52.98879
654.60         52.3261
655.03        52.31113
655.46        52.53865
655.88        53.18303
656.31        54.93316
656.74        60.64054
657.16        59.40269
657.59        57.48934
658.02        54.44743
658.45        53.57443
658.87        52.97779
659.30        53.19197
659.73        52.77753
660.15        52.05535
660.58        52.64273
661.01        52.82499
661.44        53.01518
661.86        52.98913
662.29        52.76841
662.72        52.59227
663.14        52.51581
663.57        52.49996
664.00        52.53941
664.42        52.59627
664.85        52.66948
665.27        52.70546
665.70         52.8473
666.13        52.89387
666.55        52.88843
666.98          52.833
667.41        52.75538
667.83        52.71235
668.26        52.72892
668.69        52.74527
669.11        52.73487
669.54        52.84485
669.96        53.10705
670.39        52.76902
670.82        53.11069
671.24        53.11692
671.67        53.14701
672.09        53.18255
672.52        53.22491
672.94        53.14273
673.37        52.97142
673.80        52.90249
674.22        52.95156
674.65        52.95326
675.07        52.92096
675.50        52.94316
675.92        53.00936
676.35        53.03527
676.77        53.00838
677.20        52.97475
677.62        52.96713
678.05        52.94149
678.47        52.88931
678.90        53.13925
679.32        53.08326
679.75         53.1915
680.17        53.27739
680.60        53.35804
681.02        53.41762
681.45        53.44378
681.87         53.4433
682.30        53.38829
682.72        53.32235
683.15        53.32476
683.57        53.35942
684.00        53.45433
684.42        53.20715
684.85        53.19248
685.27        53.28425
685.70        53.37984
686.12         53.4394
686.54        53.48635
686.97        53.50781
687.39         53.5174
687.82        53.52921
688.24        53.54259
688.66        53.54392
689.09        53.74107
689.51        53.71243
689.94        53.78917
690.36        53.82933
690.78        53.78996
691.21        53.70095
691.63        53.61629
692.06        53.59097
692.48        53.69608
692.90        53.88364
693.33        53.97235
693.75        53.94761
694.17         53.8788
694.60        53.78367
695.02        53.80906
695.44        53.74236
695.87        53.72472
696.29        53.72205
696.71         53.7442
697.14        53.78971
697.56        53.98571
697.98        54.26895
698.41        54.16255
698.83        54.19081
699.25        53.98545
699.68        53.76582
700.10        53.60683
700.52        53.54379
700.94        53.55304
701.37        53.58797
701.79        53.62247
702.21        53.62325
702.64        53.60993
703.06        53.60122
703.48        53.62963
703.90        53.70383
704.33        53.80643
704.75        53.91027
705.17        53.95781
705.59        53.93863
706.01        53.86566
706.44        53.79395
706.86        53.82835
707.28        53.97519
707.70         54.2004
708.12        54.42992
708.55        54.54494
708.97        54.51324
709.39        54.37565
709.81        54.19496
710.23        54.08548
710.66        54.08645
711.08        54.17701
711.50         54.2874
711.92        54.32235
712.34        54.26085
712.76        54.13318
713.19        53.99809
713.61        53.99091
714.03        54.11629
714.45        54.34295
714.87          54.593
715.29        54.71275
715.71         54.6663
716.13        54.63771
716.56        54.42448
716.98        54.38067
717.40        54.44992
717.82        54.59983
718.24         54.7705
718.66        54.86919
719.08        54.87302
719.50        54.81425
719.92        54.73473
720.34        54.69648
720.76        54.71695
721.19        54.76377
721.61         54.8329
722.03        54.89442
722.45        54.93724
722.87        54.97406
723.29        54.99802
723.71        54.99533
724.13        54.96797
724.55        54.91722
724.97        54.87149
725.39        54.88043
725.81        54.95178
726.23         55.0676
726.65        55.19024
727.07        55.26453
727.49        55.27829
727.91        55.23617
728.33        55.16376
728.75        55.14605
729.17        55.18225
729.59        55.16552
730.01        55.12342
730.43        55.18692
730.85        55.35798
731.27        55.54684
731.69        55.71395
732.10        55.79938
732.52        55.94194
732.94        55.75826
733.36        55.39527
733.78        55.21559
734.20        55.27089
734.62        55.37134
735.04        55.47412
735.46        55.57564
735.88        55.65971
736.30        55.75898
736.72        55.82836
737.13        55.81432
737.55         55.6855
737.97        55.39989
738.39        55.09372
738.81        55.15905
739.23        55.55631
739.65        55.80717
740.06        55.79128
740.48        55.81091
740.90        55.81951
741.32        55.61607
741.74        55.29325
742.16         55.1446
742.57        55.23509
742.99         55.4621
743.41        55.72293
743.83        55.83963
744.25         55.7675
744.67        55.56381
745.08         55.3418
745.50        55.24677
745.92        55.33491
746.34        55.55807
746.75        55.81246
747.17         55.9305
747.59         55.8732
748.01        55.66518
748.42        55.42746
748.84        55.37288
749.26        55.51317
749.68        55.74953
750.09        55.97482
750.51        55.93944
750.93        55.71294
751.35        55.73661
751.76        56.00174
752.18        56.11195
752.60        56.05437
753.01        56.08474
753.43        56.15992
753.85        56.13248
754.27        55.99584
754.68        55.79997
755.10        55.60762
755.52        55.48998
755.93        55.47279
756.35        55.54625
756.77        55.68555
757.18        55.81163
757.60         55.8859
758.02        55.96978
758.43        56.13267
758.85        55.98495
759.26        56.40801
759.68        56.56379
760.10        56.15978
760.51        55.77078
760.93        56.00519
761.34        55.88047
761.76        56.05981
762.18        56.23373
762.59        56.41993
763.01        56.44263
763.42         55.6332
763.84        55.65221
764.26        55.86129
764.67        56.23423
765.09        56.51472
765.50        56.66102
765.92        56.66985
766.33        56.57125
766.75         56.4001
767.16        56.28103
767.58        56.19989
768.00        56.20475
768.41        56.29758
768.83        56.26563
769.24        56.09585
769.66        56.42268
770.07        56.16349
770.49        56.38946
770.90         56.6701
771.32        56.48649
771.73        55.95744
772.15        55.76963
772.56        55.99249
772.97        56.25159
773.39        56.43172
773.80        56.56907
774.22        56.59514
774.63        56.52899
775.05        56.39357
775.46        56.26762
775.88        56.16177
776.29        56.08589
776.70         56.0232
777.12        55.95722
777.53        55.90351
777.95        55.86884
778.36        55.87277
778.77        55.93513
779.19        56.05516
779.60        56.22393
780.02        56.40249
780.43        56.56672
780.84         56.7049
781.26         56.7533
781.67        56.76011
782.09        56.88493
782.50        57.06756
782.91        57.03448
783.33        56.81317
783.74        56.75826
784.15        56.86812
784.57        56.98901
784.98         57.0982
785.39        57.15683
785.81        57.17269
786.22        57.24891
786.63        57.36752
787.04        57.40475
787.46        57.36729
787.87        57.30953
788.28        57.25286
788.70        57.18933
789.11        57.11352
789.52        57.04552
789.93        57.00536
790.35        57.01194
790.76        57.07642
791.17        57.19265
791.58        57.33136
792.00        57.40922
792.41        57.43029
792.82        57.46183
793.23        57.54305
793.65        57.52888
794.06        57.49901
794.47        57.86801
794.88        58.51654
795.29        58.47858
795.71        58.60633
796.12        58.38393
796.53        58.14166
796.94        58.01844
797.35        58.01176
797.76        57.84509
798.18         57.5373
798.59        57.37405
799.00        57.36969
799.41        57.37888
799.82        57.37267
800.23        57.37268
800.64        57.36626
801.06        57.32343
801.47        57.29736
801.88        57.30844
802.29         57.3688
802.70        57.47904
803.11        57.60989
803.52        57.70938
803.93        57.75695
804.34        57.75257
804.75        57.76016
805.17        57.83869
805.58        58.01367
805.99        58.36214
806.40        58.74886
806.81         58.6679
807.22        58.21199
807.63          58.073
808.04        58.29217
808.45         58.3758
808.86        58.31709
809.27        58.44022
809.68        58.71186
810.09         58.8879
810.50        58.93008
810.91        58.91064
811.32        58.83264
811.73         58.7007
812.14        58.53322
812.55        58.32452
812.96        58.12729
813.37        58.04053
813.78        58.08418
814.19        58.22907
814.60         58.4135
815.01        58.53735
815.42        58.57279
815.83        58.54802
816.24        58.48447
816.65        58.42614
817.05         58.4034
817.46        58.38091
817.87        58.39631
818.28        58.47309
818.69        58.61195
819.10        58.80515
819.51        59.03031
819.92        59.23774
820.33        59.39736
820.74        59.50719
821.14        59.55305
821.55        59.54137
821.96        59.46848
822.37        59.33743
822.78        59.16961
823.19        59.00721
823.60        58.86933
824.00        58.76447
824.41        58.67032
824.82        58.59473
825.23        58.53613
825.64        58.50716
826.04        58.50351
826.45        58.47721
826.86        58.43598
827.27         58.3903
827.68        58.37501
828.08        58.47279
828.49        58.62719
828.90        58.85249
829.31        59.12369
829.72         59.2851
830.12        59.30523
830.53        59.66935
830.94        59.48246
831.35        59.35611
831.75        59.05656
832.16        58.61449
832.57        58.20436
832.97        58.11713
833.38        58.40578
833.79        58.96475
834.20        59.60223
834.60        60.02798
835.01        60.16019
835.42        60.07784
835.82        59.87518
836.23        59.68171
836.64        59.57167
837.04        59.51624
837.45        59.48096
837.86        59.46791
838.26        59.48231
838.67        59.52883
839.08        59.61869
839.48        59.74209
839.89         59.8839
840.29        60.03244
840.70        60.17453
841.11        60.28862
841.51        60.37762
841.92        60.41047
842.33        60.40139
842.73        60.37518
843.14        60.30592
843.54         60.2323
843.95        60.15598
844.35         60.0944
844.76         60.0533
845.17        60.03609
845.57        60.08311
845.98        60.22575
846.38        60.47953
846.79        60.78991
847.19        61.10791
847.60        61.28534
848.00        61.31475
848.41        61.20227
848.81        61.02468
849.22        60.85962
849.62        60.78103
850.03        60.74077
850.43        60.75813
850.84        60.75661
851.24        60.76445
851.65        60.74104
852.05        60.75593
852.46        60.83646
852.86        60.97673
853.27        61.19417
853.67        61.33201
854.07        61.30329
854.48        61.07446
854.88        60.69372
855.29        60.27723
855.69         60.1883
856.10        60.43198
856.50        60.99245
856.90        61.59528
857.31        61.81643
857.71        61.59549
858.12        61.00828
858.52        60.28697
858.92        59.78082
859.33        59.59943
859.73        59.68551
860.13        59.91982
860.54        60.09837
860.94        60.20619
861.34        60.27377
861.75        60.31006
862.15        60.39109
862.55        60.49552
862.96        60.56552
863.36        60.59838
863.76        60.56177
864.17         60.4459
864.57        60.29067
864.97        60.08989
865.38        59.81149
865.78        59.50494
866.18        59.19804
866.58        58.97732
866.99        58.96118
867.39        59.20492
867.79        59.63832
868.19        60.16373
868.60        60.54605
869.00        60.81167
869.40        61.21275
869.80        61.59674
870.21        61.45389
870.61        60.78369
871.01        59.84205
871.41        58.87292
871.81        58.11279
872.22         57.6752
872.62        57.51769
873.02        57.62099
873.42         58.1291
873.82        58.75559
874.22        58.89105
874.63         58.7813
875.03         58.9341
875.43        59.38028
875.83        60.90955
876.23        60.43343
876.63        59.67154
877.03        58.33135
877.44        55.75666
877.84        179.2574
878.24        56.57209
878.64        57.50348
879.04         59.3721
879.44        60.12172
879.84         56.4819
880.24        62.18437
880.64        62.39897
881.04        59.65545
881.44        57.51851
881.84        56.65154
882.24        57.17854
882.65         58.4374
883.05        58.86671
883.45        58.15466
883.85        57.27105
884.25        56.63779
884.65        56.45028
885.05        56.80999
885.45        57.55917
885.85        58.35318
886.25        58.73361
886.65        58.60505
887.05        58.12084
887.45        57.51646
887.85        57.18634
888.25         57.2575
888.65        57.60003
889.04        58.09021
889.44        58.53128
889.84        58.82529
890.24         59.0217
890.64        59.12141
891.04        59.12634
891.44        59.04873
891.84        58.87727
892.24        58.63115
892.64        58.36334
893.04        58.11069
893.44        57.89721
893.83        57.76516
894.23        57.71921
894.63        57.78563
895.03        57.98659
895.43        58.30002
895.83        58.67791
896.23        59.08345
896.63        59.46766
897.02        59.85619
897.42        60.36485
897.82        60.95438
898.22        61.57053
898.62        62.02388
899.01        62.02235
899.41        61.50853
899.81        60.62112
900.21        59.60482
900.61        58.86127
901.00        58.50938
901.40        58.51297
901.80        58.78052
902.20        58.98853
902.59         59.0225
902.99        59.26643
903.39        59.80885
903.79        58.90681
904.18        59.55547
904.58        59.33558
904.98        59.09953
905.38        58.72423
905.77        58.23307
906.17        57.69252
906.57        57.21066
906.96        57.06867
907.36        57.31578
907.76        57.87589
908.15        58.61927
908.55        59.18139
908.95        59.48473
909.34        59.54715
909.74        59.47391
910.14        59.41042
910.53        59.40115
910.93        59.39022
911.33        59.28033
911.72        58.92175
912.12        58.31992
912.52        57.57161
912.91        56.83925
913.31        56.43782
913.70        56.41577
914.10        56.68959
914.49         57.1299
914.89        57.43787
915.29        57.53574
915.68        57.46598
916.08        57.34425
916.47        57.31104
916.87        57.43469
917.26        57.66407
917.66        57.88586
918.05         57.9478
918.45        57.80307
918.84        57.50846
919.24        57.23281
919.64        57.30048
920.03        57.76547
920.42          58.506
920.82        59.22522
921.21        59.46572
921.61          59.165
922.00        58.54163
922.40        57.96568
922.79        57.87056
923.19        57.92858
923.58        59.00259
923.98        61.26148
924.37        61.53128
924.77        58.15682
925.16        67.04044
925.55        59.57174
925.95        59.83543
926.34        59.70346
926.74        58.92556
927.13        57.43009
927.52        56.52309
927.92        56.75916
928.31        57.40573
928.70        58.30329
929.10        59.12884
929.49        59.79761
929.89        60.41651
930.28        60.83558
930.67         60.7073
931.07        60.02572
931.46        58.76819
931.85        57.42715
932.24        57.36245
932.64        58.78595
933.03        60.59469
933.42        61.73434
933.82        64.52901
934.21        62.65194
934.60        61.08314
934.99        59.44507
935.39        58.99177
935.78        59.79449
936.17        62.24104
936.56         69.7183
936.96        61.67931
937.35        66.04312
937.74        62.15894
938.13        59.30214
938.53        57.04781
938.92        56.29591
939.31        57.63769
939.70        59.54618
940.09        60.48044
940.49        60.09717
940.88        58.93142
941.27        57.55275
941.66        57.01127
942.05         57.6458
942.44        58.98484
942.84        60.39828
943.23        61.15064
943.62        61.03156
944.01        60.26423
944.40        59.27849
944.79        58.78733
945.18        58.99453
945.57         59.6951
945.97        60.38592
946.36          60.396
946.75        59.54361
947.14        58.06874
947.53         56.5552
947.92        55.98716
948.31        56.60081
948.70        58.04478
949.09        59.67531
949.48        60.51466
949.87        60.32673
950.26        59.42982
950.65        58.25196
951.04        57.49451
951.43        57.39168
951.82         57.7153
952.21        58.28449
952.60        58.79903
952.99        59.11407
953.38         59.3299
953.77        59.45684
954.16        59.48424
954.55        59.43258
954.94        59.29485
955.33        59.08159
955.72        58.85102
956.11        58.64353
956.50        58.45721
956.89        58.39043
957.28         58.5716
957.66        59.04239
958.05          59.698
958.44        60.33694
958.83        60.65093
959.22        60.55699
959.61        60.06237
960.00        59.42044
960.39        59.12521
960.78        59.31861
961.16         59.9379
961.55         60.4565
961.94        60.23786
962.33        59.19236
962.72        57.47246
963.11        55.73822
963.49        55.31921
963.88        56.58134
964.27        59.01709
964.66        61.61187
965.04        62.99413
965.43        62.84187
965.82        61.59959
966.21        59.90152
966.60        58.89408
966.98        58.94796
967.37        59.67179
967.76         60.6734
968.15        61.31589
968.53        61.41129
968.92        61.22956
969.31        60.84955
969.69         60.3426
970.08        59.77375
970.47        59.05614
970.86        58.50739
971.24        58.70919
971.63        59.69104
972.02        61.25224
972.40        62.79405
972.79         63.3238
973.17        62.73094
973.56        61.32367
973.95        59.67243
974.33        58.82338
974.72        59.10923
975.11        60.15598
975.49        61.70254
975.88        63.22996
976.26        64.54314
976.65        65.70325
977.04        66.47372
977.42         66.4588
977.81        65.58723
978.19        63.84994
978.58        61.95728
978.96        61.25639
979.35        62.07608
979.74        63.94293
980.12        65.95592
980.51        66.77087
980.89        66.29744
981.28        64.78403
981.66        62.73952
982.05         61.4987
982.43        61.58595
982.82        62.68419
983.20        64.12476
983.59        64.87057
983.97        64.70368
984.35        63.88876
984.74        62.88007
985.12        62.52505
985.51        63.00413
985.89        64.07261
986.28         65.1723
986.66         65.6115
987.04        65.31052
987.43        64.40063
987.81        63.05829
988.20        63.36657
988.58        65.72146
988.96        66.62329
989.35        65.02591
989.73        72.06634
990.12        68.24657
990.50        68.50983
990.88        67.77811
991.27        66.90414
991.65        65.91195
992.03        64.93636
992.42        64.25841
992.80        63.66335
993.18        63.17757
993.56        62.94192
993.95        62.90134
994.33        62.85678
994.71        62.79219
995.10        62.75395
995.48        62.82693
995.86        63.16587
996.24        63.77511
996.63        64.44479
997.01        65.24895
997.39        66.12598
997.77        66.98154
998.15        67.80161
998.54        68.38168
998.92         68.2868
999.30        67.50233
999.68        66.16621
1000.06        64.65706
1000.45        63.74016
1000.83        63.82828
1001.21        64.70267
1001.59        66.12296
1001.97        67.67316
1002.35        69.09623
1002.73        70.39243
1003.12        71.41426
1003.50        72.06219
1003.88        72.33591
1004.26        72.25756
1004.64        71.88993
1005.02        71.42125
1005.40        70.95047
1005.78        70.45654
1006.16        70.02934
1006.54        69.75058
1006.92        69.65916
1007.30        69.84751
1007.69         70.0975
1008.07        70.15566
1008.45        69.95633
1008.83        69.51878
1009.21        69.27036
1009.59        70.04767
1009.97        71.83303
1010.35        74.02742
1010.73        75.92529
1011.11        77.06607
1011.49        77.55918
1011.86        77.29491
1012.24        76.14581
1012.62        77.27801
1013.00        77.83816
1013.38        77.50974
1013.76        74.90661
1014.14         79.1156
1014.52        85.58233
1014.90        77.88847
1015.28        79.48228
1015.66         81.0595
1016.04         77.3393
1016.41        77.30683
1016.79        76.07185
1017.17        75.56662
1017.55        75.25225
1017.93        75.33067
1018.31        75.98402
1018.69        76.85612
1019.06        77.85109
1019.44        78.91151
1019.82        79.70139
1020.20        79.74235
1020.58        78.95587
1020.95        77.23427
1021.33        74.99711
1021.71        73.61794
1022.09        73.91143
1022.46        75.31862
1022.84        76.92238
1023.22        78.08398
1023.60        78.79167
1023.97        79.31437
1024.35        79.64756
1024.73        79.68726
