SpectraSmart Spectrum 2.9.0.0
--------- Device Information -----------
Spectrum Name :  反射率_0
Saving Time :  2024/04/21 00:20:58
Spectro-Module Model Name : SE2030-DUVN
Spectro-Module Serial Number : OS361AC55029948
Wavelength Start : 200
Wavelength End : 1025
Wavelength Unit : Wavelength(nm)
Spectrum Unit : Reflectance(%)
-----------Spectrum Setting ------------
Integration Time : 20ms
Average : 10
Boxcar : 0
Background removal :  enabled
linearity correction :  enabled
SC :  disabled
Intensity correction :  disabled
DWT denoise :  enabled
savitzky-golay :  disabled
FFT :  disabled
Running average :  disabled
Kalman :  disabled
High pass :  disabled
---------------BEGIN--------------------
Wavelength(nm)             Reflectance(%)
200.29               0
200.75       -153.0503
201.21       -57.95186
201.67       -5.800732
202.13         12.9413
202.58        12.14109
203.04      -0.5114727
203.50       -21.00366
203.96       -37.26054
204.42       -42.08668
204.88       -40.44804
205.34       -35.95831
205.80       -34.03797
206.26       -36.11903
206.72       -36.58435
207.18       -38.27779
207.64       -49.47044
208.10       -69.11597
208.55       -94.96762
209.01       -101.0511
209.47       -62.50605
209.93       -14.91877
210.39        21.03527
210.85        43.27835
211.31        53.14397
211.77        54.35228
212.23        48.47884
212.69        30.79932
213.14       -8.575908
213.60       -91.61771
214.06       -346.5712
214.52       -965.1113
214.98       -465.9008
215.44        -143.017
215.90       -31.91139
216.36        5.990477
216.81        11.88305
217.27       -6.456315
217.73       -109.0918
218.19        1135.362
218.65        466.5645
219.11       -1014.545
219.57       -45.64973
220.02        15.39085
220.48         26.0773
220.94        20.21814
221.40       -3.269012
221.86       -60.23272
222.32       -98.51666
222.77       -48.47105
223.23       -4.162187
223.69        18.46964
224.15        26.49191
224.61         27.1171
225.06        24.68139
225.52        20.38792
225.98        15.46961
226.44        10.90203
226.90        5.234909
227.36        2.202596
227.81        7.984932
228.27        18.60435
228.73        29.16649
229.19        35.76562
229.65        36.34085
230.10        31.79667
230.56        23.57908
231.02        13.05628
231.48        6.025251
231.93        6.674426
232.39        12.74358
232.85        19.81124
233.31        24.15632
233.77        25.95843
234.22         26.9437
234.68        27.16389
235.14        26.56034
235.60        25.51821
236.05        23.06071
236.51        19.99405
236.97        24.08964
237.43        35.97173
237.88        45.05122
238.34         47.1768
238.80        67.10918
239.26        57.09819
239.71         51.2485
240.17        37.39345
240.63        24.44234
241.08         19.8745
241.54        28.11118
242.00        46.46864
242.46        58.35003
242.91        59.00433
243.37        49.43586
243.83        30.82012
244.28        14.02151
244.74        8.550251
245.20        9.184518
245.66        12.10197
246.11        13.83677
246.57         13.0491
247.03        12.33553
247.48        9.144089
247.94       -2.456721
248.40       -31.22842
248.85       -114.0809
249.31       -387.8604
249.77       -632.8163
250.22        -219.103
250.68       -39.74567
251.14        19.30473
251.59        36.73269
252.05        37.54119
252.51        28.83805
252.96        12.50392
253.42       0.2466752
253.88        2.371898
254.33        14.29297
254.79        30.41232
255.25        44.28738
255.70         53.7141
256.16        60.16282
256.62        64.73518
257.07         68.2079
257.53        71.28706
257.99         73.6544
258.44        74.63077
258.90        74.42652
259.35        72.83148
259.81        70.85101
260.27        68.89968
260.72        67.48586
261.18        66.96764
261.63        66.71282
262.09        66.54917
262.55        65.79953
263.00        64.41486
263.46        62.86832
263.91        61.40018
264.37         60.8299
264.83         61.0181
265.28        61.55075
265.74        62.04533
266.19        61.73361
266.65        60.63226
267.11        58.95554
267.56        57.01097
268.02        55.37626
268.47        54.14613
268.93        53.19299
269.38        52.33285
269.84        51.36162
270.30        50.20197
270.75        48.95377
271.21        47.71491
271.66         46.5335
272.12        45.47265
272.57         44.4712
273.03        43.54557
273.48        42.66019
273.94        41.83931
274.39        41.05945
274.85        40.35102
275.31        39.66923
275.76        38.99632
276.22        38.37622
276.67         37.8064
277.13        37.39137
277.58        37.07349
278.04        36.85089
278.49        36.58933
278.95        36.21683
279.40        35.66132
279.86        34.99949
280.31        34.25943
280.77        33.59312
281.22        32.99578
281.68        32.51474
282.13        32.04601
282.59        31.53306
283.04        30.94359
283.50        30.33852
283.95        29.84398
284.41        29.68833
284.86        29.86719
285.32        30.30899
285.77        30.76799
286.22        30.92031
286.68        30.73589
287.13        30.28322
287.59        29.83317
288.04        29.68471
288.50         29.8832
288.95        30.41087
289.41        31.10786
289.86        31.28481
290.32        30.82877
290.77        31.57807
291.22         30.7293
291.68        30.83718
292.13        31.09809
292.59        31.55134
293.04        32.17681
293.50        33.01749
293.95        34.07573
294.40        35.32124
294.86        36.69733
295.31        38.09386
295.77        39.47172
296.22        40.82241
296.68        42.17469
297.13        43.57297
297.58         45.0443
298.04        46.57024
298.49        48.13341
298.95        49.73305
299.40        51.34105
299.85        52.97158
300.31        54.60456
300.76        56.17297
301.21        57.68471
301.67        59.18526
302.12        60.70253
302.58        62.39722
303.03        64.25478
303.48        66.27345
303.94         68.3793
304.39        70.39672
304.84        72.28759
305.30        74.10369
305.75        75.85176
306.20        77.66557
306.66        79.56635
307.11        81.45045
307.57        83.27839
308.02        84.90575
308.47        86.34113
308.93        87.67464
309.38        88.91786
309.83        90.16254
310.29        91.47691
310.74        92.77184
311.19        94.06646
311.65        95.35829
312.10        96.61467
312.55        97.84412
313.00        98.98803
313.46        99.95567
313.91        100.7187
314.36        101.3147
314.82        101.8414
315.27        102.4442
315.72        103.1694
316.18        103.9789
316.63        104.7939
317.08        105.4856
317.53        106.0126
317.99        106.4065
318.44         106.728
318.89        107.0579
319.35         107.421
319.80        107.8053
320.25         108.162
320.70        108.4229
321.16        108.5679
321.61        108.6348
322.06        108.6937
322.51        108.8846
322.97        109.2209
323.42        109.6606
323.87        110.0628
324.32        110.4547
324.78        110.3915
325.23        110.2758
325.68        110.1218
326.13        110.1836
326.59        110.4915
327.04        111.0304
327.49        111.6338
327.94        112.0466
328.39         112.197
328.85        112.1303
329.30        112.0333
329.75        112.0771
330.20        112.3307
330.66        112.7026
331.11        113.1884
331.56        113.6366
332.01        114.0068
332.46         114.337
332.92        114.6292
333.37        115.0322
333.82        115.5194
334.27        116.0605
334.72         116.606
335.17        117.0857
335.63        117.4464
336.08        117.7679
336.53        118.0766
336.98         118.467
337.43        118.9605
337.88        119.5303
338.34        120.0742
338.79        120.4879
339.24        120.7164
339.69        120.8015
340.14        120.8483
340.59         121.024
341.05        121.3714
341.50        121.8552
341.95        122.3742
342.40        122.7669
342.85        122.9915
343.30        123.0956
343.75        123.1752
344.20        123.3849
344.66        123.7642
345.11        124.2367
345.56        124.7036
346.01        125.0119
346.46        125.1359
346.91        125.1137
347.36        125.0152
347.81        125.0261
348.26        125.1929
348.72        125.1704
349.17        125.4521
349.62        125.5863
350.07        125.7131
350.52        125.8279
350.97        125.8877
351.42        125.8116
351.87        125.5814
352.32        125.2187
352.77        124.7957
353.22        124.4247
353.67        124.1317
354.13        123.9093
354.58        123.6583
355.03        123.2745
355.48        122.7373
355.93        122.0813
356.38        121.4065
356.83        120.8596
357.28        120.4558
357.73        120.1399
358.18         119.779
358.63        119.1673
359.08        118.2746
359.53         117.188
359.98        116.0534
360.43        115.0868
360.88         114.337
361.33        113.7286
361.78        113.1792
362.23         112.558
362.68        111.8244
363.13        111.0311
363.58        110.1846
364.03        109.2881
364.48        108.3575
364.93        107.3856
365.38        106.4362
365.83        105.6211
366.28        104.9576
366.73        104.4115
367.18        103.8979
367.63        103.2765
368.08        102.5134
368.53        101.6562
368.98         100.754
369.43        99.87402
369.88        99.03748
370.33         98.2207
370.78        97.42819
371.23        96.68756
371.68        96.00995
372.13        95.39279
372.58        94.82729
373.03         94.2797
373.48        93.72586
373.93        93.16867
374.38         92.5718
374.83        91.89165
375.28        91.14093
375.72        90.32796
376.17         89.5601
376.62        88.91316
377.07        88.39011
377.52        87.95263
377.97        87.54397
378.42         87.0822
378.87        86.55418
379.32        85.99659
379.77        85.43341
380.22         84.8848
380.67        84.34599
381.11         83.8028
381.56        83.25248
382.01        82.72112
382.46        82.23007
382.91        81.79493
383.36        81.38716
383.81        80.95514
384.26        80.48589
384.71        79.98086
385.15         79.4902
385.60        79.15872
386.05        78.97224
386.50        78.89001
386.95        78.77876
387.40         78.4389
387.85        77.85691
388.29        77.07537
388.74        76.35328
389.19        75.84486
389.64        75.57199
390.09        75.45373
390.54        75.39274
390.98        75.21922
391.43        74.93717
391.88        74.60014
392.33        74.24892
392.78        73.95861
393.23        73.75185
393.67        73.49511
394.12        73.28896
394.57        73.26355
395.02        73.33307
395.47        73.13494
395.91        72.71834
396.36        72.44915
396.81        72.37845
397.26        72.33267
397.71        72.21632
398.15        71.99626
398.60        71.74767
399.05        71.24249
399.50        70.69899
399.95        70.79987
400.39        71.37707
400.84        71.47694
401.29        71.01288
401.74        70.41619
402.18        69.86819
402.63        69.59554
403.08         69.5924
403.53        69.45435
403.97        69.16666
404.42        69.08141
404.87        69.15045
405.32        69.11755
405.76        68.94521
406.21        68.74812
406.66         68.5474
407.11         68.3376
407.55        68.12965
408.00        68.11242
408.45        67.71306
408.90        67.72967
409.34         67.8905
409.79        67.79916
410.24        67.49994
410.68        67.41283
411.13        67.55769
411.58        67.69543
412.03        67.76409
412.47        67.77634
412.92         67.6885
413.37        67.52057
413.81         67.3288
414.26        67.24936
414.71        67.28535
415.15        67.41585
415.60        67.55741
416.05        67.62019
416.49        67.57642
416.94        67.45492
417.39        67.28682
417.83        67.10948
418.28        66.94273
418.73        66.76552
419.17        66.60123
419.62        66.50105
420.07        66.47386
420.51        66.50926
420.96        66.57022
421.41        66.55914
421.85        66.43687
422.30        66.23409
422.74        66.01726
423.19        66.06916
423.64        66.36153
424.08        66.68243
424.53        66.86486
424.98        66.98123
425.42        67.01594
425.87        66.72231
426.31        66.29499
426.76        66.39911
427.21        66.95254
427.65        67.14191
428.10        66.88382
428.54        66.80296
428.99        66.93754
429.44        66.84057
429.88         66.5644
430.33        66.60957
430.77        66.83065
431.22        66.88832
431.66        66.79535
432.11        66.79492
432.56        66.92252
433.00        67.15771
433.45        67.28391
433.89          67.116
434.34        66.78177
434.78        66.53819
435.23        66.34668
435.67        67.18112
436.12        67.74367
436.57        67.83686
437.01        67.22104
437.46        66.94798
437.90        67.84716
438.35        67.16203
438.79        67.61531
439.24        67.48441
439.68        67.51462
440.13        67.43563
440.57        67.28067
441.02        67.33655
441.46        67.50575
441.91        67.40987
442.35        67.10606
442.80        67.30287
443.24        67.89026
443.69        68.22953
444.13        68.17947
444.58        68.22215
445.02        67.92467
445.47        67.89209
445.91        67.97295
446.36        67.94541
446.80        67.80373
447.24        67.72182
447.69        67.74349
448.13        67.82595
448.58        68.01153
449.02        67.96158
449.47         67.7586
449.91        67.69003
450.36        67.78733
450.80        67.86118
451.25        67.89809
451.69        67.88516
452.13        67.83905
452.58        67.80325
453.02        67.76604
453.47        67.69971
453.91        67.59437
454.36        67.48335
454.80         67.3672
455.24        67.24886
455.69        67.15415
456.13         67.0481
456.58        66.94315
457.02         66.9371
457.46         66.6946
457.91         66.6764
458.35        66.84019
458.79        66.85381
459.24        66.75578
459.68        66.66737
460.13        66.64659
460.57        66.53925
461.01        66.35506
461.46        66.41547
461.90        66.27658
462.34        66.11984
462.79         66.0842
463.23        66.09365
463.68         66.1621
464.12        65.95499
464.56        65.57788
465.01        65.69212
465.45        66.04016
465.89        66.11048
466.34        65.58636
466.78        65.33775
467.22        65.21612
467.67        65.76575
468.11        65.06631
468.55        65.08426
468.99        65.21363
469.44        65.20804
469.88        65.04281
470.32        64.85365
470.77        64.69539
471.21        64.56565
471.65          64.481
472.10        64.43439
472.54         64.4093
472.98        64.40269
473.42        64.40648
473.87        64.43885
474.31        64.44298
474.75        64.42289
475.20        64.36739
475.64        64.25725
476.08        64.13041
476.52        64.08698
476.97        64.13327
477.41        64.23074
477.85         64.3244
478.29        64.35526
478.74        64.45764
479.18        64.16243
479.62        64.17879
480.06         64.0749
480.50        64.04333
480.95        64.14873
481.39        64.37315
481.83        64.08903
482.27         64.6641
482.72        64.30296
483.16        64.75315
483.60        64.51819
484.04        64.49789
484.48        64.11377
484.93        64.23816
485.37        64.16984
485.81        64.63077
486.25        63.97461
486.69        64.96291
487.14        64.82677
487.58        64.03275
488.02        63.51247
488.46        63.73982
488.90        63.99295
489.34        63.89265
489.79        63.28397
490.23        63.78503
490.67        63.86815
491.11         63.9934
491.55        63.91311
491.99        63.69315
492.43        63.60778
492.88        63.66556
493.32        63.74223
493.76        63.76181
494.20        63.78987
494.64        63.83183
495.08        63.53242
495.52        63.46341
495.96        63.50023
496.41        63.69862
496.85        63.74815
497.29        63.56778
497.73        63.37217
498.17        62.92514
498.61        62.94564
499.05        63.26077
499.49        63.25462
499.93        62.99871
500.37        62.98302
500.82        63.21249
501.26        63.65688
501.70        64.13789
502.14        63.79477
502.58        63.28504
503.02        62.98023
503.46        63.13643
503.90        63.24105
504.34        63.23108
504.78        63.20765
505.22         63.1673
505.66        63.02858
506.10        62.84841
506.54        62.81413
506.98        62.96047
507.42        62.50703
507.86        63.43391
508.30        62.53856
508.74        63.18351
509.18        63.06061
509.62        63.01282
510.06        62.97849
510.50        62.94173
510.94        62.82239
511.38        62.62099
511.82        62.48874
512.26        62.43797
512.70        62.41129
513.14        62.40676
513.58         62.4366
514.02        62.49295
514.46        62.57137
514.90        62.63941
515.34        62.68018
515.78        62.68872
516.22        62.64273
516.66        62.41455
517.10        62.62748
517.54         62.4417
517.98        62.50689
518.42        62.54628
518.86        62.54001
519.30        62.47945
519.74        62.34684
520.18         62.2061
520.62        62.23051
521.06        62.38822
521.50        62.42993
521.93        62.34621
522.37        62.32163
522.81        62.35737
523.25        62.33795
523.69        62.26789
524.13        62.21212
524.57        62.17884
525.01        62.15223
525.45        62.13876
525.89        62.14866
526.32        62.17957
526.76        62.23404
527.20        62.30012
527.64         62.3601
528.08        62.40464
528.52        62.43524
528.96         62.4514
529.40        62.44652
529.83        62.42032
530.27        62.40763
530.71        62.39224
531.15        62.34671
531.59        62.27361
532.03        62.18806
532.46        62.11603
532.90        62.11129
533.34        62.17355
533.78        62.28246
534.22        62.39177
534.66         62.4304
535.09        62.37532
535.53        62.27264
535.97        62.14439
536.41        62.04324
536.85        61.98816
537.28        61.96434
537.72        61.97033
538.16        62.00501
538.60        62.05841
539.04        62.12801
539.47        62.17997
539.91        62.21404
540.35        62.20863
540.79        62.17118
541.22        62.10577
541.66        62.03663
542.10        61.96939
542.54        61.90034
542.97        61.83601
543.41        61.81756
543.85        61.84456
544.29        61.91897
544.72        61.99987
545.16        62.07565
545.60         62.1266
546.04        62.08782
546.47         62.0153
546.91        62.14682
547.35        62.41677
547.79        62.48746
548.22         62.3266
548.66        62.17839
549.10        62.07705
549.53         61.9395
549.97        61.81639
550.41        61.77476
550.84        61.82253
551.28         61.9722
551.72        62.18122
552.15        62.27976
552.59        62.23966
553.03        62.26762
553.46         62.2849
553.90        61.92887
554.34        62.03878
554.77        61.91413
555.21        61.84496
555.65         61.8545
556.08        61.94524
556.52        62.09096
556.96        62.23416
557.39        62.37401
557.83        62.47375
558.27        62.39616
558.70        62.20236
559.14        62.10299
559.57        62.10611
560.01        62.21561
560.45        62.33458
560.88        62.19709
561.32        61.92321
561.75          61.818
562.19        61.92609
562.63        62.10386
563.06        62.25798
563.50        62.16238
563.93        61.87235
564.37        61.82372
564.80         61.9909
565.24          62.095
565.68        62.11636
566.11        62.17228
566.55         62.2688
566.98        62.38719
567.42        62.50106
567.85        62.40668
568.29         62.2076
568.72        62.17145
569.16        62.34179
569.60        62.44488
570.03        62.34026
570.47        62.44683
570.90         62.7098
571.34        62.39097
571.77        62.90717
572.21        62.62963
572.64        62.81497
573.08        62.57815
573.51        62.59815
573.95        62.95277
574.38        62.74528
574.82         63.2985
575.25        63.15678
575.69        63.10823
576.12        62.68392
576.56        62.69975
576.99        63.20657
577.42        63.00126
577.86         63.2078
578.29        63.61513
578.73        63.57046
579.16        63.42177
579.60        62.76385
580.03        63.10698
580.47         63.1938
580.90        62.81137
581.33          63.063
581.77        63.30816
582.20        63.26587
582.64        63.66532
583.07        63.15471
583.51        62.82039
583.94         62.7271
584.37        62.64842
584.81        62.45536
585.24        62.47412
585.68        63.02401
586.11        62.95493
586.54        62.88672
586.98        63.06247
587.41        62.88227
587.85        62.88728
588.28        63.17232
588.71        63.32058
589.15        62.94464
589.58        62.75714
590.01        62.41097
590.45        62.41142
590.88        62.75269
591.31        62.43932
591.75        62.28828
592.18        62.21087
592.61        62.40313
593.05        63.16481
593.48        63.14724
593.91        63.38032
594.35        62.88637
594.78        62.77835
595.21        62.70321
595.65        62.76329
596.08        62.89642
596.51        62.77842
596.94        62.78702
597.38        62.78331
597.81        62.92756
598.24        62.69315
598.68        62.76223
599.11        62.74232
599.54        62.76053
599.97        62.95345
600.41        62.71032
600.84        62.86254
601.27        62.87666
601.70        62.73324
602.14        62.73075
602.57        62.70959
603.00        62.78371
603.43        62.94735
603.87         62.9946
604.30        63.03857
604.73        63.05914
605.16        62.72808
605.60        62.80804
606.03        62.76243
606.46        62.76398
606.89        62.95952
607.32        62.33452
607.76        62.96692
608.19        62.97857
608.62        62.79118
609.05        63.62799
609.48        63.12108
609.92        63.05917
610.35        62.79066
610.78        63.14543
611.21         62.8735
611.64         62.9248
612.07          62.877
612.50        62.95523
612.94        62.97054
613.37        62.92164
613.80        62.92277
614.23        62.88984
614.66        62.79828
615.09        62.61473
615.52        62.77248
615.96        62.55759
616.39        62.57412
616.82        62.61917
617.25        62.57659
617.68        62.68947
618.11        62.64014
618.54        62.68678
618.97        62.58079
619.40         62.3834
619.84        62.46605
620.27        62.26816
620.70        62.40662
621.13        62.63644
621.56         62.6305
621.99        62.41577
622.42        62.47325
622.85        62.77176
623.28        62.63417
623.71        62.64904
624.14        62.57328
624.57        62.48789
625.00         62.9118
625.43        62.46779
625.86        62.54867
626.29        62.73317
626.72        62.66553
627.15        62.54628
627.58        62.49662
628.01        62.66433
628.44        62.20263
628.87        61.88455
629.30        62.42044
629.73        62.32542
630.16        62.23692
630.59        62.18842
631.02        62.47061
631.45        62.32344
631.88        62.39656
632.31        62.45358
632.74        62.19861
633.17        62.27747
633.60        62.18629
634.03        62.13064
634.46         62.1395
634.89        62.12066
635.32        62.16056
635.75        62.21777
636.18        62.29899
636.61        62.37295
637.04        62.39249
637.47        62.34893
637.89        62.25936
638.32        62.15226
638.75        62.09217
639.18         62.0951
639.61        62.17485
640.04        62.28985
640.47        62.30256
640.90         62.2278
641.33        62.23851
641.76        62.33773
642.18        62.39569
642.61        62.39445
643.04        62.42401
643.47        62.46711
643.90        62.45814
644.33        62.39436
644.76        62.28811
645.18        62.17781
645.61        62.14144
646.04        62.18256
646.47        62.23101
646.90        62.26779
647.33        62.31123
647.75        62.33624
648.18         62.3378
648.61        62.35536
649.04        62.35587
649.47        62.32547
649.89        62.69019
650.32        62.69521
650.75        62.66251
651.18        62.42373
651.61        62.22898
652.03        62.16731
652.46        62.18103
652.89        62.23425
653.32        62.35718
653.74        62.55594
654.17        62.13494
654.60        62.20288
655.03        62.21455
655.46        62.29837
655.88        62.98128
656.31        63.10846
656.74        66.59053
657.16        65.66519
657.59        64.17793
658.02        62.49996
658.45        62.22437
658.87        62.75817
659.30         62.1897
659.73        62.75457
660.15        62.29403
660.58        62.18139
661.01        62.29342
661.44        62.70378
661.86        62.75339
662.29        62.43108
662.72        62.30972
663.14        62.42547
663.57        62.48272
664.00        62.46991
664.42        62.49239
664.85        62.55668
665.27        62.52442
665.70        62.59238
666.13        62.59498
666.55         62.5963
666.98        62.58959
667.41        62.57752
667.83        62.56992
668.26        62.57856
668.69        62.54658
669.11        62.47042
669.54        62.55645
669.96        62.85068
670.39        62.48092
670.82        62.92401
671.24        62.85463
671.67        62.72332
672.09        62.67241
672.52        62.72138
672.94        62.62074
673.37        62.41457
673.80        62.39613
674.22        62.55385
674.65        62.60587
675.07         62.5524
675.50        62.52204
675.92         62.5345
676.35        62.54288
676.77        62.54906
677.20        62.57984
677.62        62.64064
678.05        62.66263
678.47        62.62903
678.90        62.81151
679.32        62.74613
679.75        62.83217
680.17        62.92285
680.60        63.04356
681.02         63.1588
681.45         63.1521
681.87        63.05033
682.30        63.00037
682.72        63.02046
683.15        62.97379
683.57        62.85096
684.00        62.85784
684.42        62.68379
684.85        62.67965
685.27        62.73872
685.70        62.83654
686.12        62.92668
686.54         62.9865
686.97        62.99561
687.39        62.98981
687.82        62.97026
688.24        62.91201
688.66         62.8017
689.09        62.89704
689.51        62.74996
689.94        62.81312
690.36        62.93523
690.78        63.07112
691.21        63.18309
691.63        63.18847
692.06        63.12342
692.48        63.13198
692.90        63.20888
693.33        63.21669
693.75        63.16206
694.17        63.09455
694.60        63.03173
695.02        63.12493
695.44        63.10596
695.87        63.20564
696.29         63.3296
696.71        63.26151
697.14        63.06042
697.56         63.2276
697.98        63.69099
698.41        63.61324
698.83        63.60987
699.25        63.41659
699.68         63.2917
700.10        63.23636
700.52        63.27818
700.94        63.40888
701.37        63.54679
701.79        63.61802
702.21        63.57779
702.64        63.45809
703.06         63.3184
703.48        63.26207
703.90        63.31429
704.33        63.43545
704.75        63.57043
705.17        63.61184
705.59        63.53683
706.01        63.38169
706.44        63.21429
706.86        63.16206
707.28        63.24195
707.70        63.41774
708.12        63.63374
708.55        63.78556
708.97        63.83603
709.39        63.87033
709.81        63.82536
710.23        63.82149
710.66        63.85093
711.08        63.91235
711.50         63.9639
711.92        63.96381
712.34        63.90655
712.76        63.80291
713.19        63.69885
713.61        63.71463
714.03        63.84373
714.45        64.06788
714.87        64.30349
715.29         64.3777
715.71        64.25509
716.13        64.14968
716.56        63.83592
716.98        63.75158
717.40        63.83578
717.82        64.04639
718.24        64.29608
718.66        64.44701
719.08        64.46115
719.50        64.37849
719.92         64.2614
720.34        64.20465
720.76        64.23582
721.19        64.31695
721.61        64.42148
722.03        64.47923
722.45        64.47429
722.87        64.43172
723.29        64.39402
723.71        64.42533
724.13        64.53534
724.55        64.70168
724.97        64.90121
725.39        65.00224
725.81        64.96555
726.23        64.99973
726.65        65.16846
727.07        64.63741
727.49        64.92105
727.91        64.79889
728.33        64.73178
728.75        64.74136
729.17        64.82691
729.59         64.8952
730.01        64.92822
730.43        64.99741
730.85        65.09084
731.27        65.15454
731.69        65.19347
732.10        65.17091
732.52        65.29137
732.94        65.17828
733.36        64.94157
733.78        64.81278
734.20        64.82415
734.62         64.8418
735.04        64.87157
735.46        64.98492
735.88        65.17593
736.30        65.40795
736.72        65.64027
737.13        65.75031
737.55        65.68868
737.97        65.44849
738.39        65.14714
738.81        65.10228
739.23        65.30113
739.65        65.39681
740.06        65.31981
740.48        65.34441
740.90        65.43066
741.32        65.38581
741.74        65.32368
742.16        65.30528
742.57        65.38345
742.99        65.48956
743.41        65.59455
743.83        65.63433
744.25        65.59393
744.67        65.49796
745.08        65.40572
745.50        65.36785
745.92        65.41879
746.34        65.54195
746.75        65.68932
747.17        65.77865
747.59        65.78932
748.01        65.70995
748.42        65.60703
748.84        65.61125
749.26        65.70599
749.68        65.81264
750.09        65.87302
750.51        65.70265
750.93         65.4104
751.35        65.47775
751.76        65.84645
752.18        65.97034
752.60        65.81411
753.01        65.73365
753.43        65.71548
753.85        65.58846
754.27        65.35257
754.68        65.25143
755.10        65.01069
755.52        65.02858
755.93        65.21371
756.35        65.54627
756.77        65.92194
757.18        66.12292
757.60        66.09015
758.02        65.97021
758.43        65.92439
758.85        65.55978
759.26        65.96527
759.68        66.27074
760.10        65.94935
760.51        65.72401
760.93        66.20341
761.34        66.03327
761.76        66.30395
762.18        66.38696
762.59        66.45952
763.01        66.46974
763.42        65.61285
763.84         65.6386
764.26        65.95149
764.67         66.1825
765.09         66.2179
765.50        66.61827
765.92        67.23328
766.33        67.20859
766.75        66.60783
767.16        66.37816
767.58         66.5379
768.00        66.65845
768.41        66.73432
768.83        66.64829
769.24        66.42056
769.66        66.90999
770.07        67.13561
770.49        67.04955
770.90        66.50633
771.32        66.37135
771.73         66.6656
772.15        66.76239
772.56        66.66959
772.97        66.74559
773.39        66.94041
773.80        67.05123
774.22        67.02374
774.63        66.95007
775.05        66.84597
775.46        66.78625
775.88        66.77296
776.29        66.80096
776.70        66.84857
777.12        66.90134
777.53        66.96679
777.95        67.03962
778.36        67.10422
778.77        67.12731
779.19        67.10304
779.60        67.04638
780.02        66.98467
780.43        66.98146
780.84        67.05188
781.26        67.16302
781.67        67.31241
782.09        67.42997
782.50        67.48449
782.91        67.50459
783.33        67.49547
783.74        67.51484
784.15        67.53011
784.57         67.6164
784.98        67.73766
785.39        67.64679
785.81        67.41572
786.22        67.43759
786.63        67.69446
787.04        67.82829
787.46        67.83594
787.87        67.90742
788.28        68.02815
788.70        68.06577
789.11        67.99883
789.52        67.88099
789.93         67.7747
790.35        67.77041
790.76        67.89928
791.17        68.12733
791.58        68.39011
792.00        68.55087
792.41        68.60137
792.82        68.60929
793.23        68.63165
793.65        68.58204
794.06        68.52943
794.47        68.81011
794.88        69.34855
795.29        69.19604
795.71        69.36983
796.12        69.23258
796.53         69.1276
796.94        68.98481
797.35        68.85498
797.76        68.84962
798.18        68.91637
798.59        68.88883
799.00        68.74471
799.41         68.5759
799.82        68.43993
800.23        68.39426
800.64        68.45811
801.06        68.59258
801.47        68.76933
801.88        68.86665
802.29        68.85448
802.70        68.75473
803.11        68.63654
803.52        68.62093
803.93        68.74583
804.34        68.97677
804.75        69.23211
805.17        69.40784
805.58        69.50417
805.99        69.42136
806.40        69.25372
806.81        69.43622
807.22        69.86217
807.63        69.85848
808.04        69.47498
808.45         69.3665
808.86        69.56778
809.27        69.68567
809.68        69.68701
810.09        69.69761
810.50        69.70872
810.91        69.70061
811.32        69.63541
811.73        69.44966
812.14        69.15003
812.55        68.76917
812.96        68.44329
813.37        68.39491
813.78        68.66585
814.19        69.17894
814.60        69.75859
815.01        70.13548
815.42        70.23881
815.83        70.13476
816.24        69.91894
816.65        69.78088
817.05         69.7966
817.46        69.87512
817.87        69.99485
818.28        70.08214
818.69        70.11669
819.10         70.1395
819.51        70.16183
819.92        70.19006
820.33        70.22563
820.74        70.24496
821.14        70.25986
821.55        70.31775
821.96        70.40968
822.37         70.5319
822.78        70.61988
823.19        70.56104
823.60        70.33602
824.00        69.99468
824.41        69.61904
824.82        69.42066
825.23         69.4528
825.64        69.66832
826.04        69.96747
826.45        70.14641
826.86        70.16457
827.27        70.07529
827.68        69.96174
828.08         69.9929
828.49        70.14297
828.90        70.40327
829.31        70.71099
829.72        70.89091
830.12        70.91154
830.53        71.11813
830.94         70.9333
831.35         70.8823
831.75        70.82092
832.16         70.7291
832.57        70.64193
832.97        70.60957
833.38        70.63828
833.79        70.71613
834.20          70.834
834.60        70.97486
835.01        71.12293
835.42        71.27394
835.82        71.40754
836.23        71.44045
836.64        71.37543
837.04        71.24622
837.45        71.06974
837.86         70.9361
838.26        70.88696
838.67        70.89664
839.08        70.96104
839.48        71.05531
839.89        71.15667
840.29        71.26473
840.70        71.39069
841.11        71.55341
841.51         71.7578
841.92        71.94968
842.33        72.07523
842.73         72.0499
843.14        71.82004
843.54        71.46086
843.95         71.0597
844.35        70.78239
844.76        70.67159
845.17        70.69395
845.57        70.82379
845.98        70.97303
846.38        71.13232
846.79        71.29488
847.19        71.46477
847.60        71.56584
848.00         71.6236
848.41        71.61263
848.81        71.60656
849.22        71.66608
849.62        71.84061
850.03        72.05327
850.43        72.29816
850.84        72.46017
851.24        72.56095
851.65         72.5684
852.05        72.51624
852.46        72.36021
852.86        72.12279
853.27        71.87058
853.67        71.59995
854.07        71.44314
854.48        71.38776
854.88        71.44199
855.29        71.53541
855.69        71.70677
856.10        71.84481
856.50        72.02503
856.90        72.17396
857.31        72.22826
857.71        72.23239
858.12        72.13435
858.52        71.97578
858.92        71.76225
859.33        71.49548
859.73        71.24069
860.13         71.0069
860.54        70.80222
860.94        70.69978
861.34        70.66014
861.75        70.67252
862.15        70.79176
862.55          70.969
862.96        71.16679
863.36        71.33437
863.76        71.34143
864.17        71.15515
864.57        70.83567
864.97        70.43801
865.38        70.04749
865.78        69.75587
866.18        69.54958
866.58        69.46461
866.99        69.53091
867.39        69.77505
867.79        70.14851
868.19        70.57461
868.60        70.86075
869.00        71.02757
869.40        71.25838
869.80        71.44955
870.21         71.2541
870.61        70.71117
871.01        69.99291
871.41        69.26196
871.81        68.65897
872.22        68.25237
872.62        68.02645
873.02        68.00222
873.42         68.3498
873.82        68.86472
874.22        69.06605
874.63        69.08784
875.03        69.22703
875.43        69.48765
875.83         70.5007
876.23        69.99373
876.63        69.34188
877.03        68.35056
877.44        66.50291
877.84        159.7206
878.24        67.41659
878.64        68.20827
879.04        69.66849
879.44        70.27396
879.84        67.61452
880.24        71.90993
880.64        72.10831
881.04        70.09885
881.44        68.52486
881.84        67.86968
882.24        68.22811
882.65         69.0844
883.05        69.27425
883.45        68.55595
883.85        67.68074
884.25        67.01138
884.65        66.76358
885.05        67.02808
885.45        67.64617
885.85        68.35457
886.25        68.80386
886.65        68.90305
887.05        68.77318
887.45         68.4918
887.85        68.19147
888.25        67.94602
888.65        67.70411
889.04         67.5687
889.44        67.71524
889.84        68.14474
890.24        68.80075
890.64          69.462
891.04        69.79882
891.44         69.7488
891.84        69.39402
892.24        68.92555
892.64        68.68485
893.04        68.76685
893.44         69.0683
893.83        69.42967
894.23        69.57877
894.63        69.46816
895.03        69.20525
895.43         68.9173
895.83        68.80028
896.23        68.90929
896.63        69.15487
897.02        69.45274
897.42        69.75731
897.82        70.00396
898.22        70.20795
898.62        70.33533
899.01        70.33659
899.41        70.19124
899.81         69.9399
900.21        69.62793
900.61        69.33404
901.00        69.08851
901.40        68.94697
901.80        68.94892
902.20        69.03508
902.59        69.16964
902.99        69.55729
903.39        70.22283
903.79        69.81017
904.18        70.48731
904.58        70.51726
904.98        70.45306
905.38        70.09369
905.77        69.45133
906.17        68.61354
906.57         67.8336
906.96        67.61818
907.36        68.06239
907.76        69.04334
908.15        70.23161
908.55        70.90882
908.95        70.92467
909.34        70.40485
909.74        69.71989
910.14        69.44294
910.53        69.71207
910.93        70.33229
911.33        70.94784
911.72        70.99942
912.12        70.39792
912.52        69.37975
912.91        68.29765
913.31        67.76832
913.70        67.91762
914.10        68.53748
914.49        69.39891
914.89        70.02982
915.29        70.28484
915.68        70.27464
916.08        70.10271
916.47        69.88232
916.87        69.71176
917.26        69.55733
917.66        69.42419
918.05        69.36108
918.45        69.35625
918.84        69.40339
919.24        69.55197
919.64        69.92252
920.03         70.4996
920.42        71.21647
920.82        71.79672
921.21        71.82419
921.61        71.26298
922.00        70.31258
922.40        69.39954
922.79        69.09818
923.19        69.22572
923.58        70.34063
923.98        72.41052
924.37        72.96066
924.77        70.79096
925.16        77.04053
925.55        71.78641
925.95        71.85916
926.34        71.62999
926.74        70.90911
927.13        69.64824
927.52        68.79426
927.92        68.78047
928.31        69.09326
928.70         69.6771
929.10        70.36241
929.49        71.08418
929.89        71.87697
930.28        72.53446
930.67        72.59816
931.07        72.00208
931.46        70.78281
931.85        69.39961
932.24        69.03205
932.64        69.90613
933.03        71.19433
933.42        72.06026
933.82        74.10313
934.21        72.68856
934.60        71.46893
934.99        70.24568
935.39        70.05127
935.78        70.93567
936.17        73.09657
936.56        78.72622
936.96        73.23223
937.35        76.18311
937.74        73.15126
938.13        70.74292
938.53        68.94002
938.92        68.51454
939.31         69.8175
939.70        71.59301
940.09        72.54866
940.49        72.40297
940.88        71.60001
941.27        70.60585
941.66        70.27637
942.05        70.88183
942.44        72.04446
942.84         73.2396
943.23        73.84284
943.62        73.69283
944.01        72.98185
944.40        72.10601
944.79        71.72781
945.18        72.01537
945.57        72.75127
945.97        73.45895
946.36        73.50359
946.75        72.70985
947.14        71.33369
947.53        69.83881
947.92        69.01163
948.31        69.09167
948.70        69.81325
949.09        70.83202
949.48        71.62479
949.87        72.01596
950.26        72.15684
950.65        72.12164
951.04        72.02567
951.43        71.92355
951.82         71.7416
952.21         71.5107
952.60        71.32951
952.99        71.22182
953.38        71.18919
953.77        71.19219
954.16        71.13469
954.55        71.00597
954.94        70.86423
955.33        70.71658
955.72        70.58495
956.11        70.48862
956.50        70.38475
956.89          70.392
957.28        70.69679
957.66        71.33017
958.05        72.17087
958.44        72.92159
958.83        73.12593
959.22        72.69819
959.61        71.71706
960.00        70.58332
960.39        70.08611
960.78        70.44208
961.16         71.4272
961.55        72.42849
961.94        72.68816
962.33        72.06689
962.72        70.77784
963.11        69.27599
963.49        68.51308
963.88        68.81287
964.27        69.85231
964.66          71.115
965.04        71.91028
965.43        72.02132
965.82        71.70283
966.21         71.1973
966.60        70.92072
966.98        71.01623
967.37        71.31247
967.76         71.6716
968.15         71.8896
968.53        71.91641
968.92        71.81498
969.31        71.64212
969.69        71.45834
970.08        71.26051
970.47        71.01431
970.86        70.77139
971.24        70.64091
971.63        70.62475
972.02        70.72169
972.40        70.81253
972.79         70.6181
973.17        70.15291
973.56        69.49677
973.95        68.88182
974.33         68.7172
974.72        69.10251
975.11        69.89491
975.49        70.93864
975.88        71.89632
976.26        72.69952
976.65        73.32792
977.04        73.77339
977.42        74.01237
977.81         74.0141
978.19        73.73383
978.58        73.42484
978.96        73.47503
979.35        73.92168
979.74        74.62222
980.12         75.2868
980.51          75.337
980.89        74.80455
981.28        73.76862
981.66        72.46929
982.05        71.57936
982.43        71.38526
982.82        71.74583
983.20        72.44144
983.59        73.06854
983.97        73.53422
984.35        73.91047
984.74        74.13969
985.12        74.21516
985.51        74.11538
985.89        73.89522
986.28        73.62232
986.66         73.4603
987.04        73.49224
987.43         73.6076
987.81        73.61434
988.20        74.35593
988.58        75.91636
988.96        76.10108
989.35        74.31312
989.73        79.12679
990.12        76.14482
990.50         76.3598
990.88        75.94601
991.27        75.51693
991.65        75.06232
992.03        74.74177
992.42        74.55609
992.80        74.02232
993.18        73.09877
993.56         71.9763
993.95        71.01701
994.33        70.75095
994.71        71.29156
995.10        72.42383
995.48        73.78647
995.86        74.76558
996.24        75.15955
996.63        75.06777
997.01         74.7539
997.39        74.45954
997.77        74.26553
998.15        74.05441
998.54        73.87879
998.92        73.72538
999.30        73.64111
999.68        73.74344
1000.06        73.87133
1000.45         73.6432
1000.83        73.10055
1001.21        72.29596
1001.59        71.75856
1001.97        72.25687
1002.35        73.75163
1002.73        75.83416
1003.12        77.78445
1003.50        78.72771
1003.88        78.53361
1004.26        77.47789
1004.64        76.00373
1005.02        75.06391
1005.40        75.06432
1005.78        75.72923
1006.16        76.75716
1006.54         77.5966
1006.92        78.02135
1007.30        78.23621
1007.69        78.19068
1008.07        77.87964
1008.45        77.31614
1008.83        76.45364
1009.21        75.57939
1009.59        75.36926
1009.97        75.95924
1010.35        77.01884
1010.73        78.10042
1011.11        78.92379
1011.49        79.55978
1011.86        79.84367
1012.24        79.58455
1012.62        81.17449
1013.00        81.98923
1013.38        81.88217
1013.76        79.73576
1014.14        82.92052
1014.52        87.94611
1014.90        80.83322
1015.28        81.50651
1015.66        82.64822
1016.04        79.54644
1016.41        80.35819
1016.79        80.10995
1017.17         79.6366
1017.55        78.31099
1017.93        76.45572
1018.31        75.03346
1018.69        75.12381
1019.06        76.95145
1019.44        79.96639
1019.82        82.80324
1020.20        83.68761
1020.58        82.25101
1020.95         78.5004
1021.33        73.51343
1021.71        71.06703
1022.09        72.99791
1022.46        77.46053
1022.84        81.85146
1023.22        84.24654
1023.60        84.72726
1023.97        84.07341
1024.35        82.79578
1024.73        81.85594
