SpectraSmart Spectrum 2.9.0.0
--------- Device Information -----------
Spectrum Name :  反射率_0
Saving Time :  2024/04/21 00:07:42
Spectro-Module Model Name : SE2030-DUVN
Spectro-Module Serial Number : OS361AC55029948
Wavelength Start : 200
Wavelength End : 1025
Wavelength Unit : Wavelength(nm)
Spectrum Unit : Reflectance(%)
-----------Spectrum Setting ------------
Integration Time : 20ms
Average : 10
Boxcar : 0
Background removal :  enabled
linearity correction :  enabled
SC :  disabled
Intensity correction :  disabled
DWT denoise :  enabled
savitzky-golay :  disabled
FFT :  disabled
Running average :  disabled
Kalman :  disabled
High pass :  disabled
---------------BEGIN--------------------
Wavelength(nm)             Reflectance(%)
200.29               0
200.75       -66.85403
201.21       -19.83229
201.67        6.159677
202.13        15.96541
202.58        16.40734
203.04        11.58222
203.50        4.038382
203.96       0.2268493
204.42        2.676324
204.88        7.637722
205.34        12.64966
205.80        14.36584
206.26        11.96387
206.72        8.867165
207.18        1.489146
207.64       -17.69115
208.10       -46.82593
208.55       -82.66983
209.01       -95.78386
209.47       -57.68542
209.93       -7.069692
210.39        32.73442
210.85        57.25602
211.31         66.3944
211.77        63.79115
212.23        49.64307
212.69        18.22492
213.14       -34.17567
213.60       -113.0262
214.06        -303.841
214.52       -659.9214
214.98       -255.6586
215.44       -55.93736
215.90        7.189975
216.36        26.36048
216.81          24.931
217.27        3.886551
217.73       -99.23381
218.19        1124.328
218.65        456.9499
219.11       -914.1807
219.57       -20.76041
220.02         35.0845
220.48        45.16671
220.94        40.33314
221.40        19.62329
221.86       -32.60291
222.32        -73.5552
222.77        -34.2031
223.23        4.015511
223.69        24.18649
224.15        31.42471
224.61        31.95089
225.06        29.85757
225.52        25.93197
225.98        20.65072
226.44        14.78662
226.90        7.065406
227.36         1.76558
227.81        6.559808
228.27        17.59808
228.73        29.07202
229.19        36.48669
229.65         37.5618
230.10        33.27925
230.56        25.19386
231.02        14.64213
231.48        7.366971
231.93        7.640828
232.39        13.32523
232.85        20.08403
233.31        24.23054
233.77         25.9092
234.22        26.79081
234.68         27.0403
235.14        26.78803
235.60        26.45035
236.05        25.08184
236.51        23.14219
236.97        27.42585
237.43        38.37998
237.88        46.06105
238.34        46.69659
238.80        66.54851
239.26        57.71339
239.71        54.91731
240.17        46.08792
240.63        38.38888
241.08        37.28939
241.54        45.96499
242.00        61.84935
242.46        72.44257
242.91        74.67695
243.37        68.84756
243.83        57.01282
244.28        49.66503
244.74         53.2167
245.20        62.21852
245.66        70.83888
246.11        73.47588
246.57        69.43613
247.03        61.10367
247.48        49.18386
247.94        33.93951
248.40         11.2067
248.85       -41.97281
249.31        -206.402
249.77        -350.372
250.22       -103.5604
250.68        4.135976
251.14        40.78681
251.59        53.99304
252.05        59.30367
252.51        61.45728
252.96        61.18425
253.42        60.56348
253.88        60.83417
254.33        61.20053
254.79         63.5294
255.25        67.35403
255.70        71.01613
256.16        74.36691
256.62        76.74346
257.07        77.83318
257.53         78.4585
257.99        78.51344
258.44        77.87043
258.90        77.26795
259.35        76.13893
259.81         74.9918
260.27        73.57712
260.72        71.77273
261.18         70.1434
261.63        68.45767
262.09        67.00627
262.55        65.49085
263.00        63.80859
263.46        62.24287
263.91        60.75292
264.37        59.81101
264.83        59.29281
265.28        58.95966
265.74        58.70606
266.19        58.12653
266.65        57.24268
267.11        56.10885
267.56        54.76691
268.02        53.39643
268.47         52.0094
268.93        50.61449
269.38        49.23166
269.84         47.9678
270.30        46.83273
270.75        45.82724
271.21        44.92371
271.66        43.98518
272.12        43.01926
272.57        42.02636
273.03        41.10021
273.48        40.31755
273.94         39.7122
274.39        39.20572
274.85        38.73577
275.31          38.132
275.76        37.36476
276.22        36.53943
276.67        35.74302
277.13        35.19932
277.58        34.87445
278.04        34.71094
278.49        34.54124
278.95        34.23722
279.40        33.71558
279.86        33.08395
280.31        32.34772
280.77        31.61859
281.22        30.90052
281.68        30.24262
282.13        29.63405
282.59        29.15003
283.04        28.76768
283.50        28.50113
283.95        28.33766
284.41        28.29016
284.86        28.33119
285.32        28.47169
285.77        28.62642
286.22        28.70364
286.68        28.71072
287.13        28.62627
287.59        28.59416
288.04        28.72348
288.50        29.00678
288.95        29.49519
289.41        30.09261
289.86         30.1957
290.32        29.72456
290.77        30.52363
291.22        29.73403
291.68        29.93575
292.13        30.31248
292.59        30.91681
293.04        31.74566
293.50        32.86142
293.95        34.26031
294.40        35.89105
294.86        37.65828
295.31        39.39501
295.77         41.0459
296.22        42.61877
296.68        44.16806
297.13        45.77821
297.58        47.50276
298.04        49.33084
298.49        51.25031
298.95        53.26437
299.40        55.34006
299.85        57.47843
300.31        59.67102
300.76        61.86489
301.21        64.04889
301.67        66.24457
302.12        68.40497
302.58        70.59763
303.03        72.79913
303.48        75.05962
303.94        77.38624
304.39        79.71656
304.84        82.04981
305.30        84.40872
305.75        86.76461
306.20        89.20975
306.66        91.74155
307.11        94.24382
307.57        96.67176
308.02        98.85513
308.47        100.8031
308.93        102.6051
309.38         104.252
309.83        105.8505
310.29        107.4288
310.74         108.942
311.19        110.4442
311.65        112.0086
312.10        113.6113
312.55        115.2381
313.00        116.7751
313.46        118.0404
313.91        118.9801
314.36        119.6644
314.82        120.2315
315.27        120.8837
315.72        121.6935
316.18        122.6066
316.63         123.542
317.08        124.3667
317.53        125.0326
317.99        125.5736
318.44        126.0401
318.89        126.4902
319.35         126.941
319.80        127.3859
320.25         127.781
320.70        128.0695
321.16        128.2379
321.61        128.3302
322.06        128.4235
322.51        128.6489
322.97        129.0089
323.42        129.5024
323.87        130.0074
324.32        130.3415
324.78        130.4387
325.23        130.4122
325.68        130.3332
326.13        130.3578
326.59        130.5107
327.04        130.8105
327.49        131.2136
327.94        131.6882
328.39        132.2059
328.85        132.7367
329.30        133.3079
329.75        133.7926
330.20        134.1665
330.66        134.3965
331.11        134.6147
331.56        134.8847
332.01        135.2388
332.46        135.6508
332.92        136.0394
333.37        136.4401
333.82        136.7874
334.27        137.1211
334.72        137.4558
335.17        137.8108
335.63        138.1612
336.08        138.5625
336.53        139.0252
336.98        139.6303
337.43        140.3761
337.88        141.2308
338.34        142.0337
338.79        142.6009
339.24        142.8527
339.69         142.854
340.14        142.7738
340.59        142.8843
341.05        143.2635
341.50        143.8626
341.95        144.5543
342.40        145.1265
342.85        145.5186
343.30        145.7874
343.75        146.0425
344.20        146.4626
344.66        147.0756
345.11        147.7652
345.56        148.3866
346.01        148.7283
346.46        148.7627
346.91        148.5437
347.36        148.1566
347.81        147.8791
348.26        147.8004
348.72        147.3091
349.17        147.4483
349.62        147.4856
350.07        147.7157
350.52        148.0905
350.97         148.473
351.42         148.615
351.87        148.4377
352.32        147.9924
352.77        147.4161
353.22        146.9308
353.67        146.5891
354.13        146.3528
354.58        146.0589
355.03        145.5067
355.48        144.6726
355.93        143.6499
356.38        142.6348
356.83         141.909
357.28        141.5143
357.73        141.3419
358.18        141.1877
358.63        140.7322
359.08        139.8953
359.53        138.7824
359.98        137.5439
360.43        136.4068
360.88        135.4329
361.33        134.5493
361.78        133.6889
362.23        132.7503
362.68        131.7139
363.13        130.6399
363.58        129.5597
364.03        128.5085
364.48        127.4958
364.93        126.4905
365.38        125.5126
365.83        124.6032
366.28        123.7587
366.73        122.9695
367.18        122.1559
367.63          121.19
368.08        120.0636
368.53        118.8351
368.98        117.6087
369.43        116.5342
369.88        115.6394
370.33         114.865
370.78        114.1566
371.23        113.4381
371.68        112.6788
372.13        111.9011
372.58        111.0967
373.03        110.2348
373.48        109.3128
373.93         108.346
374.38        107.3617
374.83         106.424
375.28        105.5723
375.72        104.7782
376.17        104.1067
376.62        103.5471
377.07        103.0657
377.52        102.6328
377.97        102.1799
378.42        101.6117
378.87        100.9246
379.32         100.171
379.77        99.39342
380.22        98.63882
380.67        97.91225
381.11        97.19231
381.56        96.50955
382.01        95.94682
382.46        95.52593
382.91        95.24274
383.36         94.9762
383.81        94.53253
384.26        93.87643
384.71        93.05453
385.15        92.22148
385.60        91.69505
386.05        91.49674
386.50        91.52934
386.95        91.57549
387.40        91.30073
387.85        90.65627
388.29        89.72738
388.74        88.83787
389.19        88.19151
389.64        87.82592
390.09        87.63897
390.54        87.52035
390.98        87.28172
391.43        86.92413
391.88        86.50592
392.33        86.07886
392.78        85.70242
393.23        85.39151
393.67         85.0853
394.12        84.86535
394.57        84.61627
395.02        84.34591
395.47        84.12623
395.91        83.93952
396.36        83.65293
396.81        83.28152
397.26        82.91148
397.71        82.56342
398.15        82.22206
398.60         81.9946
399.05        81.73109
399.50        81.46866
399.95        81.48139
400.39        81.67625
400.84        81.45464
401.29        80.86927
401.74        80.54655
402.18        80.50006
402.63        80.24238
403.08        79.77571
403.53        79.40032
403.97        79.14218
404.42          78.907
404.87        78.67249
405.32         78.5007
405.76        78.37648
406.21        78.18291
406.66        77.95756
407.11        77.99026
407.55        78.17729
408.00        77.98978
408.45        77.45628
408.90        76.86914
409.34        76.41125
409.79        76.40294
410.24        76.71309
410.68        76.76531
411.13        76.51434
411.58        76.30933
412.03        76.19419
412.47        76.08839
412.92        75.97907
413.37          75.905
413.81        75.84314
414.26        75.81655
414.71        75.79945
415.15        75.80476
415.60         75.7786
416.05        75.70015
416.49        75.56857
416.94        75.38488
417.39        75.18457
417.83        75.01441
418.28        74.88737
418.73        74.78169
419.17        74.68009
419.62        74.56364
420.07        74.43021
420.51        74.28948
420.96        74.16302
421.41        74.03802
421.85        73.89278
422.30        73.74123
422.74        73.59753
423.19        73.67658
423.64        73.92984
424.08        74.16679
424.53        74.25597
424.98         74.3315
425.42        74.39355
425.87        74.18051
426.31        73.81998
426.76        73.86875
427.21        74.22205
427.65        74.11696
428.10        73.57102
428.54        73.31583
428.99        73.39661
429.44        73.40138
429.88        73.29897
430.33        73.29078
430.77        73.29207
431.22         73.4037
431.66        73.53996
432.11        73.45592
432.56        73.23228
433.00        73.06899
433.45        72.85555
433.89        72.91483
434.34        73.32521
434.78        72.46288
435.23        72.67285
435.67        73.22189
436.12        73.18484
436.57        73.23693
437.01        73.00863
437.46        72.78077
437.90        73.37052
438.35        72.96019
438.79        73.35072
439.24        73.29457
439.68          73.274
440.13        73.20313
440.57        73.09849
441.02        73.16686
441.46        73.32061
441.91        73.17442
442.35        72.80875
442.80        73.04772
443.24        73.71722
443.69        73.94889
444.13         73.6683
444.58        73.46095
445.02        73.26798
445.47        73.28545
445.91        73.41392
446.36        73.40725
446.80        73.24609
447.24        73.06673
447.69        72.94516
448.13        73.09838
448.58        73.25999
449.02         73.2943
449.47        73.05892
449.91        72.95715
450.36        72.98981
450.80        72.87791
451.25        72.67744
451.69        72.66185
452.13        72.78569
452.58        72.67231
453.02        72.35178
453.47        72.19479
453.91        72.20427
454.36        72.19149
454.80        72.10732
455.24        71.99416
455.69        71.86978
456.13        71.63567
456.58         71.3595
457.02        71.33808
457.46        71.16969
457.91        71.07081
458.35        71.02276
458.79        70.91576
459.24        70.78422
459.68        70.65362
460.13        70.60416
460.57        70.38662
461.01        69.97906
461.46        70.20206
461.90         70.1135
462.34        69.45879
462.79        69.58267
463.23        69.56224
463.68        69.94942
464.12        69.70147
464.56        69.06406
465.01        69.27434
465.45        70.01601
465.89        70.06492
466.34        69.50199
466.78        69.07607
467.22        68.89648
467.67        69.07907
468.11        68.95371
468.55        68.85172
468.99        68.59041
469.44         68.4275
469.88        68.36095
470.32         68.2021
470.77        67.98081
471.21        67.83431
471.65         67.7763
472.10         67.7732
472.54        67.76402
472.98        67.69592
473.42        67.56651
473.87        67.36643
474.31         67.1375
474.75        67.16401
475.20        67.37602
475.64        67.40131
476.08        67.27851
476.52         67.2152
476.97        67.15468
477.41         67.3259
477.85        67.72146
478.29        66.84254
478.74         66.6292
479.18        66.84454
479.62        66.85825
480.06        67.04321
480.50        67.04884
480.95        67.18451
481.39        67.32052
481.83        67.46072
482.27        67.49415
482.72        67.18039
483.16        66.91781
483.60        67.11012
484.04        67.01134
484.48        66.78896
484.93        66.95335
485.37        66.57321
485.81        67.31061
486.25        66.72397
486.69          68.587
487.14        68.62669
487.58        67.84361
488.02        67.38364
488.46          66.805
488.90        66.38099
489.34        66.58668
489.79        66.05431
490.23        66.72158
490.67        66.80112
491.11        66.79235
491.55        66.58628
491.99         66.2822
492.43        66.10312
492.88        66.06982
493.32        66.11642
493.76        66.15615
494.20        66.19205
494.64        66.21954
495.08        65.93367
495.52        65.86964
495.96        65.90135
496.41        66.09064
496.85        66.15099
497.29        65.99026
497.73        65.86909
498.17        65.49585
498.61         65.3952
499.05        65.46845
499.49        65.43058
499.93        65.32472
500.37        65.44277
500.82        65.70493
501.26        65.88419
501.70        65.92652
502.14        65.52778
502.58        65.31572
503.02        65.12534
503.46        65.09904
503.90        65.15917
504.34        65.23676
504.78        65.29376
505.22        65.32095
505.66         65.2726
506.10        65.15416
506.54        65.19995
506.98        65.46091
507.42        65.02077
507.86        65.37907
508.30        65.37322
508.74         65.3056
509.18        65.24522
509.62        65.16869
510.06        65.11669
510.50        65.06213
510.94        64.94121
511.38        64.77106
511.82        64.64761
512.26        64.58194
512.70        64.52012
513.14        64.44748
513.58        64.42513
514.02        64.46281
514.46        64.42889
514.90        64.27074
515.34        64.58692
515.78        64.34509
516.22        64.35188
516.66        64.15958
517.10         64.3775
517.54        64.19118
517.98        64.23747
518.42        64.26504
518.86        64.24873
519.30        64.18525
519.74        64.05165
520.18        63.91779
520.62        63.97171
521.06        64.17938
521.50        64.28034
521.93        64.24732
522.37        64.24267
522.81        64.26165
523.25        64.19328
523.69        64.06106
524.13        63.96123
524.57        63.91121
525.01        63.88919
525.45        63.88866
525.89        63.89875
526.32        63.91125
526.76        63.93349
527.20        63.96976
527.64        64.02701
528.08        64.09904
528.52        64.17916
528.96        64.23895
529.40        64.22933
529.83        64.14442
530.27        64.03502
530.71        63.92173
531.15        63.83548
531.59        63.79116
532.03        63.78426
532.46         63.8049
532.90        63.85001
533.34        63.90422
533.78        63.96626
534.22        64.01309
534.66        64.00935
535.09        63.94196
535.53        63.84448
535.97        63.72989
536.41        63.63821
536.85        63.58435
537.28        63.56099
537.72        63.56701
538.16        63.59979
538.60        63.65087
539.04        63.71767
539.47        63.77326
539.91        63.82956
540.35        63.86688
540.79        63.89036
541.22         63.8917
541.66        63.87671
542.10        63.84224
542.54         63.7802
542.97          63.712
543.41        63.70363
543.85         63.7549
544.29        63.86972
544.72        63.98443
545.16        63.98387
545.60        63.83397
546.04        63.62401
546.47        63.51281
546.91        63.22737
547.35        63.81445
547.79        63.96524
548.22        63.92545
548.66        63.85503
549.10        63.78697
549.53        63.69337
549.97        63.60003
550.41        63.50638
550.84        63.41477
551.28        63.41476
551.72        63.51578
552.15        63.54656
552.59        63.47667
553.03        63.87949
553.46        63.75411
553.90        63.79744
554.34        63.69995
554.77        63.59349
555.21        63.55723
555.65         63.2598
556.08        63.46425
556.52        63.53899
556.96        63.66063
557.39        63.77455
557.83        63.83792
558.27        63.78116
558.70        63.67356
559.14        63.38266
559.57        63.50537
560.01        63.58963
560.45        63.70446
560.88        63.54499
561.32        63.24396
561.75        63.11835
562.19        63.23056
562.63        63.46965
563.06        63.71229
563.50        63.69851
563.93         63.4473
564.37        63.28101
564.80        63.24515
565.24        63.34902
565.68        63.53386
566.11        63.62569
566.55        63.62634
566.98        63.63908
567.42        63.69377
567.85        63.70267
568.29        63.70295
568.72        63.70107
569.16        63.77495
569.60         63.7516
570.03        63.93768
570.47        64.09721
570.90        64.25336
571.34        64.23148
571.77         64.7969
572.21        64.37007
572.64        64.37377
573.08        64.39758
573.51        64.32264
573.95        64.71957
574.38        64.40484
574.82         65.0477
575.25        65.18572
575.69        64.94511
576.12        64.32447
576.56        64.58297
576.99         64.6015
577.42        64.87141
577.86         64.7414
578.29         65.5231
578.73        65.63953
579.16         65.3204
579.60           64.75
580.03        64.88055
580.47        64.77256
580.90        65.02005
581.33        65.37883
581.77        65.20083
582.20        65.76182
582.64        65.91966
583.07        65.52895
583.51        65.17384
583.94        64.56006
584.37        64.33374
584.81         63.9862
585.24        64.22032
585.68         65.0926
586.11        64.94141
586.54        64.96111
586.98        64.78511
587.41        64.37276
587.85        64.97461
588.28        64.89375
588.71        64.93332
589.15        64.60333
589.58        64.37774
590.01        64.20586
590.45        63.84259
590.88        64.42899
591.31        64.05555
591.75        63.85048
592.18        63.74411
592.61         63.9755
593.05        64.55401
593.48        64.44602
593.91        65.01435
594.35        64.53159
594.78        64.53948
595.21        64.19069
595.65        64.14192
596.08        64.20308
596.51        64.35188
596.94        64.01601
597.38        63.95197
597.81        64.03387
598.24        64.11844
598.68        64.11115
599.11        64.03957
599.54         64.6989
599.97        64.52512
600.41        64.22499
600.84        64.45779
601.27        64.30795
601.70        64.23191
602.14        63.79823
602.57        63.69896
603.00         63.9153
603.43        64.11854
603.87        64.65395
604.30        64.52427
604.73        64.40461
605.16        63.89469
605.60        64.09177
606.03        64.08127
606.46        64.11029
606.89        64.08201
607.32        63.88393
607.76          64.304
608.19        64.37621
608.62         64.0246
609.05        64.72724
609.48        64.18251
609.92        64.09487
610.35        64.13775
610.78        64.21152
611.21        63.98123
611.64        64.00084
612.07        63.90175
612.50        63.89667
612.94          63.839
613.37        63.71825
613.80        63.95572
614.23        63.78886
614.66        63.83644
615.09        63.87538
615.52        63.82904
615.96        63.68818
616.39        63.65535
616.82        63.78237
617.25        63.37945
617.68        63.56581
618.11        63.44653
618.54         63.5114
618.97        63.36518
619.40        63.10757
619.84        63.07945
620.27         63.1303
620.70        63.24136
621.13        63.31752
621.56        63.27228
621.99        63.15687
622.42        63.30668
622.85        63.63881
623.28        63.70059
623.71        63.48807
624.14        63.59122
624.57         63.5358
625.00        63.85692
625.43        63.33347
625.86        63.35556
626.29        63.64403
626.72        63.14753
627.15        63.32794
627.58         63.2101
628.01        63.29223
628.44        63.02594
628.87        63.04645
629.30        63.29916
629.73        63.21427
630.16        63.13543
630.59        63.07245
631.02        63.19199
631.45        63.05887
631.88        63.06711
632.31        63.09719
632.74        62.83752
633.17        62.93307
633.60        62.84225
634.03        62.76351
634.46        62.74153
634.89        62.69352
635.32        62.72289
635.75        62.79148
636.18        62.89763
636.61        63.00276
637.04         63.0491
637.47        63.02505
637.89        62.95175
638.32        62.85242
638.75        62.79413
639.18        62.79344
639.61        62.83088
640.04         62.8836
640.47        62.91358
640.90        62.90944
641.33        62.88758
641.76        62.85474
642.18        62.82677
642.61        62.79669
643.04        62.76529
643.47        62.74387
643.90        62.75871
644.33        62.80805
644.76        62.86629
645.18        62.91538
645.61         62.9453
646.04        62.94357
646.47        62.87502
646.90        62.75391
647.33         62.6824
647.75        62.67155
648.18        62.61613
648.61        62.58097
649.04        62.77631
649.47        63.09212
649.89        63.47554
650.32        63.21203
650.75         63.1834
651.18        63.20747
651.61        63.06396
652.03        62.83422
652.46        62.81902
652.89        62.98757
653.32        63.06916
653.74        63.08778
654.17        62.83146
654.60          62.631
655.03         62.7051
655.46        62.74971
655.88        63.30356
656.31        64.49055
656.74        69.63767
657.16        68.68048
657.59        66.77544
658.02        63.83411
658.45        63.04585
658.87        63.54676
659.30         62.8987
659.73         62.8215
660.15         62.4155
660.58        62.89142
661.01         63.2344
661.44        63.46125
661.86        63.24949
662.29        62.71512
662.72        62.64148
663.14        63.03087
663.57        63.21024
664.00        63.12647
664.42        63.11274
664.85        63.16028
665.27        63.01769
665.70        62.95069
666.13        62.68107
666.55        62.81184
666.98        62.85685
667.41        62.93451
667.83        62.98676
668.26        63.00882
668.69        62.96524
669.11         62.8462
669.54        62.86762
669.96         63.0868
670.39        62.60277
670.82        62.94127
671.24        62.91157
671.67        62.94306
672.09        63.01133
672.52        63.11475
672.94         63.0912
673.37        62.97375
673.80        62.98903
674.22        63.13025
674.65        63.16241
675.07        63.09441
675.50        63.04146
675.92        63.03123
676.35        63.02835
676.77        63.03111
677.20        63.07903
677.62        63.17247
678.05          63.182
678.47        63.07669
678.90        63.33264
679.32        63.14883
679.75        63.19897
680.17        63.24147
680.60        63.29872
681.02        63.35059
681.45        63.33801
681.87        63.27799
682.30        63.25055
682.72        63.27048
683.15        63.21113
683.57        63.08199
684.00        63.15513
684.42        63.08124
684.85        63.08047
685.27        63.05935
685.70        63.01344
686.12        62.92069
686.54        62.98274
686.97        63.24103
687.39        62.90126
687.82        63.23074
688.24        63.39597
688.66        63.26805
689.09        63.47012
689.51        63.39919
689.94        63.48896
690.36        63.57029
690.78        63.62124
691.21        63.63671
691.63         63.5816
692.06        63.50618
692.48        63.53922
692.90        63.65066
693.33        63.66659
693.75          63.591
694.17        63.47264
694.60        63.33498
695.02        63.42865
695.44         63.4779
695.87         63.4664
696.29        63.35212
696.71         63.4497
697.14        63.73288
697.56         63.8645
697.98        63.77348
698.41        64.00239
698.83         63.8068
699.25         63.7092
699.68        63.53713
700.10        63.44245
700.52        63.44398
700.94        63.51392
701.37        63.61332
701.79        63.69626
702.21         63.7247
702.64         63.7264
703.06        63.70445
703.48        63.66969
703.90        63.63373
704.33         63.5871
704.75        63.54974
705.17        63.53584
705.59        63.55151
706.01        63.59534
706.44        63.66057
706.86        63.75107
707.28         63.8466
707.70        63.94081
708.12        64.03342
708.55        64.11568
708.97        64.17551
709.39         64.2229
709.81        64.24082
710.23        64.20663
710.66        64.12543
711.08        64.02359
711.50        63.92162
711.92        63.86635
712.34        63.87125
712.76        63.91999
713.19        63.99376
713.61        64.11047
714.03        64.23482
714.45        64.35394
714.87        64.48709
715.29        64.52522
715.71        64.46624
716.13        64.49128
716.56        64.31599
716.98         64.2845
717.40        64.30928
717.82        64.38163
718.24        64.46822
718.66        64.51643
719.08         64.5154
719.50        64.48155
719.92        64.44086
720.34        64.43103
720.76        64.46227
721.19        64.51236
721.61        64.58292
722.03        64.64766
722.45        64.69975
722.87         64.7485
723.29        64.79799
723.71        64.85379
724.13        64.91795
724.55        64.98272
724.97        65.05244
725.39        65.13737
725.81         65.2333
726.23        65.33168
726.65        65.41181
727.07        65.44578
727.49        65.43173
727.91        65.37308
728.33        65.28957
728.75        65.24641
729.17        65.24477
729.59        65.20456
730.01        65.15752
730.43        65.21441
730.85        65.37451
731.27        65.57137
731.69        65.75747
732.10        65.80828
732.52        65.90999
732.94        65.70647
733.36        65.35156
733.78        65.15349
734.20        65.16475
734.62        65.22712
735.04        65.30455
735.46        65.39746
735.88        65.48725
736.30        65.58807
736.72        65.65919
737.13        65.67145
737.55        65.58888
737.97        65.35845
738.39        65.09315
738.81        65.17204
739.23         65.5432
739.65        65.69669
740.06        65.57123
740.48        65.59568
740.90        65.73344
741.32        65.74378
741.74        65.64503
742.16        65.61282
742.57        65.67764
742.99        65.76804
743.41        65.85419
743.83        65.87135
744.25        65.80372
744.67        65.67019
745.08        65.54533
745.50        65.50301
745.92        65.57923
746.34        65.75566
746.75        65.93887
747.17        65.97404
747.59        65.83612
748.01        65.53936
748.42        65.23158
748.84        65.18945
749.26        65.42664
749.68        65.77337
750.09        66.08675
750.51         66.1506
750.93        65.98114
751.35        65.87329
751.76        65.89228
752.18        65.84229
752.60         65.7308
753.01        65.82423
753.43        66.07446
753.85        65.72665
754.27        65.73359
754.68        65.42831
755.10        65.21611
755.52        64.95027
755.93        65.10538
756.35        65.28772
756.77        65.55701
757.18        65.77184
757.60        65.87691
758.02        65.96455
758.43        66.11842
758.85        65.90201
759.26        66.37025
759.68        66.50305
760.10        65.83561
760.51        65.50259
760.93        66.10597
761.34        65.65617
761.76        65.72952
762.18        65.71236
762.59        65.92122
763.01        66.12243
763.42        65.45562
763.84        65.55804
764.26         65.8327
764.67        66.10969
765.09        66.25604
765.50        66.61774
765.92        67.06717
766.33        66.95477
766.75        66.35868
767.16        66.06512
767.58        66.09036
768.00        66.19473
768.41        66.31543
768.83        66.01743
769.24        65.42516
769.66        65.81441
770.07        66.18889
770.49        66.37351
770.90        66.10125
771.32        65.95453
771.73        66.01167
772.15        66.07481
772.56        66.17638
772.97        66.39777
773.39        66.63541
773.80        66.75414
774.22        66.68826
774.63        66.50265
775.05        66.26527
775.46        66.13785
775.88        66.14249
776.29        66.26289
776.70        66.41065
777.12        66.45441
777.53        66.38088
777.95        66.22478
778.36        66.07243
778.77        66.04955
779.19         66.1859
779.60        66.44902
780.02        66.75098
780.43        66.97806
780.84        67.10466
781.26        67.11753
781.67        67.09979
782.09        67.23616
782.50        67.46952
782.91        67.50526
783.33        67.33481
783.74         67.2818
784.15        67.32887
784.57        67.32088
784.98        67.27699
785.39        67.28133
785.81        67.34024
786.22        67.42731
786.63        67.52831
787.04        67.62339
787.46        67.71249
787.87        67.77197
788.28        67.81879
788.70        67.85997
789.11        67.87452
789.52        67.90038
789.93        67.92249
790.35        67.83574
790.76        67.68983
791.17        67.66711
791.58        67.75648
792.00        67.77834
792.41        67.75515
792.82        67.76056
793.23        67.85728
793.65        68.04749
794.06        68.31558
794.47        68.70432
794.88        69.14101
795.29         68.9514
795.71        69.16421
796.12        68.93778
796.53         68.6401
796.94         68.4707
797.35        68.44981
797.76        68.35098
798.18        68.18541
798.59        68.15839
799.00        68.26711
799.41        68.41238
799.82        68.52889
800.23        68.55566
800.64        68.47089
801.06        68.26781
801.47        68.05758
801.88        67.95148
802.29        67.98672
802.70        68.13453
803.11        68.33601
803.52        68.48351
803.93        68.54174
804.34        68.54086
804.75        68.53003
805.17        68.56641
805.58        68.68881
805.99        68.88666
806.40        69.10856
806.81        69.17989
807.22        69.11774
807.63        69.15629
808.04        69.29349
808.45        69.33075
808.86         69.2582
809.27        69.18826
809.68        69.15405
810.09        69.15106
810.50        69.18957
810.91         69.2859
811.32        69.37896
811.73        69.36307
812.14        69.22135
812.55        68.97794
812.96        68.74641
813.37        68.72241
813.78        68.94266
814.19        69.33723
814.60        69.75285
815.01        69.95789
815.42        69.89561
815.83        69.62671
816.24        69.26859
816.65        69.04552
817.05        69.04779
817.46        69.19129
817.87        69.40791
818.28        69.54813
818.69        69.57507
819.10        69.53627
819.51        69.51122
819.92        69.62955
820.33        69.91003
820.74        70.28083
821.14        70.63155
821.55        70.82642
821.96        70.81877
822.37        70.65637
822.78        70.39655
823.19        70.14382
823.60        69.94815
824.00         69.8019
824.41        69.68488
824.82        69.62938
825.23        69.63433
825.64        69.71366
826.04        69.83954
826.45         69.9163
826.86        69.93933
827.27         69.9265
827.68        69.92545
828.08        70.05042
828.49        70.24911
828.90        70.52109
829.31        70.82761
829.72        71.03042
830.12        71.10236
830.53        71.37282
830.94        71.21292
831.35        71.05312
831.75        70.74103
832.16        70.29588
832.57        69.85506
832.97         69.6367
833.38        69.69214
833.79        69.95804
834.20        70.33557
834.60        70.66948
835.01        70.90218
835.42        71.06493
835.82         71.1701
836.23        71.19136
836.64        71.15237
837.04        71.06341
837.45        70.92401
837.86        70.80642
838.26         70.7429
838.67        70.70936
839.08        70.72579
839.48        70.79844
839.89        70.91363
840.29        71.07862
840.70        71.24702
841.11        71.34121
841.51        71.35843
841.92        71.27258
842.33         71.1636
842.73        71.16845
843.14        71.26844
843.54        71.45659
843.95        71.63455
844.35        71.66714
844.76        71.52204
845.17         71.2649
845.57          71.006
845.98         70.8847
846.38        70.97472
846.79        71.20196
847.19        71.54108
847.60        71.87131
848.00        72.17927
848.41         72.4465
848.81        72.69857
849.22         72.9002
849.62        73.07786
850.03        73.18277
850.43        73.23328
850.84        73.16234
851.24        73.02393
851.65        72.77719
852.05        72.54269
852.46        72.42114
852.86        72.44491
853.27        72.61771
853.67        72.77272
854.07        72.81947
854.48        72.70198
854.88        72.48091
855.29        72.18736
855.69        72.06318
856.10        72.07286
856.50        72.24506
856.90        72.43571
857.31        72.45212
857.71        72.31002
858.12        72.02444
858.52        71.70114
858.92         71.4437
859.33        71.27542
859.73        71.19408
860.13        71.18894
860.54        71.24413
860.94        71.40099
861.34        71.63476
861.75        71.81676
862.15        71.81146
862.55          71.558
862.96        71.08144
863.36        70.57822
863.76        70.32063
864.17          70.371
864.57        70.68802
864.97        71.06245
865.38        71.12048
865.78         70.8103
866.18        70.22269
866.58        69.60172
866.99        69.37096
867.39        69.67746
867.79        70.33673
868.19        71.07938
868.60         71.4573
869.00        71.44292
869.40        71.31353
869.80         71.1065
870.21        70.73434
870.61        70.31501
871.01        69.90382
871.41        69.54307
871.81         69.2153
872.22        68.93406
872.62        68.74325
873.02        68.62907
873.42        68.69839
873.82        68.78778
874.22        68.45313
874.63        67.97946
875.03         67.9427
875.43         68.3993
875.83         69.8872
876.23        69.92951
876.63        69.72266
877.03         68.9921
877.44        67.29149
877.84        158.4276
878.24        67.87465
878.64        68.27221
879.04        69.23978
879.44        69.40181
879.84        66.44867
880.24        70.98266
880.64        71.48721
881.04         69.8227
881.44        68.42799
881.84        67.67356
882.24        67.72674
882.65        68.22416
883.05        68.20837
883.45        67.48302
883.85        66.74483
884.25        66.27525
884.65        66.15012
885.05        66.41682
885.45        66.96947
885.85        67.58045
886.25        67.94347
886.65        67.98705
887.05        67.81895
887.45        67.51696
887.85        67.21944
888.25         67.0021
888.65        66.81345
889.04         66.7592
889.44        67.01845
889.84        67.57215
890.24        68.33395
890.64        69.05768
891.04        69.38087
891.44        69.23894
891.84        68.74795
892.24        68.08458
892.64        67.56768
893.04        67.32821
893.44        67.29727
893.83         67.4439
894.23        67.68328
894.63        67.98095
895.03        68.35833
895.43        68.77408
895.83        69.14257
896.23        69.41972
896.63        69.58577
897.02        69.62772
897.42        69.61309
897.82        69.53678
898.22        69.40445
898.62        69.21541
899.01        68.97846
899.41         68.6921
899.81        68.38888
900.21         68.1264
900.61        67.98306
901.00        67.96266
901.40        68.10907
901.80        68.35561
902.20        68.47856
902.59        68.42659
902.99        68.47099
903.39        68.79156
903.79        68.21983
904.18        69.09207
904.58        69.47541
904.98        69.86176
905.38        69.90518
905.77        69.55706
906.17        68.94991
906.57        68.27679
906.96        67.94425
907.36        68.05441
907.76         68.5157
908.15        69.16476
908.55        69.57388
908.95        69.66777
909.34        69.49802
909.74        69.27742
910.14        69.30682
910.53        69.64398
910.93        70.17435
911.33         70.6149
911.72        70.52911
912.12        69.86451
912.52        68.79565
912.91        67.67633
913.31        67.13323
913.70        67.28886
914.10        67.96532
914.49        68.86799
914.89        69.40119
915.29        69.41497
915.68        69.06204
916.08        68.60631
916.47        68.41769
916.87        68.62824
917.26        69.10123
917.66        69.64842
918.05        70.00481
918.45        70.07267
918.84        69.94738
919.24        69.77668
919.64        69.85286
920.03        70.22922
920.42        70.77287
920.82        71.24621
921.21         71.2981
921.61        70.88277
922.00        70.19898
922.40        69.52313
922.79        69.17278
923.19        68.92798
923.58        69.44135
923.98        70.93317
924.37        71.15288
924.77         68.8811
925.16        75.83671
925.55        70.81964
925.95        71.27843
926.34        71.21645
926.74        70.50629
927.13        69.18057
927.52        68.34319
927.92        68.46225
928.31        68.94402
928.70        69.62848
929.10        70.20791
929.49        70.60735
929.89        70.93815
930.28        71.10807
930.67        70.84744
931.07        70.16932
931.46        69.06441
931.85         67.9556
932.24        67.96004
932.64        69.23656
933.03         70.9285
933.42        72.17175
933.82         74.5051
934.21        73.34316
934.60        72.29458
934.99        71.14822
935.39        70.91466
935.78        71.66057
936.17        73.59047
936.56         78.9613
936.96        73.41002
937.35        76.32874
937.74        73.39098
938.13        71.07726
938.53         69.1823
938.92        68.41374
939.31        69.20352
939.70         70.4821
940.09        71.14886
940.49        70.94117
940.88        70.27346
941.27        69.48692
941.66        69.19948
942.05        69.62083
942.44        70.44037
942.84         71.3352
943.23        71.98133
943.62        72.25215
944.01        72.23424
944.40        72.07541
944.79        72.00893
945.18        72.09966
945.57        72.28825
945.97        72.34429
946.36        72.02041
946.75        71.24918
947.14        70.14987
947.53        69.09233
947.92        68.69495
948.31        69.10015
948.70        70.09731
949.09        71.25178
949.48        71.89362
949.87        71.85403
950.26        71.32868
950.65        70.59414
951.04        70.11456
951.43         70.0406
951.82        70.21818
952.21        70.51593
952.60        70.72358
952.99        70.75394
953.38        70.69025
953.77        70.57663
954.16        70.44642
954.55        70.32517
954.94        70.21322
955.33        70.08559
955.72         69.9234
956.11        69.73482
956.50        69.51218
956.89        69.39073
957.28        69.57193
957.66        70.09422
958.05        70.82296
958.44        71.47725
958.83        71.62354
959.22         71.1748
959.61        70.21502
960.00        69.09389
960.39        68.50346
960.78        68.66468
961.16        69.41317
961.55        70.23712
961.94         70.5218
962.33        70.14388
962.72        69.25364
963.11        68.24899
963.49        67.93639
963.88        68.54034
964.27        69.76876
964.66        71.04177
965.04        71.58625
965.43        71.21188
965.82        70.20442
966.21        69.01327
966.60        68.42931
966.98        68.69376
967.37        69.53417
967.76        70.58695
968.15        71.25858
968.53        71.37689
968.92        71.11044
969.31        70.62766
969.69        70.18323
970.08        69.85202
970.47        69.53353
970.86        69.27602
971.24        69.19576
971.63        69.27715
972.02        69.52241
972.40        69.77988
972.79        69.70329
973.17        69.30173
973.56        68.68959
973.95         68.0851
974.33        67.88731
974.72        68.19927
975.11        68.84427
975.49        69.79059
975.88        70.90514
976.26        72.12789
976.65        73.37857
977.04        74.36032
977.42        74.61272
977.81        74.03284
978.19         72.6851
978.58        71.20078
978.96        70.75523
979.35        71.62032
979.74        73.34917
980.12        75.19055
980.51        76.03898
980.89        75.84568
981.28         74.8423
981.66         73.4146
982.05        72.52142
982.43         72.5611
982.82        73.25984
983.20        74.24892
983.59        74.94399
983.97        75.20118
984.35        75.14556
984.74        74.84692
985.12        74.50906
985.51        74.18754
985.89         73.9158
986.28        73.58754
986.66        73.09005
987.04        72.47726
987.43        71.72733
987.81        70.92416
988.20        71.56666
988.58        73.82105
988.96        74.99235
989.35        74.27404
989.73        79.69402
990.12        76.98278
990.50          77.064
990.88        76.28516
991.27        75.36779
991.65        74.39568
992.03        73.44245
992.42        72.79643
992.80        72.43892
993.18        72.39577
993.56        72.76228
993.95        73.29001
994.33        73.48969
994.71        73.25496
995.10         72.6579
995.48         72.0272
995.86        71.92185
996.24        72.44981
996.63         73.3388
997.01        74.31706
997.39        74.76267
997.77        74.52339
998.15         73.8012
998.54        72.92047
998.92        72.27569
999.30        72.05775
999.68        72.20336
1000.06        72.55892
1000.45        72.77202
1000.83        72.81126
1001.21        72.73663
1001.59         72.7925
1001.97        73.32024
1002.35        74.28263
1002.73        75.44646
1003.12        76.46204
1003.50         76.9511
1003.88        76.85043
1004.26        76.29078
1004.64        75.46361
1005.02        74.79327
1005.40        74.47334
1005.78        74.39029
1006.16        74.47219
1006.54        74.54787
1006.92        74.56056
1007.30        74.65472
1007.69        74.70209
1008.07        74.58201
1008.45        74.27082
1008.83        73.75379
1009.21        73.41574
1009.59        74.02467
1009.97        75.58437
1010.35        77.57708
1010.73        79.35545
1011.11        80.48124
1011.49        81.03797
1011.86        80.93289
1012.24        80.06292
1012.62          81.099
1013.00        81.63638
1013.38         81.4059
1013.76        79.18877
1014.14        82.43535
1014.52        87.56052
1014.90        80.22339
1015.28        80.90763
1015.66        81.91607
1016.04        78.28011
1016.41        78.53477
1016.79        77.83639
1017.17        77.72983
1017.55        77.63488
1017.93        77.82084
1018.31        78.48801
1018.69        79.38138
1019.06        80.43935
1019.44        81.54517
1019.82        82.44202
1020.20        82.81018
1020.58        82.62997
1020.95         81.8718
1021.33        80.80745
1021.71        80.14953
1022.09        80.34525
1022.46        81.11874
1022.84        82.04305
1023.22        82.86665
1023.60        83.59036
1023.97        84.32969
1024.35        85.05116
1024.73        85.58229
