SpectraSmart Spectrum 2.9.0.0
--------- Device Information -----------
Spectrum Name :  反射率_0
Saving Time :  2024/04/21 00:55:32
Spectro-Module Model Name : SE2030-DUVN
Spectro-Module Serial Number : OS361AC55029948
Wavelength Start : 200
Wavelength End : 1025
Wavelength Unit : Wavelength(nm)
Spectrum Unit : Reflectance(%)
-----------Spectrum Setting ------------
Integration Time : 20ms
Average : 10
Boxcar : 0
Background removal :  enabled
linearity correction :  enabled
SC :  disabled
Intensity correction :  disabled
DWT denoise :  enabled
savitzky-golay :  disabled
FFT :  disabled
Running average :  disabled
Kalman :  disabled
High pass :  disabled
---------------BEGIN--------------------
Wavelength(nm)             Reflectance(%)
200.29               0
200.75       -103.5064
201.21       -54.97215
201.67       -27.75352
202.13       -16.04747
202.58       -12.77704
203.04       -13.57102
203.50       -15.53006
203.96       -13.39385
204.42       -6.336248
204.88         1.84735
205.34        8.152924
205.80        8.639073
206.26        2.385069
206.72       -7.563563
207.18       -23.39698
207.64        -48.1778
208.10       -76.71117
208.55       -106.4622
209.01       -109.1317
209.47       -61.66734
209.93       -6.216912
210.39        35.52821
210.85        60.89256
211.31         70.9264
211.77        69.68106
212.23        57.75469
212.69        29.32428
213.14       -22.15472
213.60        -109.178
214.06       -339.2817
214.52       -817.9409
214.98       -342.2717
215.44       -81.83921
215.90        2.425214
216.36        29.68433
216.81        32.20053
217.27        14.70398
217.73       -77.29922
218.19        1041.615
218.65        452.4473
219.11        -995.968
219.57       -43.10717
220.02        18.34344
220.48        30.90868
220.94        28.78746
221.40        13.75687
221.86       -25.31274
222.32       -54.53246
222.77       -23.02244
223.23        5.748837
223.69        20.77947
224.15        26.61961
224.61        27.89912
225.06        27.74154
225.52        26.08582
225.98        21.93548
226.44        15.54261
226.90        6.167784
227.36       -1.210222
227.81        2.697849
228.27        14.20501
228.73        26.52315
229.19        34.61088
229.65        35.96495
230.10        31.61037
230.56        23.21478
231.02        12.04724
231.48        3.874648
231.93        3.237158
232.39        8.136662
232.85        14.28956
233.31        17.87634
233.77        18.94242
234.22        19.21205
234.68        18.76082
235.14        17.58606
235.60        16.14982
236.05         13.4203
236.51        9.995823
236.97        14.00888
237.43         26.1891
237.88        34.55722
238.34        34.38723
238.80        58.16946
239.26        46.33074
239.71        42.15783
240.17         30.0227
240.63         17.6954
241.08         11.0681
241.54        14.53654
242.00        27.86753
242.46        37.17071
242.91        38.92894
243.37        35.03795
243.83        27.25283
244.28        23.24473
244.74        27.29162
245.20        33.75085
245.66        38.91816
246.11        40.00115
246.57        36.55422
247.03        30.56777
247.48        20.96521
247.94         4.58933
248.40        -26.3046
248.85       -106.9192
249.31       -366.6638
249.77       -604.3886
250.22       -216.5431
250.68       -45.78056
251.14        10.57069
251.59         26.2676
252.05        25.03971
252.51        13.45077
252.96       -7.248581
253.42       -24.21235
253.88       -25.28262
254.33          -15.27
254.79       0.9174411
255.25        16.98382
255.70        29.10332
256.16        37.65224
256.62        42.87794
257.07        45.02136
257.53        45.43657
257.99        44.83958
258.44         43.5516
258.90        42.38095
259.35        41.10198
259.81        39.95313
260.27        38.95586
260.72        38.22454
261.18         37.9002
261.63        37.68913
262.09        37.45342
262.55        36.79667
263.00        35.71204
263.46        34.50544
263.91        33.31716
264.37        32.63647
264.83        32.41005
265.28        32.40927
265.74        32.47245
266.19        32.27338
266.65        31.78967
267.11        31.08852
267.56        30.21701
268.02         29.3145
268.47        28.39844
268.93        27.47699
269.38        26.53538
269.84        25.60608
270.30         24.7004
270.75        23.83581
271.21        23.08389
271.66        22.48345
272.12        22.05152
272.57        21.75349
273.03        21.51046
273.48        21.19005
273.94        20.77715
274.39        20.28034
274.85        19.79611
275.31        19.42267
275.76        19.17025
276.22        19.01911
276.67        18.88337
277.13        18.69379
277.58        18.41045
278.04        18.07372
278.49        17.71287
278.95        17.41533
279.40        17.16488
279.86        16.95949
280.31        16.71951
280.77        16.38642
281.22        15.94554
281.68        15.48562
282.13        15.05574
282.59        14.77769
283.04        14.65098
283.50        14.62769
283.95         14.6933
284.41        14.83732
284.86        15.02858
285.32        15.27481
285.77        15.46504
286.22        15.43826
286.68        15.21049
287.13         14.8136
287.59        14.47045
288.04        14.42517
288.50        14.68075
288.95        15.28189
289.41         16.0717
289.86        16.29628
290.32        15.81167
290.77        16.82316
291.22        15.86261
291.68        15.96547
292.13        16.14441
292.59        16.45658
293.04        16.90379
293.50        17.56785
293.95        18.46724
294.40        19.55038
294.86        20.74752
295.31        21.92928
295.77        23.05277
296.22        24.13806
296.68        25.21477
297.13        26.33319
297.58        27.53355
298.04        28.81223
298.49         30.1987
298.95        31.75422
299.40        33.46524
299.85        35.31777
300.31        37.24481
300.76        39.12303
301.21        40.92907
301.67        42.71097
302.12        44.50652
302.58        46.46999
303.03        48.60632
303.48        50.91289
303.94        53.33231
304.39        55.72424
304.84        58.05987
305.30         60.3906
305.75        62.72258
306.20        65.16663
306.66        67.72718
307.11        70.29486
307.57        72.83594
308.02        75.24197
308.47        77.50525
308.93        79.69234
309.38        81.74545
309.83        83.63205
310.29        85.41857
310.74        87.03584
311.19        88.58641
311.65        90.19254
312.10        91.86379
312.55        93.58711
313.00        95.25242
313.46        96.68065
313.91        97.82266
314.36        98.74173
314.82        99.59784
315.27        100.6347
315.72        101.9081
316.18        103.3351
316.63         104.745
317.08        105.8633
317.53        106.6166
317.99        107.0915
318.44        107.4245
318.89        107.8214
319.35        108.3473
319.80        108.9473
320.25        109.5649
320.70        110.1155
321.16        110.5602
321.61        110.9555
322.06        111.3135
322.51        111.6519
322.97        111.9676
323.42        112.2908
323.87        112.6104
324.32        112.9343
324.78        113.2447
325.23        113.5796
325.68        113.9322
326.13        114.3229
326.59        114.7214
327.04        115.1736
327.49        115.6138
327.94        115.9727
328.39        116.2355
328.85        116.3912
329.30        116.5559
329.75        116.7793
330.20         117.091
330.66        117.4379
331.11        117.8705
331.56         118.317
332.01        118.7624
332.46        119.2177
332.92        119.6379
333.37        120.1034
333.82        120.5679
334.27        121.0306
334.72        121.4947
335.17        121.9717
335.63        122.4352
336.08        122.9504
336.53        123.5003
336.98         124.109
337.43        124.7721
337.88        125.4704
338.34        126.1423
338.79        126.7553
339.24        127.2624
339.69        127.6822
340.14        128.0356
340.59        128.3639
341.05        128.6926
341.50        129.0277
341.95        129.3942
342.40        129.8345
342.85        130.3485
343.30        130.9176
343.75        131.4904
344.20        131.9874
344.66        132.3891
345.11        132.6877
345.56        132.9057
346.01        133.0841
346.46        133.2533
346.91        133.3869
347.36        133.4659
347.81        133.5675
348.26        133.7159
348.72        133.5145
349.17        133.7183
349.62        133.8518
350.07        134.1316
350.52        134.4979
350.97        134.8321
351.42          134.93
351.87        134.7358
352.32         134.314
352.77        133.7819
353.22         133.322
353.67        132.9846
354.13        132.7387
354.58        132.4854
355.03        132.1208
355.48        131.6241
355.93        131.0458
356.38        130.4598
356.83        129.9679
357.28        129.5793
357.73        129.2389
358.18        128.8714
358.63        128.3695
359.08        127.7061
359.53        126.9235
359.98         126.063
360.43        125.1781
360.88        124.2977
361.33        123.4237
361.78        122.5697
362.23         121.758
362.68        120.9981
363.13        120.2847
363.58        119.6219
364.03        119.0106
364.48        118.4271
364.93        117.8463
365.38        117.2109
365.83        116.4397
366.28        115.5183
366.73        114.4778
367.18        113.3671
367.63        112.2693
368.08         111.228
368.53        110.2435
368.98        109.3214
369.43        108.4482
369.88        107.6105
370.33        106.8094
370.78        106.0409
371.23        105.3114
371.68        104.6225
372.13        103.9611
372.58        103.3186
373.03         102.673
373.48        102.0103
373.93        101.3413
374.38        100.6439
374.83        99.89655
375.28         99.1169
375.72        98.29757
376.17        97.55002
376.62        96.94644
377.07        96.47526
377.52        96.08795
377.97        95.68536
378.42        95.11883
378.87        94.37428
379.32        93.52985
379.77        92.66382
380.22        91.86726
380.67        91.15801
381.11        90.50591
381.56        89.91465
382.01         89.4212
382.46        89.03215
382.91         88.7459
383.36        88.48588
383.81        88.12717
384.26         87.6408
384.71        87.05236
385.15        86.43166
385.60        85.96313
386.05        85.65402
386.50        85.45636
386.95        85.27248
387.40        84.95809
387.85        84.49339
388.29        83.88578
388.74        83.33732
389.19        82.90321
389.64        82.59196
390.09           82.36
390.54        82.13895
390.98        81.80537
391.43        81.38023
391.88        80.91576
392.33        80.52125
392.78        80.14876
393.23        79.77879
393.67        79.72926
394.12        80.08248
394.57        79.05096
395.02        79.24736
395.47        78.94849
395.91        78.88945
396.36        78.63548
396.81        78.21716
397.26        77.85054
397.71        77.53348
398.15        77.20771
398.60        76.95699
399.05        76.67879
399.50        76.45111
399.95        76.44218
400.39        76.58959
400.84        76.72913
401.29        76.73199
401.74        76.17856
402.18        75.26933
402.63        74.93591
403.08        75.14375
403.53        74.97185
403.97        74.40367
404.42        74.06142
404.87        73.94605
405.32        73.83234
405.76        73.70814
406.21         73.5369
406.66        73.36189
407.11        73.48476
407.55        73.81095
408.00        73.77118
408.45         73.3656
408.90        72.94613
409.34        72.62062
409.79        72.46807
410.24        72.44131
410.68        72.31669
411.13        72.08624
411.58        71.92122
412.03        71.84622
412.47        71.81825
412.92         71.8111
413.37        71.85418
413.81        71.90619
414.26        71.96021
414.71        71.98832
415.15        72.00468
415.60        71.98328
416.05        71.95114
416.49        71.91309
416.94        71.85007
417.39        71.76292
417.83        71.64236
418.28        71.49524
418.73        71.33382
419.17        71.15676
419.62        70.96909
420.07        70.77831
420.51        70.57993
420.96         70.4385
421.41        70.37221
421.85        70.34658
422.30        70.46022
422.74        70.61057
423.19        70.59222
423.64        70.44702
424.08        70.61145
424.53        70.95749
424.98        71.06123
425.42        70.90807
425.87        70.61221
426.31        70.34093
426.76        70.46605
427.21         70.9163
427.65        71.12536
428.10         70.9916
428.54        70.90289
428.99        70.88376
429.44        70.69924
429.88        70.39078
430.33        70.16205
430.77        70.01147
431.22        70.14067
431.66        70.43347
432.11        70.51515
432.56        70.49752
433.00         70.5121
433.45        70.30195
433.89        70.60493
434.34        71.62794
434.78        69.27879
435.23        69.76419
435.67        70.76116
436.12        71.29516
436.57        71.53677
437.01        70.85551
437.46         70.5062
437.90        71.24587
438.35        70.97974
438.79        71.07449
439.24        70.95193
439.68        70.96936
440.13         70.9926
440.57        71.01716
441.02        71.08623
441.46         71.1446
441.91        71.16832
442.35        71.09534
442.80        71.20983
443.24        71.46177
443.69        71.58292
444.13        71.47255
444.58        71.74687
445.02        71.36908
445.47        71.38302
445.91        71.43375
446.36        71.52306
446.80        71.35178
447.24        71.21189
447.69        71.08987
448.13        71.23695
448.58        71.39553
449.02        71.36842
449.47        71.13441
449.91        71.03469
450.36         71.0996
450.80        71.07702
451.25        70.98845
451.69        70.97059
452.13         71.0069
452.58        70.92033
453.02        70.72374
453.47        70.60759
453.91         70.5688
454.36        70.51524
454.80         70.4288
455.24        70.34387
455.69        70.27879
456.13        70.16697
456.58        70.01903
457.02        69.97859
457.46        69.67536
457.91        69.50001
458.35        69.46074
458.79        69.35675
459.24        69.23042
459.68        69.18144
460.13         69.2496
460.57        69.11014
461.01         68.7256
461.46        68.95039
461.90        68.65589
462.34        68.22507
462.79        68.36798
463.23         68.4237
463.68        68.57877
464.12        68.27298
464.56        67.67686
465.01         67.7438
465.45        68.27123
465.89        68.35292
466.34        68.00611
466.78        67.84045
467.22        67.91623
467.67        67.66981
468.11        67.48969
468.55        67.32288
468.99        67.27615
469.44        67.17948
469.88        67.03543
470.32        66.92192
470.77        66.83259
471.21        66.74819
471.65        66.66388
472.10        66.55173
472.54        66.41754
472.98         66.4441
473.42         66.3304
473.87        66.42297
474.31        66.53358
474.75        66.39458
475.20        66.08059
475.64         66.0785
476.08        66.34443
476.52        66.39131
476.97        66.17674
477.41        66.12182
477.85        66.20284
478.29        65.94843
478.74        65.39144
479.18        65.65779
479.62        66.03241
480.06        66.25522
480.50         66.0942
480.95        66.04847
481.39        66.13653
481.83        65.98712
482.27        66.13358
482.72        66.13876
483.16        66.17777
483.60         66.1679
484.04        66.27294
484.48        65.90308
484.93        65.93472
485.37        65.27477
485.81        66.08001
486.25        65.46481
486.69        67.19946
487.14        67.32162
487.58        66.31112
488.02        65.55115
488.46        65.68674
488.90        65.58379
489.34        65.12234
489.79        64.73595
490.23        65.19093
490.67        65.42614
491.11        65.58199
491.55        65.42711
491.99        65.06618
492.43        64.92448
492.88        65.03631
493.32        65.18063
493.76        65.23777
494.20        65.25761
494.64        65.24345
495.08         64.8234
495.52         64.6033
495.96        64.66805
496.41        65.03922
496.85        65.09278
497.29          64.785
497.73        64.68155
498.17        64.50199
498.61        64.65685
499.05        64.93359
499.49        64.80834
499.93        64.38645
500.37        64.28381
500.82        64.58505
501.26        64.73655
501.70        64.90031
502.14        64.57986
502.58        64.42004
503.02        64.26691
503.46        64.24583
503.90        64.21391
504.34        64.15209
504.78        64.16524
505.22         64.2673
505.66        64.35661
506.10        64.38586
506.54        64.48112
506.98        64.66654
507.42        64.02762
507.86        64.46059
508.30        63.99012
508.74        64.17734
509.18        64.13367
509.62        64.14125
510.06        64.14765
510.50        64.10975
510.94        63.97932
511.38        63.77108
511.82         63.6053
512.26        63.49763
512.70        63.39084
513.14        63.29799
513.58        63.26179
514.02        63.28138
514.46        63.34539
514.90        63.40931
515.34        63.43155
515.78        63.40427
516.22        63.32368
516.66        63.06719
517.10        63.25986
517.54        63.07957
517.98        63.15485
518.42        63.22956
518.86          63.312
519.30        63.38762
519.74        63.42124
520.18        63.42316
520.62        63.48808
521.06         63.5704
521.50        63.44505
521.93        63.16073
522.37        63.00034
522.81        62.99468
523.25        63.00128
523.69        62.99648
524.13        63.00006
524.57        63.00124
525.01        62.99569
525.45        62.99199
525.89        63.00151
526.32        63.02616
526.76        63.06883
527.20        63.11393
527.64        63.14965
528.08        63.17311
528.52        63.16306
528.96        63.14636
529.40         63.2141
529.83        63.33814
530.27        63.40805
530.71        63.39526
531.15        63.36422
531.59        63.31226
532.03        63.19127
532.46        63.03384
532.90        62.93886
533.34        62.91967
533.78        62.95449
534.22        63.00553
534.66        63.01303
535.09        62.95525
535.53        62.87149
535.97        62.78963
536.41        62.76939
536.85        62.82139
537.28        62.92342
537.72         63.0303
538.16        63.07285
538.60        63.03333
539.04        62.93541
539.47        62.80603
539.91        62.73836
540.35        62.73192
540.79        62.76577
541.22        62.80151
541.66        62.80558
542.10         62.7689
542.54        62.68632
542.97        62.56739
543.41        62.61102
543.85         62.5699
544.29        62.62909
544.72        62.70011
545.16        62.78304
545.60        62.84793
546.04        62.94385
546.47        63.05413
546.91         63.0106
547.35        62.86258
547.79        62.95095
548.22         63.1749
548.66        63.08392
549.10        62.72573
549.53        62.51929
549.97        62.51978
550.41        62.46318
550.84        62.43522
551.28        62.50907
551.72        62.66932
552.15        62.73073
552.59        62.67301
553.03        62.73332
553.46        62.56768
553.90          62.491
554.34         62.3998
554.77        62.32259
555.21        62.30245
555.65        62.23246
556.08        62.38689
556.52        62.51968
556.96        62.65637
557.39        62.77219
557.83        62.83335
558.27         62.7031
558.70        62.45147
559.14        62.32253
559.57        62.33784
560.01        62.46325
560.45         62.5904
560.88        62.54396
561.32        62.39488
561.75        62.18551
562.19        62.04903
562.63        62.27295
563.06        62.70601
563.50        62.69555
563.93        62.27479
564.37        62.05554
564.80        62.08512
565.24        62.22443
565.68        62.41418
566.11        62.51056
566.55        62.50627
566.98        62.56572
567.42        62.69848
567.85         62.5799
568.29        62.47961
568.72        62.51497
569.16         62.7339
569.60        62.88147
570.03        62.91103
570.47        62.93959
570.90        62.92771
571.34        63.18425
571.77         63.3221
572.21        63.34941
572.64        63.38406
573.08        63.21446
573.51        63.31892
573.95        63.64959
574.38        63.55055
574.82        63.84434
575.25        63.74264
575.69        63.80285
576.12        63.06557
576.56        63.14595
576.99        63.17546
577.42        63.55515
577.86        63.65134
578.29        63.92911
578.73        64.50394
579.16        64.31803
579.60        63.68542
580.03        63.16846
580.47        63.47849
580.90        63.83461
581.33        63.63274
581.77        63.85954
582.20        64.29135
582.64         64.4985
583.07        64.34557
583.51        63.82529
583.94         63.2941
584.37         63.2346
584.81        62.93054
585.24        63.21726
585.68        64.05261
586.11        63.68242
586.54        63.62923
586.98        63.46512
587.41        62.99802
587.85        63.65076
588.28        63.84446
588.71        63.60024
589.15        63.51123
589.58        63.29323
590.01        63.06376
590.45        62.64756
590.88        63.07536
591.31        62.78495
591.75        62.76749
592.18        62.71911
592.61        62.93422
593.05         62.9527
593.48        63.51539
593.91        63.70995
594.35        63.59926
594.78         63.4652
595.21        62.87346
595.65        62.82924
596.08        63.11475
596.51        63.31225
596.94        62.84596
597.38        62.77211
597.81        62.97432
598.24        62.83923
598.68         63.2163
599.11        62.70816
599.54        62.95309
599.97        63.08637
600.41        63.04768
600.84        62.87068
601.27        63.11248
601.70        62.88307
602.14        62.64069
602.57        62.51229
603.00        62.59231
603.43        62.90627
603.87        63.20826
604.30        63.26993
604.73        63.22155
605.16        63.06606
605.60        63.00403
606.03        62.96452
606.46        62.98043
606.89        62.89944
607.32        62.75391
607.76        63.09557
608.19        62.95926
608.62        62.97274
609.05        63.43228
609.48        62.96787
609.92        62.99394
610.35        62.87526
610.78        63.09235
611.21         62.8823
611.64        62.90687
612.07        62.82184
612.50        62.89545
612.94        62.80446
613.37        62.53818
613.80        63.03511
614.23        62.70843
614.66        62.66465
615.09        62.49505
615.52        62.42995
615.96        62.44582
616.39        62.47927
616.82        62.56439
617.25        62.24484
617.68         62.5211
618.11        62.38552
618.54        62.30727
618.97        62.22198
619.40        62.21085
619.84        61.87577
620.27         61.9817
620.70        61.88623
621.13        61.82928
621.56        62.02189
621.99        62.40792
622.42        62.45279
622.85        62.12038
623.28        62.15681
623.71        62.20032
624.14        62.05052
624.57        62.30986
625.00        62.46812
625.43         62.0653
625.86        62.08278
626.29        62.38172
626.72        61.90231
627.15        62.05489
627.58        61.95252
628.01        62.09533
628.44        61.73889
628.87        61.60753
629.30        62.10352
629.73         61.8726
630.16        61.70729
630.59        61.68837
631.02        61.96207
631.45        61.77565
631.88        61.83665
632.31        61.91024
632.74        61.68895
633.17        61.79699
633.60         61.7063
634.03        61.61534
634.46        61.56366
634.89        61.48083
635.32         61.4856
635.75        61.54497
636.18        61.65452
636.61        61.76724
637.04        61.81047
637.47        61.76873
637.89        61.66729
638.32        61.53888
638.75        61.46476
639.18        61.46589
639.61        61.52058
640.04        61.59459
640.47        61.63188
640.90        61.61747
641.33        61.57103
641.76        61.51768
642.18        61.50372
642.61        61.52514
643.04        61.56971
643.47        61.61954
643.90        61.65245
644.33        61.65961
644.76        61.63875
645.18        61.59481
645.61        61.55616
646.04        61.51886
646.47        61.42479
646.90         61.3041
647.33        61.27156
647.75        61.33331
648.18         61.4262
648.61        61.53561
649.04        61.66091
649.47        61.72069
649.89        61.86933
650.32        61.49357
650.75        61.45183
651.18        61.55451
651.61        61.59569
652.03        61.56252
652.46        61.51108
652.89        61.48577
653.32        61.54488
653.74        61.68831
654.17        61.69273
654.60        61.63287
655.03        61.52645
655.46        60.86346
655.88        61.64537
656.31        63.36237
656.74        67.71328
657.16        66.77998
657.59        65.35773
658.02        62.75855
658.45        61.84042
658.87        61.69936
659.30        61.87236
659.73        61.67875
660.15        61.46176
660.58        61.58643
661.01        61.76855
661.44        62.02189
661.86        61.92836
662.29        61.54094
662.72        61.35258
663.14         61.4156
663.57        61.46016
664.00        61.46049
664.42        61.49405
664.85        61.55658
665.27        61.50779
665.70        61.54676
666.13        61.53281
666.55        61.53109
666.98        61.51965
667.41        61.50064
667.83        61.48951
668.26        61.49959
668.69         61.4772
669.11        61.41213
669.54        61.50412
669.96        61.80032
670.39         61.4193
670.82        61.83284
671.24        61.83253
671.67        61.83321
672.09         61.8216
672.52        61.82561
672.94        61.73596
673.37        61.59748
673.80        61.61717
674.22        61.77248
674.65        61.80449
675.07        61.71445
675.50        61.63081
675.92        61.58206
676.35        61.53675
676.77        61.50278
677.20        61.50206
677.62        61.55273
678.05        61.60314
678.47        61.63295
678.90        61.91051
679.32        61.92069
679.75         62.0183
680.17        62.04741
680.60        62.03033
681.02         61.9748
681.45        61.90799
681.87        61.85229
682.30        61.76403
682.72        61.68266
683.15        61.69841
683.57        61.76366
684.00        61.84247
684.42        61.61432
684.85        61.59578
685.27        61.67574
685.70        61.85073
686.12        61.86894
686.54        61.93835
686.97        61.98378
687.39        62.02366
687.82        62.05581
688.24        62.07226
688.66        62.05838
689.09        62.18458
689.51        62.12813
689.94        62.20183
690.36        62.28658
690.78        62.35874
691.21        62.39895
691.63        62.30161
692.06        62.10312
692.48        62.16059
692.90        62.10389
693.33        62.12178
693.75        62.11212
694.17        62.10575
694.60        62.09638
695.02        62.26115
695.44        62.30661
695.87        62.31898
696.29        62.25493
696.71        62.14812
697.14        62.05129
697.56        62.23455
697.98         62.6218
698.41        62.55159
698.83        62.57595
699.25        62.41133
699.68        62.27984
700.10          62.188
700.52        62.16147
700.94        62.18828
701.37        62.23006
701.79        62.28271
702.21        62.31338
702.64         62.3346
703.06        62.34105
703.48        62.33098
703.90        62.31074
704.33         62.2774
704.75        62.24303
705.17        62.21036
705.59        62.18529
706.01        62.16531
706.44        62.17159
706.86        62.25443
707.28        62.40076
707.70        62.59143
708.12        62.77848
708.55        62.88064
708.97        62.87392
709.39        62.78947
709.81        62.66545
710.23        62.57582
710.66        62.55152
711.08          62.588
711.50        62.64802
711.92        62.68858
712.34        62.69768
712.76        62.68478
713.19        62.67101
713.61        62.73499
714.03        62.85965
714.45        63.03387
714.87        63.20187
715.29        63.23803
715.71        63.11814
716.13          63.041
716.56        62.76275
716.98        62.67528
717.40        62.70977
717.82        62.84015
718.24        63.00449
718.66        63.10356
719.08         63.1115
719.50        63.05746
719.92         62.9856
720.34        62.96264
720.76        63.00644
721.19        63.08396
721.61        63.18168
722.03        63.25141
722.45        63.28063
722.87        63.28703
723.29        63.29032
723.71        63.31823
724.13        63.37752
724.55        63.46278
724.97        63.58213
725.39        63.66483
725.81        63.68517
726.23        63.80809
726.65         64.0715
727.07        63.69953
727.49        64.03355
727.91        63.98936
728.33        63.96063
728.75        63.94184
729.17        63.93148
729.59        63.84437
730.01        63.71821
730.43        63.71611
730.85        63.84823
731.27        64.03648
731.69        64.22288
732.10        64.27352
732.52        64.36251
732.94         64.1347
733.36        63.75765
733.78        63.57573
734.20        63.65407
734.62        63.79747
735.04        63.93272
735.46        64.09028
735.88        64.25933
736.30        64.12193
736.72        64.22689
737.13         64.2131
737.55        64.19585
737.97        63.99957
738.39        63.72132
738.81        63.72451
739.23        63.98788
739.65        64.16831
740.06        64.16639
740.48        64.19693
740.90        64.21452
741.32        64.09821
741.74        63.90956
742.16        63.83383
742.57         63.9183
742.99        64.09318
743.41        64.29023
743.83        64.38307
744.25        64.33969
744.67        64.19108
745.08        64.04231
745.50        64.02107
745.92         64.1739
746.34        64.46273
746.75        64.75465
747.17        64.83448
747.59        64.66426
748.01        64.27963
748.42        63.87034
748.84        63.77579
749.26        64.02475
749.68        64.43859
750.09        64.83907
750.51        64.92002
750.93          64.701
751.35        64.56783
751.76         64.5674
752.18        64.47541
752.60         64.3187
753.01        64.28111
753.43        64.31934
753.85         64.3147
754.27        64.25512
754.68        64.18248
755.10        64.13344
755.52        64.13803
755.93        64.19995
756.35         64.2985
756.77        64.40751
757.18        64.48949
757.60        64.53631
758.02        64.56494
758.43        64.58917
758.85        64.57285
759.26        64.65054
759.68        64.66405
760.10        64.21379
760.51        64.01342
760.93        64.63567
761.34        65.04406
761.76        65.32654
762.18        65.21351
762.59        64.77086
763.01        64.82106
763.42        64.54633
763.84        64.67133
764.26        64.58369
764.67        64.82515
765.09         65.1949
765.50        65.35056
765.92        65.30244
766.33        65.20922
766.75        65.10138
767.16        65.02652
767.58        64.94415
768.00        65.00613
768.41        65.18018
768.83        64.95999
769.24         64.4329
769.66        64.74087
770.07        64.91527
770.49        65.04169
770.90        64.86149
771.32        64.82573
771.73        64.95384
772.15         65.0229
772.56        65.04999
772.97        65.12151
773.39         65.1967
773.80        65.24627
774.22        65.23282
774.63        65.19023
775.05        65.13089
775.46        65.12652
775.88        65.16814
776.29        65.25778
776.70        65.34212
777.12        65.34462
777.53        65.27233
777.95        65.15525
778.36        65.03019
778.77        64.94621
779.19        64.91591
779.60         64.9231
780.02        64.98811
780.43        65.12346
780.84        65.31076
781.26        65.63741
781.67        66.02914
782.09        65.99957
782.50        65.65453
782.91        65.70455
783.33        66.08927
783.74        66.20374
784.15        65.98296
784.57        65.82547
784.98        65.80127
785.39        65.81996
785.81        65.89268
786.22        66.04077
786.63        66.20261
787.04        66.27969
787.46        66.26324
787.87         66.1534
788.28        66.01807
788.70        65.95892
789.11         65.9791
789.52        66.05733
789.93        66.15286
790.35        66.19048
790.76        66.16502
791.17        66.10839
791.58        66.04848
792.00        65.99913
792.41        66.00156
792.82        66.07149
793.23        66.23039
793.65        66.35072
794.06        66.45996
794.47        66.86057
794.88        67.46058
795.29        67.34794
795.71        67.51611
796.12        67.31693
796.53        67.10322
796.94         66.8923
797.35        66.73859
797.76        66.66617
798.18        66.65297
798.59        66.63914
799.00        66.60824
799.41        66.60869
799.82        66.62429
800.23        66.61006
800.64        66.56071
801.06        66.45988
801.47        66.38751
801.88        66.40358
802.29        66.52413
802.70        66.73136
803.11        66.95837
803.52         67.0892
803.93        67.09051
804.34         66.9889
804.75        66.86805
805.17        66.84129
805.58        66.95988
805.99        67.21712
806.40        67.51727
806.81        67.57632
807.22        67.41069
807.63        67.34662
808.04        67.41736
808.45        67.42821
808.86         67.3837
809.27        67.40853
809.68        67.50259
810.09        67.58793
810.50        67.64959
810.91        67.71777
811.32        67.74534
811.73        67.65076
812.14        67.42878
812.55        67.10223
812.96        66.77374
813.37        66.62377
813.78        66.69608
814.19        66.93616
814.60         67.2353
815.01        67.42255
815.42        67.45245
815.83        67.37328
816.24        67.24411
816.65        67.17712
817.05        67.22088
817.46        67.30925
817.87        67.44228
818.28        67.58342
818.69         67.7222
819.10        67.87799
819.51        68.04986
819.92        68.22619
820.33        68.39105
820.74        68.51915
821.14         68.6115
821.55        68.70122
821.96        68.77957
822.37          68.848
822.78        68.85379
823.19        68.70737
823.60        68.40285
824.00        67.99092
824.41         67.5632
824.82        67.33881
825.23        67.37115
825.64        67.61181
826.04        67.94775
826.45        68.15235
826.86        68.17797
827.27        68.08179
827.68        67.94968
828.08        67.95945
828.49        68.08775
828.90        68.31693
829.31        68.59245
829.72        68.74614
830.12         68.7456
830.53        68.96925
830.94         68.7635
831.35        68.63779
831.75        68.42985
832.16        68.14052
832.57        67.87212
832.97        67.79118
833.38        67.92186
833.79        68.20011
834.20        68.53574
834.60        68.78902
835.01        68.91386
835.42        68.95272
835.82        68.90791
836.23        68.74141
836.64        68.48856
837.04        68.16935
837.45        67.86065
837.86        67.74901
838.26        67.87807
838.67        68.18756
839.08        68.56372
839.48        68.79691
839.89        68.82446
840.29        68.71116
840.70        68.54982
841.11        68.49741
841.51        68.61808
841.92        68.82283
842.33        69.07561
842.73        69.31897
843.14        69.47552
843.54         69.5929
843.95        69.66352
844.35          69.696
844.76        69.69171
845.17        69.65921
845.57        69.61683
845.98        69.56471
846.38        69.53967
846.79        69.51512
847.19        69.55061
847.60        69.65746
848.00        69.86385
848.41        70.12577
848.81        70.40603
849.22         70.5634
849.62        70.60156
850.03        70.51553
850.43        70.40176
850.84        70.31194
851.24        70.31964
851.65        70.33652
852.05         70.4007
852.46        70.46928
852.86        70.52356
853.27        70.61859
853.67        70.63142
854.07        70.52829
854.48        70.27733
854.88        69.91365
855.29        69.50891
855.69        69.37511
856.10        69.49302
856.50        69.88037
856.90        70.30266
857.31        70.40564
857.71        70.15997
858.12        69.61476
858.52        68.98591
858.92         68.5754
859.33        68.46851
859.73        68.61958
860.13        68.89988
860.54        69.09596
860.94        69.19409
861.34        69.21622
861.75        69.17729
862.15        69.17552
862.55        69.19868
862.96        69.19781
863.36        69.16937
863.76        69.06773
864.17        68.88518
864.57        68.67506
864.97        68.45806
865.38         68.2475
865.78        68.09914
866.18        68.00044
866.58        67.98632
866.99         68.0901
867.39        68.33719
867.79        68.68153
868.19         69.0294
868.60        69.15778
869.00        69.09496
869.40        69.05147
869.80        68.99923
870.21         68.7195
870.61        68.28431
871.01        67.82242
871.41        67.40423
871.81        67.03461
872.22        66.74774
872.62         66.5671
873.02        66.51231
873.42        66.76549
873.82        67.14291
874.22        67.14245
874.63        66.98921
875.03        67.14574
875.43        67.63953
875.83        69.07691
876.23         68.9699
876.63        68.62354
877.03        67.79198
877.44        65.98824
877.84        160.6615
878.24        66.85989
878.64        67.62065
879.04        69.03783
879.44        69.58678
879.84        66.84225
880.24        71.26032
880.64        71.50828
881.04        69.47676
881.44        67.76402
881.84        66.83719
882.24        66.85547
882.65        67.35453
883.05        67.18789
883.45        66.12408
883.85        64.94434
884.25        64.09436
884.65        63.87658
885.05        64.38297
885.45        65.41993
885.85        66.57103
886.25        67.26537
886.65        67.36819
887.05         67.0434
887.45        66.51875
887.85        66.19109
888.25        66.19149
888.65         66.3799
889.04        66.66827
889.44        66.92329
889.84        67.07388
890.24         67.1765
890.64        67.20448
891.04          67.098
891.44        66.87044
891.84        66.55146
892.24        66.21207
892.64        65.98727
893.04        65.93072
893.44        66.01361
893.83        66.24461
894.23        66.60023
894.63        67.05846
895.03        67.60549
895.43         68.1371
895.83        68.48412
896.23        68.59335
896.63        68.48209
897.02         68.2418
897.42        68.08315
897.82        68.02794
898.22        68.04826
898.62        68.03317
899.01        67.80738
899.41        67.33295
899.81        66.70258
900.21        66.10868
900.61        65.85003
901.00        65.98137
901.40        66.46966
901.80        67.11292
902.20        67.47704
902.59        67.44849
902.99        67.35797
903.39        67.47789
903.79        66.72578
904.18         67.5889
904.58        68.01029
904.98         68.4373
905.38        68.40575
905.77        67.85414
906.17        66.96111
906.57        66.02644
906.96        65.62645
907.36        65.89291
907.76        66.66858
908.15        67.66307
908.55        68.23701
908.95        68.25573
909.34        67.84476
909.74        67.30325
910.14        67.07257
910.53        67.26641
910.93        67.72768
911.33        68.18517
911.72        68.21952
912.12        67.76173
912.52        66.98246
912.91        66.15448
913.31        65.77433
913.70        65.92876
914.10        66.45051
914.49        67.12518
914.89        67.50849
915.29        67.48952
915.68         67.1873
916.08        66.75759
916.47        66.39662
916.87        66.21024
917.26        66.12839
917.66        66.12257
918.05        66.17319
918.45        66.24602
918.84        66.37626
919.24        66.55242
919.64        66.80013
920.03        67.11095
920.42          67.434
920.82        67.70023
921.21        67.83015
921.61        67.83125
922.00        67.78812
922.40          67.802
922.79        67.91253
923.19        67.80362
923.58        68.24032
923.98        69.55042
924.37        69.52007
924.77        66.88747
925.16         74.1242
925.55        68.58994
925.95        68.99323
926.34        68.90382
926.74        68.17981
927.13        66.85169
927.52        66.07722
927.92         66.3364
928.31        67.00876
928.70         67.8538
929.10        68.45403
929.49        68.73089
929.89        68.81735
930.28        68.76938
930.67        68.58241
931.07        68.31345
931.46        67.85044
931.85        67.38985
932.24        67.66638
932.64        68.74765
933.03        69.92217
933.42        70.48409
933.82        72.39471
934.21        70.80626
934.60        69.51901
934.99        68.27243
935.39        68.09431
935.78        69.00259
936.17        71.24616
936.56        77.20588
936.96        71.24928
937.35        74.36426
937.74        71.05621
938.13        68.37201
938.53        66.20004
938.92        65.36909
939.31        66.32168
939.70         67.8731
940.09        68.81648
940.49         68.8463
940.88        68.39304
941.27        67.76599
941.66        67.50454
942.05        67.80988
942.44        68.43325
942.84        69.05202
943.23        69.34114
943.62        69.20927
944.01        68.74911
944.40        68.31036
944.79        68.46195
945.18        69.29575
945.57        70.60867
945.97        71.80953
946.36        72.09229
946.75        71.25191
947.14        69.55768
947.53        67.62816
947.92        66.54563
948.31        66.62787
948.70        67.53655
949.09        68.76044
949.48        69.49993
949.87        69.53063
950.26        69.12157
950.65        68.50021
951.04        68.02443
951.43        67.82834
951.82         67.7565
952.21        67.78826
952.60        67.92633
952.99         68.1293
953.38        68.41667
953.77        68.68053
954.16        68.73298
954.55        68.55019
954.94        68.18171
955.33        67.73454
955.72        67.43366
956.11        67.35356
956.50        67.41098
956.89         67.5724
957.28        67.76741
957.66        67.99464
958.05        68.24643
958.44         68.4136
958.83        68.30605
959.22        67.89761
959.61        67.17984
960.00        66.45385
960.39        66.30148
960.78        66.84481
961.16        67.92961
961.55        68.95979
961.94        69.21156
962.33         68.5787
962.72        67.25658
963.11        65.76981
963.49         65.2125
963.88        65.90929
964.27        67.43594
964.66        69.15973
965.04        70.23672
965.43        70.41668
965.82        70.02377
966.21        69.25468
966.60        68.46244
966.98        67.83353
967.37         67.2319
967.76        66.79426
968.15        66.75319
968.53        67.14293
968.92        67.92896
969.31        68.78803
969.69        69.13794
970.08        68.80257
970.47        67.89701
970.86        66.83139
971.24        66.35094
971.63        66.62634
972.02         67.4408
972.40        68.33033
972.79        68.51844
973.17        67.91257
973.56        66.75734
973.95        65.54554
974.33        65.13626
974.72         65.7635
975.11        67.11694
975.49        68.80308
975.88        70.10568
976.26         70.8522
976.65        71.17502
977.04        71.20896
977.42        71.12092
977.81        70.95705
978.19        70.61127
978.58         70.3756
978.96        70.69514
979.35         71.5565
979.74        72.74073
980.12        73.85529
980.51        74.21661
980.89        73.84906
981.28        72.86269
981.66        71.45265
982.05        70.23364
982.43        69.52803
982.82        69.26897
983.20        69.42527
983.59        69.84231
983.97        70.47311
984.35        71.32883
984.74        72.22798
985.12        72.90766
985.51        73.21937
985.89        73.24482
986.28        73.05716
986.66        72.85609
987.04        72.73988
987.43        72.56291
987.81        72.14905
988.20        72.48266
988.58        73.76697
988.96        73.67224
989.35        71.47513
989.73        76.65392
990.12        73.15559
990.50        73.28218
990.88        72.85079
991.27        72.74236
991.65        72.95726
992.03         73.5629
992.42        74.32147
992.80        74.33055
993.18        73.41093
993.56        71.85999
993.95        70.14864
994.33        69.00847
994.71        68.69276
995.10        68.98341
995.48        69.69865
995.86        70.51064
996.24        71.23615
996.63        71.85491
997.01        72.39215
997.39        72.68552
997.77        72.69102
998.15        72.41294
998.54        71.92384
998.92        71.25422
999.30        70.51277
999.68        69.78911
1000.06        69.20956
1000.45        68.95497
1000.83        69.21437
1001.21        69.89136
1001.59        71.01408
1001.97        72.59646
1002.35        74.43163
1002.73        76.30276
1003.12        77.85342
1003.50        78.72014
1003.88        78.86063
1004.26        78.39313
1004.64        77.45964
1005.02        76.41822
1005.40        75.48321
1005.78         74.6163
1006.16        73.92084
1006.54        73.48074
1006.92        73.31796
1007.30         73.5315
1007.69         73.8721
1008.07        74.01858
1008.45        73.87995
1008.83        73.48225
1009.21         73.1953
1009.59        73.77762
1009.97        75.23505
1010.35        77.02929
1010.73         78.5863
1011.11        79.55391
1011.49        80.02971
1011.86        79.92587
1012.24        79.05165
1012.62        80.02335
1013.00        80.31878
1013.38        79.72478
1013.76        77.09418
1014.14        80.92123
1014.52        87.00085
1014.90        80.58939
1015.28        82.63937
1015.66        84.48134
1016.04        81.73434
1016.41        81.73144
1016.79        80.63139
1017.17        80.24195
1017.55        80.19434
1017.93        80.59892
1018.31        81.40745
1018.69        82.01972
1019.06         82.3269
1019.44        82.42894
1019.82        82.37014
1020.20        82.13018
1020.58        81.73128
1020.95        81.09235
1021.33        80.36087
1021.71        79.84212
1022.09        79.78767
1022.46        80.07832
1022.84        80.58569
1023.22        81.31217
1023.60        82.23172
1023.97        83.38229
1024.35        84.47198
1024.73        84.82581
