SpectraSmart Spectrum 2.9.0.0
--------- Device Information -----------
Spectrum Name :  反射率_0
Saving Time :  2024/04/21 00:35:26
Spectro-Module Model Name : SE2030-DUVN
Spectro-Module Serial Number : OS361AC55029948
Wavelength Start : 200
Wavelength End : 1025
Wavelength Unit : Wavelength(nm)
Spectrum Unit : Reflectance(%)
-----------Spectrum Setting ------------
Integration Time : 20ms
Average : 10
Boxcar : 0
Background removal :  enabled
linearity correction :  enabled
SC :  disabled
Intensity correction :  disabled
DWT denoise :  enabled
savitzky-golay :  disabled
FFT :  disabled
Running average :  disabled
Kalman :  disabled
High pass :  disabled
---------------BEGIN--------------------
Wavelength(nm)             Reflectance(%)
200.29               0
200.75       -48.29733
201.21       -3.048643
201.67        20.97636
202.13        30.20069
202.58         31.1424
203.04        27.02616
203.50        21.04148
203.96         20.5775
204.42        27.84919
204.88        39.18421
205.34        49.21652
205.80        50.71348
206.26        41.47421
206.72        22.95027
207.18       -3.239054
207.64       -29.64837
208.10       -47.11616
208.55       -56.02156
209.01       -44.40759
209.47       -8.465242
209.93        25.86792
210.39        50.19712
210.85        64.82289
211.31        71.51816
211.77        72.98326
212.23        69.58403
212.69        59.56308
213.14        42.54219
213.60        14.92381
214.06       -55.87334
214.52       -220.6104
214.98       -100.3099
215.44       -18.62648
215.90        12.07161
216.36        21.32637
216.81        17.06828
217.27       -3.717553
217.73       -99.23882
218.19        1030.364
218.65        421.7638
219.11       -916.1736
219.57       -39.94746
220.02        15.57694
220.48        25.53234
220.94        20.85686
221.40       0.6697446
221.86       -47.42521
222.32       -74.29279
222.77       -26.12968
223.23        13.21357
223.69        32.28075
224.15        38.02135
224.61        36.78824
225.06        32.21026
225.52        25.61417
225.98        18.74666
226.44        12.80582
226.90        6.248934
227.36        2.775319
227.81        8.452899
228.27        19.16988
228.73        29.98577
229.19        36.79315
229.65        37.42508
230.10        32.79949
230.56        24.31091
231.02        13.42353
231.48        6.333109
231.93        7.340932
232.39        13.92854
232.85        21.35232
233.31        25.65982
233.77        27.02196
234.22        27.20791
234.68        26.40371
235.14        24.83172
235.60        23.05752
236.05        20.13119
236.51        16.64473
236.97         20.2236
237.43        31.59408
237.88        39.65722
238.34        40.21682
238.80        62.74817
239.26        53.78366
239.71        52.20262
240.17        44.32468
240.63        36.20243
241.08        31.99463
241.54        34.19727
242.00        42.96837
242.46        48.87852
242.91        49.49334
243.37        46.08268
243.83        38.87064
244.28        30.80825
244.74        25.57394
245.20        21.71859
245.66        18.32444
246.11         14.5089
246.57        9.411306
247.03         3.82329
247.48       -3.413831
247.94       -14.84542
248.40       -35.89461
248.85       -89.35222
249.31       -256.5483
249.77       -399.7862
250.22       -145.6068
250.68       -37.94767
251.14       -1.159959
251.59        13.98493
252.05        22.78734
252.51        30.96027
252.96        38.12243
253.42        40.14759
253.88        34.89882
254.33        26.20251
254.79        22.09734
255.25        26.20571
255.70        34.23906
256.16         42.2183
256.62        48.34063
257.07        51.81418
257.53         53.6576
257.99         54.5137
258.44        54.61951
258.90        54.76754
259.35        54.55252
259.81        54.26684
260.27        53.63717
260.72        52.49371
261.18        51.30363
261.63        50.00621
262.09        48.89278
262.55        47.85096
263.00        46.78887
263.46        45.85416
263.91        44.96448
264.37        44.40281
264.83        44.07052
265.28        43.84497
265.74        43.64284
266.19        43.16728
266.65         42.4421
267.11        41.49575
267.56        40.43366
268.02        39.50918
268.47        38.73144
268.93        38.07326
269.38        37.38845
269.84        36.51344
270.30         35.4136
270.75        34.16092
271.21        32.94297
271.66        31.97561
272.12        31.32746
272.57        30.90102
273.03        30.55292
273.48        30.03309
273.94        29.31671
274.39        28.46338
274.85         27.6278
275.31         26.9739
275.76        26.52996
276.22        26.25511
276.67        26.05114
277.13        25.85297
277.58        25.59953
278.04        25.34325
278.49        25.06027
278.95        24.78803
279.40        24.49179
279.86         24.1833
280.31        23.83318
280.77        23.48516
281.22        23.11556
281.68        22.77777
282.13        22.42685
282.59        22.06388
283.04        21.67832
283.50        21.30757
283.95        21.01081
284.41        20.90005
284.86        20.97486
285.32        21.19883
285.77        21.46672
286.22        21.63942
286.68         21.7046
287.13        21.66875
287.59        21.63968
288.04        21.67633
288.50        21.77088
288.95        22.01824
289.41        22.40431
289.86        22.41628
290.32        21.97063
290.77        23.05027
291.22        22.37829
291.68        22.65676
292.13        22.93558
292.59        23.30297
293.04        23.78461
293.50        24.49389
293.95        25.45699
294.40         26.6125
294.86        27.87069
295.31        29.07703
295.77        30.18986
296.22        31.23797
296.68        32.29533
297.13        33.47258
297.58        34.81386
298.04        36.28507
298.49         37.8466
298.95        39.45613
299.40        41.07114
299.85        42.70803
300.31        44.34959
300.76        45.94634
301.21        47.49833
301.67        49.03146
302.12        50.56096
302.58        52.21431
303.03        53.98672
303.48        55.89887
303.94        57.89261
304.39        59.82424
304.84        61.66655
305.30        63.45633
305.75        65.23573
306.20        67.17432
306.66        69.28117
307.11        71.44247
307.57         73.5301
308.02        75.28652
308.47        76.69698
308.93         77.8847
309.38        78.96294
309.83        80.15733
310.29        81.59825
310.74        83.13176
311.19        84.67952
311.65        86.07157
312.10        87.24254
312.55        88.25373
313.00        89.16062
313.46        90.05173
313.91        90.93825
314.36        91.79512
314.82         92.6035
315.27        93.33392
315.72        93.99003
316.18        94.59232
316.63        95.15822
317.08        95.71352
317.53        96.25885
317.99        96.77573
318.44        97.25204
318.89        97.65382
319.35        97.97717
319.80        98.25468
320.25         98.4901
320.70        98.69431
321.16        98.87152
321.61        99.02972
322.06        99.21931
322.51        99.52865
322.97        99.95025
323.42        100.4923
323.87         101.023
324.32        101.3399
324.78        101.3794
325.23        101.2326
325.68        101.0322
326.13         101.031
326.59        101.2728
327.04        101.7405
327.49        102.2796
327.94        102.6588
328.39        102.8115
328.85        102.7809
329.30        102.7375
329.75        102.8375
330.20        103.1347
330.66        103.5306
331.11        104.0084
331.56        104.4116
332.01        104.6989
332.46          104.92
332.92        105.0676
333.37        105.2633
333.82        105.4975
334.27        105.7594
334.72        106.0789
335.17          106.51
335.63        107.0265
336.08        107.6668
336.53        108.3576
336.98        109.0191
337.43         109.615
337.88        110.1534
338.34        110.6037
338.79        110.9834
339.24        111.2824
339.69        111.5113
340.14        111.7237
340.59        112.0076
341.05        112.3932
341.50        112.8764
341.95        113.4251
342.40        113.9821
342.85        114.5175
343.30        115.0278
343.75        115.5104
344.20        115.9718
344.66        116.4099
345.11        116.7896
345.56        117.0812
346.01        117.2422
346.46        117.2871
346.91        117.2447
347.36        117.1575
347.81        117.1404
348.26          117.23
348.72        117.2029
349.17        117.4297
349.62        117.6665
350.07        118.0049
350.52        118.4065
350.97        118.7494
351.42         118.832
351.87        118.6066
352.32        118.1355
352.77        117.5516
353.22        117.0619
353.67        116.7292
354.13        116.5276
354.58        116.3544
355.03         116.094
355.48        115.7158
355.93        115.2553
356.38        114.8001
356.83        114.4769
357.28        114.2883
357.73        114.1704
358.18        113.9766
358.63        113.4853
359.08        112.6633
359.53        111.6049
359.98        110.4692
360.43        109.4939
360.88        108.7416
361.33        108.1409
361.78        107.6215
362.23        107.0665
362.68        106.4374
363.13        105.7837
363.58        105.0979
364.03        104.3617
364.48         103.579
364.93        102.7375
365.38        101.9015
365.83        101.1867
366.28        100.6107
366.73        100.1409
367.18        99.67621
367.63        99.05331
368.08        98.24082
368.53         97.2963
368.98        96.31541
369.43        95.43671
369.88        94.69252
370.33        94.03866
370.78        93.41856
371.23        92.75101
371.68        92.02117
372.13        91.26588
372.58         90.5379
373.03        89.89997
373.48        89.35784
373.93        88.88487
374.38        88.42275
374.83        87.89026
375.28        87.27695
375.72         86.5967
376.17        85.94128
376.62        85.37066
377.07        84.88425
377.52        84.44173
377.97        83.99414
378.42         83.4782
378.87        82.89305
379.32        82.28256
379.77        81.67146
380.22        81.07535
380.67        80.49261
381.11        79.91344
381.56        79.35496
382.01        78.87267
382.46        78.48558
382.91        78.18905
383.36        77.92081
383.81        77.57904
384.26        77.14162
384.71        76.63277
385.15        76.11473
385.60        75.75157
386.05         75.5426
386.50         75.4374
386.95        75.33765
387.40        75.09694
387.85        74.69456
388.29        74.14883
388.74        73.63834
389.19        73.21293
389.64        72.88543
390.09        72.61545
390.54        72.37092
390.98        72.09142
391.43        71.79977
391.88        71.50634
392.33        71.22032
392.78        70.92603
393.23         70.6211
393.67        70.33664
394.12        70.13634
394.57        69.79314
395.02        69.37022
395.47        69.22562
395.91        69.30347
396.36        69.15829
396.81        68.78596
397.26        68.45827
397.71        68.20787
398.15        67.96443
398.60        67.80682
399.05        67.60979
399.50        67.43873
399.95        67.49987
400.39        67.71087
400.84         67.7974
401.29        67.66397
401.74        67.09879
402.18        66.29559
402.63        65.98035
403.08        66.12963
403.53        65.98063
403.97        65.51369
404.42        65.24197
404.87        65.17683
405.32        65.11794
405.76         65.0478
406.21        65.00508
406.66        64.95846
407.11        64.92068
407.55        64.86953
408.00        64.65221
408.45        64.32979
408.90        64.06332
409.34        63.90424
409.79        63.89348
410.24        63.94904
410.68        63.88295
411.13        63.67414
411.58        63.41678
412.03        63.17732
412.47        63.05835
412.92        63.06828
413.37        63.17841
413.81        63.32171
414.26        63.45184
414.71        63.52692
415.15        63.57756
415.60        63.56576
416.05         63.4842
416.49        63.34356
416.94        63.14259
417.39        62.93031
417.83        62.77419
418.28         62.6926
418.73        62.66787
419.17        62.66793
419.62         62.6442
420.07        62.57952
420.51        62.48751
420.96        62.40311
421.41        62.32038
421.85        62.22211
422.30        62.17838
422.74        62.16602
423.19        62.17969
423.64        62.23215
424.08        62.49613
424.53        62.83988
424.98        63.00083
425.42        62.94581
425.87        62.76289
426.31        62.55603
426.76        62.45478
427.21        62.47991
427.65        62.58912
428.10        62.68262
428.54        62.67551
428.99        62.58347
429.44        62.43169
429.88        62.25431
430.33         62.1688
430.77        62.13816
431.22        62.23279
431.66        62.38576
432.11        62.47463
432.56         62.5218
433.00        62.47252
433.45        62.16913
433.89        62.11848
434.34        62.50193
434.78        61.46843
435.23         61.6362
435.67        62.57816
436.12        62.93232
436.57        62.95871
437.01        62.22017
437.46         62.1041
437.90        62.38115
438.35        62.58889
438.79        62.58637
439.24        62.63041
439.68        62.70817
440.13        62.78871
440.57        62.84939
441.02        62.89624
441.46        62.91755
441.91        62.85317
442.35        62.73062
442.80        63.00975
443.24         63.5351
443.69        63.68358
444.13        63.42736
444.58          63.212
445.02        63.10641
445.47        63.17775
445.91        63.34467
446.36        63.35463
446.80        63.18471
447.24        62.96141
447.69        62.77486
448.13        62.86317
448.58        63.01226
449.02        63.04364
449.47        62.90577
449.91        62.85924
450.36        62.91991
450.80        62.84426
451.25        62.68238
451.69         62.6728
452.13        62.77281
452.58        62.65208
453.02        62.32963
453.47        62.11536
453.91        62.02242
454.36        61.90752
454.80        61.74532
455.24        61.61438
455.69        61.53286
456.13        61.35015
456.58        61.16533
457.02        61.31939
457.46        61.52477
457.91         61.6295
458.35        61.09718
458.79        60.92495
459.24        60.99659
459.68        60.95737
460.13        60.83449
460.57        60.75453
461.01        60.74411
461.46        60.51602
461.90        60.77161
462.34        60.27773
462.79        60.27203
463.23        60.11061
463.68        60.17954
464.12        59.88328
464.56        59.41999
465.01        59.74954
465.45        60.53416
465.89        60.69357
466.34        60.30505
466.78        59.98685
467.22         59.7404
467.67        60.28067
468.11        59.47821
468.55        59.39871
468.99        59.39444
469.44        59.33027
469.88        59.18492
470.32        59.05736
470.77        58.96386
471.21        58.83949
471.65         58.6861
472.10        58.52121
472.54        58.36196
472.98        58.24751
473.42        58.19229
473.87        58.21175
474.31        58.24212
474.75        58.25399
475.20        58.28238
475.64        58.20172
476.08        58.50887
476.52        58.52045
476.97        58.33814
477.41        58.26569
477.85        58.36293
478.29        57.92271
478.74        57.63341
479.18        58.12245
479.62        57.80913
480.06        57.95869
480.50        58.05918
480.95        58.10154
481.39        57.97972
481.83        58.40047
482.27        58.30479
482.72        58.16926
483.16        58.11725
483.60        58.35268
484.04        58.26828
484.48        58.00971
484.93        57.99775
485.37        57.86124
485.81        58.25109
486.25        57.70055
486.69        60.09332
487.14        60.19636
487.58        59.07977
488.02        58.22047
488.46        57.73967
488.90        57.95139
489.34        57.64086
489.79        57.51055
490.23        57.57492
490.67        57.61066
491.11        57.68909
491.55         57.5509
491.99        57.27321
492.43         57.1285
492.88        57.15163
493.32        57.24066
493.76        57.29387
494.20        57.32626
494.64        57.34737
495.08        56.90002
495.52        56.78053
495.96         56.8479
496.41        57.20586
496.85        57.26213
497.29         56.9782
497.73        56.95456
498.17        56.89883
498.61        56.91208
499.05        56.87499
499.49        56.73221
499.93        56.56403
500.37        56.59251
500.82        56.77052
501.26         56.9655
501.70        57.09138
502.14        56.72845
502.58         56.4332
503.02        56.22695
503.46        56.23719
503.90        56.29036
504.34        56.33108
504.78        56.37853
505.22        56.40409
505.66        56.41068
506.10        56.41614
506.54        56.40502
506.98        56.36412
507.42        56.43143
507.86        56.43139
508.30        56.28552
508.74        56.27244
509.18        56.13035
509.62        55.98672
510.06        55.91606
510.50        55.91902
510.94        55.90682
511.38        55.86138
511.82        55.82297
512.26         55.7841
512.70        55.71096
513.14        55.61676
513.58        55.55951
514.02        55.55024
514.46        55.54055
514.90        55.48969
515.34        55.55296
515.78        55.45688
516.22        55.37899
516.66        55.12001
517.10        55.38234
517.54        55.16871
517.98         55.2563
518.42        55.32777
518.86        55.36982
519.30        55.36939
519.74        55.30767
520.18        55.23384
520.62        55.28611
521.06         55.4338
521.50        55.45975
521.93        55.36202
522.37        55.31511
522.81        55.32626
523.25        55.29291
523.69        55.22084
524.13        55.17015
524.57        55.14601
525.01        55.13004
525.45        55.12717
525.89        55.14392
526.32         55.1766
526.76        55.23207
527.20        55.28543
527.64        55.29898
528.08        55.26653
528.52        55.19706
528.96        55.12864
529.40        55.11777
529.83         55.1689
530.27        55.28288
530.71        55.39788
531.15        55.41806
531.59        55.32596
532.03        55.15878
532.46         54.9732
532.90        54.85773
533.34        54.83067
533.78        54.89145
534.22        55.00499
534.66        54.97752
535.09        55.00721
535.53        54.95519
535.97        54.89917
536.41        54.86562
536.85         54.8649
537.28        54.88046
537.72        54.90077
538.16        54.91753
538.60        54.92432
539.04        54.92701
539.47        54.91331
539.91         54.9082
540.35        54.90073
540.79        54.89228
541.22        54.88112
541.66        54.87909
542.10        54.88179
542.54         54.8808
542.97         54.8756
543.41        54.89423
543.85        54.93438
544.29        55.00256
544.72         55.0534
545.16        55.07137
545.60        55.03492
546.04        54.89416
546.47          54.736
546.91        54.83981
547.35        55.14365
547.79        55.31909
548.22        55.29617
548.66        55.18171
549.10         55.0318
549.53        54.95329
549.97        54.95909
550.41        54.90519
550.84        54.79957
551.28        54.75425
551.72        54.76366
552.15        54.78068
552.59        54.81303
553.03        54.73914
553.46        54.83489
553.90        54.79713
554.34        54.68292
554.77        54.76982
555.21        54.65913
555.65        54.64439
556.08        54.79865
556.52        54.96709
556.96        55.13118
557.39         55.1637
557.83        55.07065
558.27        54.89842
558.70        54.71261
559.14        54.59747
559.57         54.5669
560.01        54.66908
560.45        54.81437
560.88        54.78964
561.32        54.66047
561.75        54.55573
562.19        54.54559
562.63        54.69743
563.06        54.93496
563.50        54.89728
563.93        54.62893
564.37        54.64468
564.80        54.88617
565.24        54.93812
565.68        54.81469
566.11        54.78889
566.55         54.8786
566.98         55.0074
567.42        55.15501
567.85        55.03082
568.29           54.93
568.72        54.95268
569.16        55.20706
569.60        55.29035
570.03        55.45567
570.47        55.62797
570.90        55.83266
571.34        55.91006
571.77        56.30085
572.21        56.06245
572.64        56.14859
573.08        55.93113
573.51        55.83602
573.95        56.25268
574.38        56.19224
574.82        57.02256
575.25        56.73674
575.69        56.52805
576.12        56.03498
576.56        56.31974
576.99        56.52315
577.42        56.67138
577.86        56.87289
578.29        57.24418
578.73        57.68858
579.16        57.05628
579.60        56.37535
580.03        56.20943
580.47        56.46726
580.90        56.36256
581.33        56.62828
581.77        56.86393
582.20         57.6268
582.64        57.98001
583.07        57.41253
583.51        56.83812
583.94        56.26537
584.37        55.82877
584.81        55.86021
585.24        56.09941
585.68        56.74109
586.11        56.67665
586.54         56.7768
586.98        56.19604
587.41        56.15744
587.85        56.64623
588.28        56.51455
588.71        56.67895
589.15        56.29059
589.58        56.10991
590.01        55.78832
590.45        55.61156
590.88        55.96784
591.31        55.63654
591.75        55.41457
592.18        55.21221
592.61        55.35069
593.05        55.61049
593.48        56.22191
593.91        56.61599
594.35        56.27428
594.78        56.23656
595.21        55.72181
595.65        55.75114
596.08        56.02548
596.51        55.99608
596.94        55.63342
597.38        55.46478
597.81        55.52433
598.24         55.8876
598.68        55.78102
599.11        55.77963
599.54        55.97012
599.97        55.85362
600.41        56.12524
600.84        56.41942
601.27        56.09387
601.70        56.04078
602.14         55.5176
602.57        55.44746
603.00        55.63612
603.43          55.918
603.87        56.06308
604.30         55.9839
604.73        56.09166
605.16        55.67392
605.60         55.5817
606.03        55.65689
606.46        56.08415
606.89        55.54938
607.32        55.59809
607.76        55.74236
608.19        55.65544
608.62         55.7847
609.05        56.30419
609.48        55.63131
609.92        55.40332
610.35        55.30495
610.78        55.78399
611.21        55.53724
611.64        55.55261
612.07        55.42921
612.50        55.49852
612.94        55.45445
613.37        55.28458
613.80        55.54329
614.23        55.62202
614.66        55.20575
615.09        55.36848
615.52        55.28576
615.96        55.31694
616.39        55.28614
616.82        55.19397
617.25        55.18559
617.68        55.12907
618.11        55.00596
618.54        54.95231
618.97        54.87136
619.40        54.77059
619.84        54.76017
620.27        54.45346
620.70        54.46189
621.13        54.63947
621.56        54.79803
621.99        54.88823
622.42        55.00667
622.85        55.12772
623.28        55.11211
623.71        54.82333
624.14        55.25182
624.57        54.95051
625.00        55.16884
625.43         54.8542
625.86        54.81919
626.29        54.85175
626.72        54.81569
627.15         54.6117
627.58        54.53618
628.01        54.64771
628.44        54.34527
628.87        54.25634
629.30        54.79456
629.73        54.65083
630.16        54.54797
630.59        54.51873
631.02        54.71069
631.45        54.47422
631.88        54.46306
632.31        54.48133
632.74        54.24734
633.17        54.31665
633.60        54.23571
634.03        54.18177
634.46        54.18497
634.89        54.15398
635.32        54.17299
635.75        54.21264
636.18        54.16018
636.61        54.22703
637.04        54.26252
637.47        54.32678
637.89        54.41309
638.32        54.49289
638.75        54.51805
639.18        54.47477
639.61        54.42093
640.04        54.39497
640.47        54.22928
640.90        54.30234
641.33        54.30757
641.76         54.3326
642.18        54.33775
642.61        54.30417
643.04        54.24766
643.47        54.18065
643.90         54.1368
644.33        54.12524
644.76        54.12245
645.18        54.12269
645.61        54.14674
646.04        54.17257
646.47          54.126
646.90         54.0342
647.33        54.00248
647.75        54.04137
648.18        54.13438
648.61        54.24312
649.04          54.278
649.47        54.21749
649.89        54.29325
650.32        54.00184
650.75        54.20924
651.18        54.61135
651.61        54.61089
652.03        54.25632
652.46        53.95743
652.89        53.85489
653.32        54.15743
653.74        54.76917
654.17        54.68822
654.60        54.07776
655.03        54.11023
655.46        54.18777
655.88        54.64202
656.31        56.38536
656.74        62.17163
657.16        61.17586
657.59        59.52065
658.02        56.36695
658.45        54.85589
658.87         54.5668
659.30        54.71067
659.73        54.49739
660.15          54.056
660.58        54.53679
661.01         54.7695
661.44        54.97715
661.86        54.81132
662.29        54.35083
662.72        54.00627
663.14        53.89988
663.57        54.04865
664.00        54.35637
664.42        54.52963
664.85        54.52968
665.27        54.41893
665.70        54.41786
666.13        54.39967
666.55        54.43608
666.98        54.48909
667.41        54.52393
667.83        54.55048
668.26        54.48883
668.69        54.37502
669.11        54.20747
669.54        54.21411
669.96        54.45294
670.39        54.13846
670.82        54.55319
671.24        54.60361
671.67        54.65124
672.09        54.68502
672.52         54.7299
672.94        54.73083
673.37         54.6937
673.80         54.6647
674.22         54.6527
674.65        54.60927
675.07        54.55608
675.50        54.50779
675.92        54.48547
676.35        54.49649
676.77        54.53783
677.20        54.62206
677.62        54.74619
678.05        54.80938
678.47        54.78728
678.90        55.02098
679.32         54.9296
679.75        54.96858
680.17        54.96514
680.60        54.93118
681.02        54.89719
681.45        54.89752
681.87         54.9422
682.30        55.07362
682.72        55.24772
683.15        55.19742
683.57        54.95486
684.00        55.04133
684.42        55.04667
684.85         55.0913
685.27        55.04336
685.70        55.05739
686.12        55.11428
686.54        55.14882
686.97        55.15118
687.39        55.16608
687.82        55.18879
688.24        55.18399
688.66        55.13297
689.09        55.25545
689.51        55.15165
689.94        55.21876
690.36        55.32047
690.78        55.39681
691.21        55.43047
691.63        55.39651
692.06        55.33357
692.48        55.34029
692.90        55.41256
693.33        55.44165
693.75        55.43549
694.17        55.42796
694.60        55.40038
695.02        55.49419
695.44        55.45844
695.87        55.33607
696.29        55.15305
696.71        55.16899
697.14        55.36901
697.56        55.63277
697.98        55.88497
698.41        55.79237
698.83         55.8914
699.25        55.71419
699.68        55.47982
700.10        55.29965
700.52        55.21162
700.94        55.17813
701.37        55.17132
701.79        55.19862
702.21        55.23067
702.64        55.28107
703.06        55.33325
703.48         55.3616
703.90        55.36498
704.33        55.34512
704.75        55.31815
705.17        55.29557
705.59        55.28713
706.01        55.28911
706.44        55.31923
706.86        55.42056
707.28        55.57945
707.70        55.77545
708.12        55.97127
708.55          56.103
708.97        56.14932
709.39        56.13755
709.81        56.07884
710.23        56.00074
710.66        55.92398
711.08        55.85432
711.50        55.80186
711.92        55.79522
712.34        55.83748
712.76        55.92132
713.19         56.0139
713.61         56.0977
714.03        56.13779
714.45        56.15289
714.87        56.15475
715.29        56.12528
715.71        56.06451
716.13        56.12209
716.56        56.02575
716.98        56.03069
717.40        56.04925
717.82        56.08628
718.24         56.1391
718.66        56.20491
719.08        56.28116
719.50        56.36178
719.92        56.43775
720.34        56.49545
720.76        56.53056
721.19        56.53738
721.61        56.53656
722.03         56.5363
722.45        56.54322
722.87        56.55923
723.29        56.58204
723.71        56.60638
724.13        56.63188
724.55        56.65766
724.97        56.69669
725.39        56.76999
725.81        56.87543
726.23        57.00019
726.65        57.11034
727.07         57.1597
727.49        57.14188
727.91        57.06023
728.33        56.94987
728.75        56.91055
729.17        56.94465
729.59        56.94509
730.01        56.92719
730.43        56.99432
730.85        57.14365
731.27        57.30161
731.69        57.43417
732.10        57.48164
732.52        57.59591
732.94        57.39083
733.36        57.02813
733.78        56.88414
734.20        57.01059
734.62        57.21534
735.04        57.41465
735.46        57.54475
735.88        57.57112
736.30        57.52452
736.72        57.42252
737.13        57.31517
737.55        57.19262
737.97        57.04074
738.39        56.91163
738.81        56.92452
739.23        57.07302
739.65        57.25924
740.06        57.37142
740.48        57.41967
740.90        57.35858
741.32        57.16331
741.74        56.92638
742.16        56.84275
742.57        56.96702
742.99        57.22202
743.41        57.50893
743.83         57.6554
744.25        57.61808
744.67        57.44654
745.08        57.24743
745.50        57.15828
745.92        57.23524
746.34        57.43565
746.75        57.66492
747.17        57.76939
747.59        57.71456
748.01        57.51997
748.42        57.30483
748.84         57.2794
749.26        57.44925
749.68        57.71076
750.09        57.94907
750.51         57.9009
750.93        57.63691
751.35        57.61507
751.76        57.82698
752.18        57.86445
752.60        57.72188
753.01        57.67297
753.43        57.68331
753.85         57.6146
754.27        57.46747
754.68        57.28919
755.10         57.1497
755.52        57.13373
755.93        57.25531
756.35         57.4817
756.77        57.75896
757.18        57.96136
757.60         58.0428
758.02        58.09641
758.43        58.19012
758.85        57.93129
759.26        58.24427
759.68        58.22587
760.10        57.53702
760.51        57.26746
760.93        57.88813
761.34        57.85449
761.76        57.75746
762.18        57.78706
762.59        57.98367
763.01        58.03743
763.42        57.26048
763.84        57.30904
764.26        57.54949
764.67        58.05419
765.09        58.50214
765.50        58.57621
765.92        58.32257
766.33        58.09166
766.75        57.95293
767.16        57.83327
767.58        57.70782
768.00        57.79349
768.41         58.0676
768.83        58.02016
769.24        57.65744
769.66        58.08722
770.07        58.15428
770.49         58.0706
770.90        57.60488
771.32        57.44616
771.73         57.6333
772.15        57.72773
772.56        57.74282
772.97        57.93343
773.39        58.20281
773.80        58.31513
774.22        58.20657
774.63        57.97275
775.05        57.69754
775.46        57.56255
775.88        57.59684
776.29        57.76324
776.70        57.97616
777.12        58.10955
777.53        58.13836
777.95        58.09595
778.36        58.02281
778.77        57.97838
779.19        57.98706
779.60        58.03193
780.02        58.10198
780.43        58.22688
780.84        58.40628
781.26        58.54209
781.67        58.65187
782.09        58.89574
782.50        59.17347
782.91        59.05548
783.33        58.73098
783.74         58.5998
784.15        58.72355
784.57        58.85126
784.98         58.9441
785.39        59.01225
785.81        59.03452
786.22        59.01763
786.63        58.97966
787.04        58.97538
787.46         59.0245
787.87        59.09414
788.28        59.16701
788.70        59.20761
789.11        59.18983
789.52        59.13393
789.93         59.0775
790.35        59.06917
790.76        59.13181
791.17        59.25605
791.58        59.38583
792.00        59.41178
792.41        59.34195
792.82        59.20513
793.23        59.10032
793.65        59.13481
794.06         59.3575
794.47        59.80015
794.88        60.31443
795.29        60.49177
795.71        60.58873
796.12        60.42105
796.53        60.15806
796.94        60.06253
797.35        60.13695
797.76        60.06701
798.18        59.84558
798.59        59.71387
799.00         59.6745
799.41        59.59291
799.82        59.47298
800.23        59.38979
800.64        59.34956
801.06         59.3149
801.47        59.30802
801.88        59.29784
802.29         59.2808
802.70        59.26183
803.11        59.26791
803.52        59.34105
803.93        59.48768
804.34        59.69215
804.75        59.90707
805.17        60.05191
805.58        60.12985
805.99        60.13122
806.40        60.10029
806.81          60.144
807.22        60.25958
807.63        60.35036
808.04        60.40101
808.45        60.44093
808.86        60.45751
809.27        60.42508
809.68        60.35132
810.09        60.26548
810.50        60.18217
810.91        60.10527
811.32        60.03724
811.73        59.98252
812.14        59.94084
812.55        59.90069
812.96        59.89341
813.37        59.96701
813.78        60.11897
814.19        60.33678
814.60         60.5178
815.01        60.50395
815.42        60.27441
815.83        59.87189
816.24        59.45519
816.65        59.32304
817.05        59.56442
817.46        60.05974
817.87        60.64772
818.28        61.04628
818.69        61.18132
819.10         61.1299
819.51        60.98499
819.92        60.91626
820.33        60.97947
820.74        61.10354
821.14        61.23822
821.55        61.33585
821.96        61.36491
822.37        61.35913
822.78        61.30912
823.19        61.18977
823.60        61.00551
824.00        60.77108
824.41        60.51755
824.82         60.3574
825.23        60.32114
825.64        60.40226
826.04        60.54471
826.45        60.61417
826.86        60.59441
827.27        60.51373
827.68        60.46049
828.08        60.60965
828.49         60.9203
828.90        61.37131
829.31        61.84755
829.72        62.06313
830.12        61.96232
830.53        62.04131
830.94        61.56044
831.35        61.26556
831.75        60.98791
832.16        60.70184
832.57        60.50235
832.97        60.53911
833.38        60.82036
833.79        61.29624
834.20        61.80424
834.60        62.09517
835.01        62.10805
835.42         61.8986
835.82        61.60243
836.23        61.42198
836.64        61.44245
837.04        61.62418
837.45         61.8374
837.86        61.92749
838.26         61.8625
838.67        61.67639
839.08        61.50034
839.48        61.52421
839.89         61.7766
840.29        62.19467
840.70        62.61773
841.11        62.77873
841.51        62.63171
841.92        62.23174
842.33        61.77161
842.73        61.56914
843.14        61.67047
843.54        62.00881
843.95        62.43393
844.35        62.72189
844.76        62.79428
845.17        62.72493
845.57        62.60325
845.98        62.53925
846.38        62.59772
846.79         62.7106
847.19        62.85642
847.60        62.93576
848.00        62.95453
848.41        62.91144
848.81        62.88529
849.22        62.93742
849.62        63.11313
850.03        63.34632
850.43        63.58279
850.84        63.64057
851.24          63.532
851.65        63.24252
852.05        62.92527
852.46        62.76734
852.86        62.82583
853.27        63.08063
853.67        63.32854
854.07        63.41411
854.48        63.27885
854.88        62.99482
855.29        62.66625
855.69        62.63546
856.10        62.89574
856.50        63.42385
856.90        63.96263
857.31        64.13085
857.71        63.88221
858.12         63.2854
858.52        62.55416
858.92        61.99557
859.33        61.71635
859.73        61.68695
860.13        61.82024
860.54        61.96207
860.94        62.11101
861.34        62.27077
861.75        62.43885
862.15        62.67669
862.55        62.93779
862.96        63.15594
863.36         63.2835
863.76        63.21321
864.17        62.93359
864.57        62.52991
864.97        62.05148
865.38         61.5641
865.78        61.15522
866.18        60.80902
866.58        60.66008
866.99        60.89429
867.39        61.53262
867.79        62.46035
868.19        63.37711
868.60        63.78304
869.00        63.67027
869.40         63.3385
869.80        62.88876
870.21        62.33139
870.61        61.83426
871.01        61.49659
871.41        61.27894
871.81        61.00813
872.22        60.68135
872.62        60.36206
873.02        60.15739
873.42        60.42746
873.82        60.98366
874.22        61.17844
874.63        61.14151
875.03        61.19917
875.43        61.35518
875.83        62.44446
876.23        61.64771
876.63        60.80276
877.03        59.67785
877.44        57.60691
877.84        175.1136
878.24        59.01792
878.64        59.71606
879.04        61.07882
879.44        61.34105
879.84        57.54243
880.24        63.12453
880.64         63.5187
881.04        61.11956
881.44        59.22018
881.84        58.37369
882.24        58.74973
882.65        59.78126
883.05        60.06062
883.45         59.3127
883.85        58.45173
884.25        57.85282
884.65        57.65571
885.05        57.94731
885.45        58.59036
885.85        59.30374
886.25        59.71607
886.65        59.74055
887.05        59.50175
887.45        59.13459
887.85        58.86836
888.25        58.79269
888.65         58.8253
889.04        58.97482
889.44        59.26439
889.84        59.65253
890.24        60.12506
890.64         60.5536
891.04        60.74665
891.44        60.67846
891.84        60.40345
892.24        60.04534
892.64        59.82833
893.04        59.82772
893.44        59.98908
893.83        60.25011
894.23        60.47861
894.63          60.645
895.03        60.78538
895.43        60.92339
895.83        61.08553
896.23        61.27575
896.63        61.46994
897.02         61.6202
897.42        61.72592
897.82        61.75784
898.22        61.70829
898.62        61.62115
899.01        61.57621
899.41        61.56601
899.81        61.59527
900.21        61.55623
900.61        61.26828
901.00        60.70425
901.40          60.006
901.80        59.39438
902.20        59.04503
902.59        58.99496
902.99        59.49685
903.39        60.48243
903.79        59.98978
904.18        60.85207
904.58        60.78875
904.98        60.69868
905.38        60.56197
905.77        60.40821
906.17        60.23236
906.57        60.04521
906.96        59.98961
907.36        60.08457
907.76        60.31274
908.15        60.63747
908.55        60.84371
908.95        60.92294
909.34        60.87802
909.74        60.79769
910.14        60.78558
910.53        60.86814
910.93        61.00262
911.33        61.09199
911.72        60.98145
912.12        60.65908
912.52        60.19379
912.91        59.70918
913.31          59.477
913.70        59.53047
914.10        59.78855
914.49        60.14688
914.89        60.34872
915.29        60.34192
915.68        60.17999
916.08        59.96243
916.47        59.79956
916.87        59.75845
917.26        59.79412
917.66        59.86592
918.05         59.9292
918.45          59.953
918.84        59.97392
919.24        60.01236
919.64        60.15608
920.03        60.41059
920.42        60.70542
920.82         60.9687
921.21        61.10401
921.61        61.12369
922.00        61.15252
922.40        61.25446
922.79        61.38084
923.19        61.14052
923.58        61.46378
923.98        62.89939
924.37        62.96458
924.77        60.18672
925.16        69.39041
925.55         63.4321
925.95        64.08671
926.34        63.69862
926.74        62.22372
927.13        59.89324
927.52        58.49266
927.92        58.75448
928.31        59.79437
928.70           61.16
929.10        62.12241
929.49        62.51609
929.89        62.58775
930.28        62.40671
930.67        61.99059
931.07        61.43475
931.46        60.58228
931.85        59.73007
932.24        59.89004
932.64        61.17616
933.03        62.66796
933.42        63.44048
933.82        65.83197
934.21        63.81199
934.60        62.13041
934.99        60.47073
935.39         60.1286
935.78        61.15952
936.17        63.87985
936.56        71.35471
936.96        64.05708
937.35        68.28819
937.74        64.69346
938.13        61.95832
938.53        59.72541
938.92        58.87307
939.31        59.95798
939.70        61.60428
940.09        62.42452
940.49        62.09617
940.88        61.12498
941.27        59.99421
941.66        59.57407
942.05        60.14972
942.44        61.31641
942.84        62.54741
943.23        63.24983
943.62        63.25091
944.01        62.72999
944.40        62.05315
944.79        61.82542
945.18        62.20284
945.57        62.99337
945.97        63.73866
946.36        63.84296
946.75        63.13473
947.14        61.82386
947.53         60.4057
947.92        59.72293
948.31        59.99873
948.70         60.9557
949.09        62.08839
949.48        62.61803
949.87        62.36052
950.26        61.58308
950.65        60.63133
951.04        60.06423
951.43        60.06199
951.82        60.42607
952.21        61.00241
952.60        61.54042
952.99        61.90373
953.38        62.15882
953.77        62.28616
954.16        62.23966
954.55        62.03649
954.94        61.69308
955.33        61.25168
955.72        60.82863
956.11        60.49116
956.50        60.21893
956.89        60.10958
957.28        60.28826
957.66        60.77605
958.05        61.46265
958.44        62.10323
958.83        62.31303
959.22        62.01307
959.61        61.26731
960.00        60.37756
960.39        59.94146
960.78        60.14949
961.16        60.87489
961.55        61.65375
961.94        61.96269
962.33        61.69888
962.72        60.98385
963.11        60.19168
963.49        60.06609
963.88        60.79827
964.27        62.09777
964.66         63.3693
965.04        63.81841
965.43        63.26268
965.82        62.00768
966.21        60.54481
966.60        59.74639
966.98        59.88733
967.37        60.68549
967.76          61.784
968.15        62.59072
968.53        62.92121
968.92        62.95412
969.31        62.78173
969.69        62.53795
970.08        62.27163
970.47        61.88619
970.86        61.54069
971.24        61.54688
971.63        61.92397
972.02        62.60786
972.40        63.27273
972.79        63.31476
973.17        62.69403
973.56        61.58681
973.95        60.39909
974.33        59.87119
974.72        60.20754
975.11         61.1324
975.49        62.38034
975.88        63.43065
976.26        64.15576
976.65        64.65184
977.04        64.86317
977.42        64.65596
977.81        64.02687
978.19         62.9379
978.58        61.98281
978.96        62.17927
979.35        63.64293
979.74        65.88746
980.12        68.12453
980.51        69.22427
980.89        69.15768
981.28        68.15045
981.66        66.52322
982.05        65.19212
982.43        64.58364
982.82        64.53459
983.20        64.85306
983.59        65.16965
983.97        65.38102
984.35        65.56411
984.74        65.71817
985.12        65.86859
985.51        65.97765
985.89        66.10632
986.28        66.08398
986.66        65.75184
987.04        65.17455
987.43         64.2962
987.81        63.24595
988.20        64.00125
988.58        66.80541
988.96         68.2709
989.35         67.3348
989.73        74.11812
990.12        70.46552
990.50         70.2961
990.88        69.07754
991.27        67.97749
991.65        67.14944
992.03        66.65148
992.42        66.57127
992.80        66.36278
993.18        65.95153
993.56        65.59904
993.95        65.37458
994.33        65.29696
994.71        65.39513
995.10        65.56037
995.48        65.88747
995.86        66.55979
996.24        67.53304
996.63        68.63467
997.01        69.63154
997.39        69.95962
997.77        69.52509
998.15        68.52399
998.54        67.34879
998.92        66.51363
999.30         66.2468
999.68         66.4724
1000.06        67.06284
1000.45        67.65978
1000.83        68.17581
1001.21         68.6633
1001.59        69.19319
1001.97        69.86862
1002.35        70.66403
1002.73        71.45258
1003.12        72.12253
1003.50        72.63969
1003.88        72.99406
1004.26        73.22665
1004.64        73.37846
1005.02        73.50724
1005.40         73.6119
1005.78         73.6505
1006.16        73.58725
1006.54          73.358
1006.92        72.98081
1007.30        72.56741
1007.69        72.11299
1008.07        71.67008
1008.45        71.25113
1008.83        70.85712
1009.21        70.75025
1009.59         71.4243
1009.97        72.81821
1010.35        74.49308
1010.73        76.01543
1011.11         77.2389
1011.49        78.29269
1011.86        78.99247
1012.24        79.02499
1012.62        80.56098
1013.00        80.90437
1013.38        80.04644
1013.76        76.94269
1014.14        80.36882
1014.52        86.34991
1014.90        79.09541
1015.28        80.84391
1015.66        82.78822
1016.04         80.1451
1016.41        80.94675
1016.79        80.51649
1017.17        80.01574
1017.55        78.93211
1017.93        77.53996
1018.31        76.43922
1018.69        76.13445
1019.06        76.83294
1019.44        78.28066
1019.82        79.79801
1020.20        80.46531
1020.58        80.11214
1020.95        78.75628
1021.33        76.98235
1021.71        76.40477
1022.09        77.67876
1022.46        79.89533
1022.84        81.88496
1023.22        82.85717
1023.60        82.88764
1023.97        82.34454
1024.35        81.47041
1024.73        80.75085
