SpectraSmart Spectrum 2.9.0.0
--------- Device Information -----------
Spectrum Name :  反射率_0
Saving Time :  2024/04/20 23:58:46
Spectro-Module Model Name : SE2030-DUVN
Spectro-Module Serial Number : OS361AC55029948
Wavelength Start : 200
Wavelength End : 1025
Wavelength Unit : Wavelength(nm)
Spectrum Unit : Reflectance(%)
-----------Spectrum Setting ------------
Integration Time : 20ms
Average : 10
Boxcar : 0
Background removal :  enabled
linearity correction :  enabled
SC :  disabled
Intensity correction :  disabled
DWT denoise :  enabled
savitzky-golay :  disabled
FFT :  disabled
Running average :  disabled
Kalman :  disabled
High pass :  disabled
---------------BEGIN--------------------
Wavelength(nm)             Reflectance(%)
200.29               0
200.75       -55.29543
201.21       -11.55993
201.67         12.2373
202.13         21.8403
202.58        23.48467
203.04        21.21609
203.50        15.29435
203.96        6.982193
204.42       -1.818698
204.88       -12.08873
205.34       -20.67899
205.80       -24.07913
206.26       -21.27409
206.72       -8.096909
207.18         8.37286
207.64        7.836801
208.10       -16.46441
208.55       -58.40965
209.01       -85.98901
209.47       -61.01111
209.93       -16.89324
210.39        19.57299
210.85        42.86847
211.31        52.54481
211.77        52.15547
212.23        43.36029
212.69        21.65638
213.14       -18.78331
213.60       -89.49947
214.06       -287.1185
214.52        -712.858
214.98       -297.6196
215.44       -65.64982
215.90        10.00176
216.36        34.19528
216.81        35.23361
217.27        16.37254
217.73       -79.43489
218.19        1070.035
218.65        453.0061
219.11       -927.6968
219.57       -24.16667
220.02        32.79589
220.48        43.09795
220.94        38.02723
221.40         16.7815
221.86       -37.45228
222.32        -83.1329
222.77        -45.7929
223.23       -7.665857
223.69        12.86024
224.15        20.48659
224.61        21.38579
225.06        19.88131
225.52        16.31138
225.98        10.28508
226.44        2.457026
226.90       -8.246341
227.36       -16.21353
227.81       -11.06472
228.27        2.661045
228.73         17.2292
229.19        27.04051
229.65        29.54117
230.10        26.11018
230.56        18.77517
231.02        8.864207
231.48        1.730747
231.93        1.539578
232.39        6.385008
232.85         12.3187
233.31        15.87522
233.77        17.15241
234.22         17.7806
234.68        17.80889
235.14        17.14721
235.60        16.20122
236.05        14.02688
236.51        11.12963
236.97        15.32093
237.43        27.26321
237.88        35.18547
238.34        34.57462
238.80        58.32364
239.26        47.26789
239.71        44.62501
240.17        34.91127
240.63        24.80016
241.08        19.04186
241.54        21.34599
242.00        32.07955
242.46        39.94012
242.91        42.18118
243.37        40.16494
243.83        35.57487
244.28        34.44715
244.74        39.56965
245.20        46.89132
245.66        51.31363
246.11        47.98191
246.57        36.51593
247.03        18.40078
247.48       -3.401865
247.94       -23.89686
248.40       -44.17781
248.85       -78.00153
249.31       -160.0667
249.77       -206.4119
250.22       -77.78152
250.68         -29.397
251.14       -13.29774
251.59       -5.495036
252.05       0.9143919
252.51        9.287967
252.96        18.15023
253.42        21.27923
253.88        15.60517
254.33        5.998689
254.79        3.408104
255.25          13.156
255.70         27.7917
256.16        40.90801
256.62        49.55465
257.07        52.36818
257.53        51.65943
257.99        49.49536
258.44        47.13764
258.90        46.18479
259.35        46.11975
259.81        46.55259
260.27        46.94757
260.72         46.8812
261.18        46.59045
261.63        46.03756
262.09        45.39992
262.55        44.48209
263.00        43.26793
263.46        42.00631
263.91        40.70271
264.37        39.73577
264.83         39.0651
265.28        38.55002
265.74        38.17113
266.19        37.74023
266.65         37.2556
267.11        36.71388
267.56        36.06385
268.02        35.31012
268.47        34.42012
268.93        33.42945
269.38        32.37271
269.84        31.36837
270.30        30.44326
270.75        29.58858
271.21        28.80621
271.66         28.0269
272.12        27.27227
272.57         26.5638
273.03        25.94964
273.48        25.46424
273.94        25.12024
274.39        24.85503
274.85        24.65506
275.31        24.44852
275.76        24.19771
276.22        23.93618
276.67        23.63962
277.13           23.34
277.58        23.01736
278.04        22.69525
278.49        22.35058
278.95        22.01574
279.40        21.66543
279.86        21.32767
280.31        20.98878
280.77         20.6956
281.22        20.42829
281.68        20.23003
282.13        20.04289
282.59        19.84863
283.04         19.6231
283.50        19.38362
283.95        19.19766
284.41        19.18771
284.86        19.35232
285.32        19.65829
285.77        19.95217
286.22        20.02193
286.68          19.861
287.13        19.50945
287.59        19.19017
288.04          19.137
288.50        19.36307
288.95        19.90939
289.41        20.61818
289.86        20.75736
290.32        20.19793
290.77        21.03365
291.22        20.02703
291.68         20.1356
292.13        20.42396
292.59        20.92256
293.04        21.54647
293.50        22.23952
293.95        22.99195
294.40        23.79752
294.86        24.68311
295.31        25.67514
295.77        26.76911
296.22        27.93312
296.68        29.11638
297.13        30.24173
297.58        31.31317
298.04        32.36116
298.49        33.46112
298.95        34.75094
299.40        36.23172
299.85        37.85327
300.31        39.50695
300.76         41.0091
301.21        42.32615
301.67        43.53658
302.12          44.703
302.58        46.01243
303.03         47.4782
303.48        49.08026
303.94        50.76362
304.39        52.40128
304.84        53.96141
305.30        55.49003
305.75        56.97626
306.20        58.49431
306.66        60.05037
307.11        61.57254
307.57        63.04243
308.02        64.38152
308.47        65.59003
308.93        66.73034
309.38        67.78683
309.83        68.75201
310.29        69.74682
310.74        70.66781
311.19         71.5602
311.65        72.43286
312.10        73.27368
312.55        74.08353
313.00        74.85964
313.46        75.59911
313.91        76.28081
314.36        76.90844
314.82        77.46994
315.27        77.94604
315.72        78.34426
316.18        78.67973
316.63        78.97453
317.08        79.26942
317.53        79.57638
317.99        79.88316
318.44         80.1876
318.89        80.47007
319.35         80.7224
319.80        80.95736
320.25        81.16618
320.70        81.33791
321.16        81.46661
321.61        81.56956
322.06        81.66597
322.51        81.79456
322.97        81.95474
323.42         82.1653
323.87        82.39058
324.32        82.58643
324.78        82.72134
325.23        82.82796
325.68        82.92248
326.13        83.05654
326.59        83.22112
327.04        83.44913
327.49        83.66533
327.94        83.77274
328.39        83.75865
328.85         83.6344
329.30        83.55191
329.75        83.65997
330.20        83.99809
330.66        84.48443
331.11        85.05923
331.56        85.51089
332.01        85.77769
332.46        85.90974
332.92        85.92741
333.37        85.98946
333.82        86.10551
334.27          86.245
334.72        86.42171
335.17         86.6605
335.63        86.93777
336.08        87.31039
336.53        87.71474
336.98        88.07027
337.43        88.35612
337.88        88.58501
338.34        88.78796
338.79        89.06815
339.24        89.42597
339.69         89.8271
340.14        90.22313
340.59        90.54568
341.05        90.78114
341.50          90.962
341.95        91.11574
342.40        91.28902
342.85        91.50419
343.30        91.75397
343.75        92.03339
344.20        92.33643
344.66        92.66488
345.11        93.00217
345.56        93.35147
346.01        93.71089
346.46        94.06728
346.91        94.41559
347.36         94.7216
347.81          94.924
348.26        95.01717
348.72        95.09109
349.17         95.0584
349.62        95.09054
350.07        95.17429
350.52        95.29128
350.97        95.39866
351.42        95.42661
351.87         95.3562
352.32        95.20798
352.77        95.01339
353.22        94.81901
353.67        94.63581
354.13        94.45974
354.58        94.24715
355.03         93.9802
355.48        93.65803
355.93        93.29893
356.38        92.92131
356.83        92.54877
357.28        92.17989
357.73        91.79372
358.18        91.38719
358.63        90.95995
359.08        90.51407
359.53        90.06652
359.98        89.58289
360.43        89.00333
360.88        88.32649
361.33        87.56879
361.78        86.82766
362.23        86.26157
362.68        85.89342
363.13        85.66918
363.58        85.45256
364.03        85.02296
364.48        84.33504
364.93        83.46792
365.38         82.5416
365.83        81.75466
366.28        81.16389
366.73        80.69292
367.18        80.29772
367.63        79.91055
368.08        79.49052
368.53        79.06313
368.98        78.56336
369.43        77.87596
369.88        76.98946
370.33        75.93417
370.78        74.83846
371.23        73.94591
371.68        73.34204
372.13        72.97751
372.58        72.75244
373.03        72.48594
373.48        72.11148
373.93        71.66882
374.38        71.19463
374.83        70.75739
375.28        70.37829
375.72        70.01274
376.17        69.64189
376.62        69.19784
377.07        68.66339
377.52        68.05561
377.97         67.4311
378.42        66.89462
378.87        66.48429
379.32        66.17892
379.77         65.9093
380.22        65.56152
380.67         65.1012
381.11        64.55553
381.56        63.98377
382.01        63.50294
382.46        63.15421
382.91        62.91245
383.36        62.69587
383.81        62.37841
384.26        61.93294
384.71        61.39398
385.15        60.85452
385.60        60.51213
386.05         60.3751
386.50        60.38551
386.95        60.39737
387.40        60.18888
387.85        59.73142
388.29        59.08124
388.74        58.47087
389.19        58.06399
389.64        57.88729
390.09        57.86678
390.54        57.89347
390.98        57.78268
391.43        57.52309
391.88        57.17186
392.33         56.8123
392.78        56.55273
393.23        56.41296
393.67        56.33513
394.12        56.32146
394.57        56.21362
395.02        56.00304
395.47        55.79382
395.91        55.61998
396.36        55.43587
396.81         55.2732
397.26        55.19711
397.71        55.14957
398.15        55.01147
398.60        54.83335
399.05        54.53177
399.50        54.24448
399.95        54.28894
400.39        54.60106
400.84        54.84565
401.29        54.89783
401.74        54.55156
402.18        53.95217
402.63        53.75016
403.08        53.91901
403.53        53.78381
403.97        53.34075
404.42        53.06418
404.87        52.96822
405.32        52.89319
405.76        52.82992
406.21        52.75336
406.66        52.68566
407.11        52.80244
407.55        53.02618
408.00        53.02748
408.45        52.80081
408.90         52.4276
409.34        52.06672
409.79        52.12698
410.24        52.50488
410.68        52.63271
411.13        52.47485
411.58        52.37664
412.03        52.37806
412.47        52.38265
412.92         52.3809
413.37        52.40966
413.81        52.44612
414.26        52.49759
414.71        52.54753
415.15        52.60479
415.60        52.64463
416.05        52.67038
416.49        52.68459
416.94        52.67992
417.39        52.66522
417.83        52.65003
418.28        52.63986
418.73         52.6278
419.17        52.62183
419.62        52.64559
420.07        52.70219
420.51        52.78529
420.96        52.88248
421.41        52.95142
421.85        52.96909
422.30        52.93084
422.74        52.87329
423.19        53.05456
423.64        53.42191
424.08        53.68619
424.53        53.76228
424.98        53.88242
425.42        54.05162
425.87        54.06433
426.31         53.9907
426.76        54.09161
427.21        54.36383
427.65        54.62022
428.10        54.77274
428.54        54.86379
428.99        54.91212
429.44        54.90572
429.88        54.86455
430.33        54.83163
430.77        54.81297
431.22        55.03089
431.66        55.41613
432.11        55.68928
432.56        55.87251
433.00        56.00447
433.45        55.87253
433.89        55.93782
434.34        56.45405
434.78        55.03874
435.23        55.44043
435.67        56.66883
436.12        57.12958
436.57        57.32181
437.01        56.71373
437.46        56.38045
437.90        56.90901
438.35        57.49502
438.79        57.36081
439.24        57.49789
439.68        57.64852
440.13        57.70319
440.57        57.68928
441.02        57.87125
441.46        58.17022
441.91        58.20224
442.35        58.01702
442.80        58.18773
443.24        58.65805
443.69        59.07704
444.13        59.29239
444.58        59.29388
445.02        59.12227
445.47        59.06237
445.91        59.14639
446.36        59.20963
446.80        59.25968
447.24        59.38877
447.69        59.57271
448.13        59.86687
448.58        60.03341
449.02         59.9568
449.47        59.68832
449.91        59.63523
450.36        59.84859
450.80        60.03765
451.25        60.17359
451.69        60.36554
452.13        60.54797
452.58        60.45949
453.02         60.1469
453.47        59.94956
453.91        59.88857
454.36        59.79301
454.80        59.68462
455.24          59.662
455.69        59.71705
456.13        59.88504
456.58        60.10863
457.02        60.09565
457.46         59.5153
457.91        59.86355
458.35         59.6134
458.79        59.64408
459.24        59.54084
459.68        59.54219
460.13        59.67945
460.57         59.5716
461.01        59.19012
461.46        59.44891
461.90        59.32365
462.34        58.67741
462.79        58.81909
463.23        58.87523
463.68         59.7219
464.12        59.63589
464.56        58.95183
465.01        58.80368
465.45        59.07644
465.89        59.27056
466.34        59.34053
466.78        59.02709
467.22        58.40659
467.67        58.93708
468.11        58.84108
468.55        58.88273
468.99        58.56116
469.44        58.44739
469.88         58.5481
470.32        58.58663
470.77        58.56149
471.21        58.54804
471.65        58.54282
472.10        58.53298
472.54        58.49324
472.98        58.40754
473.42         58.2791
473.87        58.11726
474.31        57.94648
474.75        57.91125
475.20        57.99094
475.64        58.08564
476.08        58.15912
476.52        58.15121
476.97        58.01654
477.41        58.10727
477.85        57.99316
478.29        57.77002
478.74        58.20808
479.18        58.32434
479.62        58.41236
480.06        58.48203
480.50        58.58481
480.95        58.45729
481.39        58.06865
481.83        58.43172
482.27        58.45388
482.72        58.06236
483.16         58.5931
483.60        58.49162
484.04        58.74968
484.48        58.34497
484.93        58.21955
485.37        58.06516
485.81        58.55999
486.25        58.25601
486.69        58.95926
487.14        58.84367
487.58        58.19646
488.02         57.9389
488.46        58.53622
488.90          58.444
489.34        57.97486
489.79        57.80667
490.23        58.25043
490.67         58.5197
491.11        58.59639
491.55        58.45131
491.99        58.17141
492.43        58.06823
492.88        58.17309
493.32        58.29388
493.76        58.33627
494.20        58.38309
494.64        58.44548
495.08         58.1061
495.52        58.01054
495.96        58.07825
496.41        58.37266
496.85        58.31742
497.29        57.93214
497.73        57.90008
498.17        57.91422
498.61        58.05008
499.05        58.13194
499.49        57.93371
499.93        57.59945
500.37        57.68918
500.82        58.12553
501.26        58.42795
501.70        58.49324
502.14        58.10834
502.58        57.85383
503.02        57.65749
503.46        57.65459
503.90        57.70188
504.34        57.73362
504.78         57.7784
505.22        57.83652
505.66         57.7893
506.10        57.65142
506.54        57.79471
506.98        58.20783
507.42        57.71358
507.86        57.81433
508.30        57.72226
508.74        57.76738
509.18        57.82977
509.62        57.84563
510.06        57.85696
510.50        57.82436
510.94        57.69111
511.38        57.51534
511.82         57.4491
512.26        57.51195
512.70        57.63805
513.14        57.77369
513.58        57.84996
514.02        57.84266
514.46        57.77015
514.90        57.65936
515.34        57.59826
515.78        57.61037
516.22        57.62926
516.66        57.47974
517.10        57.74727
517.54         57.4698
517.98         57.4153
518.42         57.3314
518.86        57.28889
519.30        57.29692
519.74        57.30513
520.18        57.32827
520.62        57.45678
521.06        57.64122
521.50          57.674
521.93        57.56059
522.37        57.49328
522.81        57.48532
523.25        57.42764
523.69        57.34634
524.13        57.29493
524.57        57.27527
525.01        57.34809
525.45        57.51946
525.89        57.39014
526.32        57.59306
526.76        57.61781
527.20        57.65471
527.64        57.68768
528.08        57.72007
528.52        57.74702
528.96        57.75518
529.40        57.73622
529.83        57.68834
530.27        57.64331
530.71        57.60869
531.15        57.59393
531.59        57.60053
532.03        57.62635
532.46        57.64803
532.90        57.64037
533.34         57.5942
533.78        57.52554
534.22        57.44275
534.66        57.35765
535.09        57.27212
535.53        57.20363
535.97        57.16035
536.41        57.17108
536.85        57.23595
537.28        57.34199
537.72        57.45939
538.16        57.53939
538.60        57.56594
539.04        57.55326
539.47        57.49975
539.91        57.45364
540.35        57.40934
540.79        57.36068
541.22        57.31456
541.66        57.28603
542.10         57.2718
542.54        57.29844
542.97        57.33851
543.41        57.31105
543.85        57.23913
544.29          57.283
544.72        57.40742
545.16        57.48161
545.60        57.49226
546.04        57.45732
546.47         57.4111
546.91        57.53372
547.35         57.7527
547.79        57.70115
548.22        57.41499
548.66        57.31384
549.10        57.40902
549.53        57.43812
549.97        57.38968
550.41        57.35851
550.84        57.35032
551.28        57.30297
551.72        57.22475
552.15        57.23742
552.59        57.37959
553.03        57.23027
553.46        57.45659
553.90        57.48312
554.34        57.49438
554.77        57.47675
555.21        57.47139
555.65         57.4991
556.08        57.54625
556.52        57.65896
556.96        57.78065
557.39        57.75505
557.83        57.62561
558.27        57.58565
558.70        57.63277
559.14        57.62002
559.57        57.54353
560.01        57.52382
560.45        57.53216
560.88        57.53513
561.32        57.55676
561.75        57.41271
562.19        57.21906
562.63        57.36734
563.06        57.74751
563.50        57.77814
563.93        57.46708
564.37        57.28254
564.80        57.26737
565.24        57.36339
565.68        57.52426
566.11        57.61642
566.55        57.64124
566.98        57.69995
567.42        57.80496
567.85        57.82353
568.29        57.79412
568.72         57.7837
569.16        57.84454
569.60        57.77738
570.03        57.86798
570.47        57.90705
570.90        57.88639
571.34         57.9668
571.77        57.97319
572.21        57.71402
572.64         57.8307
573.08         57.8746
573.51        57.85111
573.95        58.22853
574.38        58.02547
574.82        58.28376
575.25        58.43274
575.69        58.06294
576.12        57.56931
576.56        57.83511
576.99         58.2066
577.42        58.11234
577.86        58.25719
578.29        58.30542
578.73        58.43379
579.16        58.27367
579.60        57.68048
580.03        58.24461
580.47         58.3825
580.90        57.79906
581.33        58.12693
581.77        58.20476
582.20         58.7611
582.64        58.40926
583.07        58.17229
583.51        57.96126
583.94        57.89751
584.37         57.8287
584.81        57.61578
585.24        57.72594
585.68        58.38815
586.11        58.26497
586.54        57.84224
586.98        57.91495
587.41        57.90019
587.85        58.02907
588.28        58.13722
588.71        58.37395
589.15        58.41651
589.58        57.69943
590.01        57.73176
590.45        57.81489
590.88        57.99191
591.31        57.74747
591.75        57.75077
592.18        57.65641
592.61        57.60352
593.05        58.26995
593.48        58.37247
593.91        58.09553
594.35        58.29752
594.78        58.30037
595.21        57.77101
595.65         57.7634
596.08         57.9987
596.51        58.21796
596.94         57.8826
597.38        57.81183
597.81        57.88581
598.24        58.08214
598.68        57.96374
599.11         57.9471
599.54        58.18837
599.97        58.10082
600.41        57.95857
600.84        58.27065
601.27        58.20615
601.70        58.11016
602.14        57.98656
602.57         57.8578
603.00        58.15722
603.43        58.18272
603.87        58.57634
604.30         58.4725
604.73        58.47936
605.16        58.22187
605.60        58.25029
606.03        58.21011
606.46        58.22847
606.89        58.22553
607.32        57.98479
607.76        58.53166
608.19        58.40312
608.62        58.12382
609.05        58.74323
609.48        58.23357
609.92        58.38268
610.35        58.39557
610.78        58.68651
611.21        58.29974
611.64        58.27795
612.07        58.20897
612.50        58.36897
612.94        58.40559
613.37        58.32885
613.80        58.35172
614.23        58.44198
614.66        58.30568
615.09        58.21331
615.52        58.07772
615.96        57.97256
616.39        58.06783
616.82        58.11739
617.25        57.89079
617.68        58.25383
618.11        58.12836
618.54         58.0092
618.97        57.94303
619.40        57.86572
619.84        58.03847
620.27        58.02147
620.70        57.99263
621.13        57.87057
621.56        57.95952
621.99        58.24359
622.42        58.33096
622.85        58.16096
623.28        58.24629
623.71         58.2274
624.14        58.20939
624.57        58.06248
625.00        58.57026
625.43        57.96383
625.86        57.94425
626.29        57.99295
626.72        57.95328
627.15        57.83983
627.58        57.83291
628.01        57.98871
628.44        57.77213
628.87        57.88481
629.30        58.01381
629.73        58.00367
630.16        57.97107
630.59        57.83492
631.02        58.10435
631.45        57.93393
631.88        57.97414
632.31        57.98898
632.74         57.7747
633.17        57.82037
633.60        57.72593
634.03        57.64942
634.46        57.62805
634.89        57.58377
635.32        57.61014
635.75        57.67131
636.18        57.76459
636.61        57.85545
637.04        57.89166
637.47        57.86262
637.89        57.78852
638.32        57.68662
638.75        57.61241
639.18        57.58167
639.61        57.58084
640.04        57.60217
640.47        57.62015
640.90        57.62456
641.33        57.64587
641.76        57.68497
642.18        57.63076
642.61        57.65547
643.04        57.61943
643.47        57.58949
643.90        57.58787
644.33        57.61955
644.76        57.65768
645.18         57.6959
645.61        57.75152
646.04        57.80836
646.47        57.81104
646.90        57.75962
647.33         57.7224
647.75        57.69709
648.18        57.63139
648.61        57.57732
649.04         57.6142
649.47        57.68358
649.89        57.98914
650.32        57.86548
650.75        57.78056
651.18         57.5977
651.61        57.57864
652.03        57.72217
652.46        57.68319
652.89        57.47364
653.32        57.64446
653.74        57.67528
654.17        57.68193
654.60         57.6069
655.03        57.48646
655.46        57.62924
655.88        57.58627
656.31        58.67927
656.74        61.05547
657.16        59.62241
657.59        57.92508
658.02        57.22636
658.45        57.82402
658.87        57.60324
659.30        57.96685
659.73        57.83786
660.15        57.48722
660.58        57.85468
661.01        58.08574
661.44        58.37333
661.86        58.26748
662.29        57.85178
662.72        57.64798
663.14         57.7152
663.57          57.788
664.00        57.82088
664.42        57.84855
664.85        57.86627
665.27        57.77607
665.70         57.7865
666.13        57.77509
666.55         57.8091
666.98        57.87154
667.41        57.93464
667.83        57.95834
668.26        57.94209
668.69         57.8493
669.11        57.70807
669.54        57.75621
669.96        58.04729
670.39        57.77031
670.82        58.26352
671.24        58.22881
671.67         58.0852
672.09        58.04665
672.52        58.12943
672.94        58.03782
673.37        57.81383
673.80        57.77271
674.22        57.92004
674.65        57.98351
675.07        57.96241
675.50        58.05572
675.92        58.12344
676.35        58.21028
676.77        58.26461
677.20        58.32202
677.62        58.39083
678.05        58.40475
678.47        58.34885
678.90        58.52011
679.32        58.40254
679.75        58.43657
680.17        58.46108
680.60        58.52471
681.02        58.58978
681.45        58.49781
681.87        58.29156
682.30         58.2122
682.72        58.27778
683.15        58.23644
683.57         58.0905
684.00        58.20703
684.42        58.18753
684.85        58.23868
685.27        58.22853
685.70        58.21985
686.12        58.20644
686.54        58.20176
686.97        58.20593
687.39        58.23822
687.82        58.29621
688.24        58.35028
688.66         58.3746
689.09        58.60287
689.51        58.59238
689.94        58.71416
690.36        58.81372
690.78        58.87614
691.21         58.9057
691.63        58.76114
692.06        58.72316
692.48        58.72306
692.90        58.81305
693.33        58.85198
693.75         58.8418
694.17        58.80966
694.60        58.76416
695.02        58.89959
695.44        58.94251
695.87         58.9568
696.29        58.89266
696.71        58.79887
697.14        58.70573
697.56        58.80754
697.98        59.06336
698.41        58.92687
698.83        58.97501
699.25        58.85066
699.68        58.75812
700.10        58.68931
700.52        58.66145
700.94        58.67006
701.37        58.68823
701.79        58.72882
702.21        58.76659
702.64        58.80572
703.06        58.84384
703.48        58.88487
703.90        58.93076
704.33        58.97414
704.75        59.00809
705.17        59.00461
705.59        58.96304
706.01        58.89097
706.44        58.82487
706.86        58.84162
707.28        58.94022
707.70        59.09502
708.12        59.26044
708.55        59.35696
708.97        59.35936
709.39        59.30203
709.81        59.20735
710.23        59.12054
710.66          59.066
711.08        59.04198
711.50        59.04129
711.92        59.06886
712.34        59.12043
712.76        59.19242
713.19        59.26486
713.61        59.34411
714.03        59.40154
714.45        59.45366
714.87        59.49526
715.29        59.47962
715.71        59.40269
716.13        59.42929
716.56        59.30012
716.98        59.33495
717.40        59.44508
717.82        59.61135
718.24        59.78311
718.66        59.88062
719.08         59.8848
719.50         59.8223
719.92        59.71729
720.34        59.60761
720.76        59.51385
721.19        59.41867
721.61        59.36387
722.03        59.38932
722.45        59.49847
722.87        59.68074
723.29        59.88188
723.71        60.00861
724.13        60.03609
724.55        59.98405
724.97        59.90126
725.39        59.87456
725.81         59.9265
726.23        60.02736
726.65        60.13708
727.07        60.19859
727.49         60.1976
727.91        60.14326
728.33        60.06199
728.75        60.03173
729.17        60.05038
729.59        60.02138
730.01        59.96058
730.43        59.96498
730.85        60.03915
731.27        60.12827
731.69        60.20905
732.10        60.21508
732.52        60.31532
732.94        60.13209
733.36        59.81638
733.78        59.70466
734.20         59.8386
734.62        60.03653
735.04        60.22903
735.46        60.37372
735.88        60.44733
736.30        60.47768
736.72        60.45678
737.13        60.42943
737.55        60.38339
737.97        60.19501
738.39        59.97012
738.81         60.1824
739.23        60.72355
739.65        60.83691
740.06        60.49276
740.48        60.37783
740.90        60.47221
741.32        60.39332
741.74         60.1865
742.16        60.13914
742.57         60.2902
742.99        60.55213
743.41        60.84021
743.83        60.96358
744.25        60.90351
744.67         60.7957
745.08        60.71898
745.50        60.67893
745.92        60.71727
746.34         60.8558
746.75        61.02857
747.17        61.10245
747.59        61.05099
748.01        60.88238
748.42        60.68613
748.84         60.6316
749.26        60.71678
749.68         60.8395
750.09        60.91603
750.51         60.7752
750.93        60.48734
751.35        60.40957
751.76        60.55548
752.18        60.62577
752.60        60.61414
753.01        60.73676
753.43        60.90656
753.85        60.91849
754.27        60.75387
754.68        60.47908
755.10         60.2143
755.52        60.12669
755.93         60.2477
756.35        60.52031
756.77        60.86438
757.18        61.07385
757.60        61.08278
758.02        61.11044
758.43        61.22026
758.85        60.76227
759.26        60.80584
759.68        60.89875
760.10        60.61733
760.51        60.45555
760.93        60.93348
761.34        60.84283
761.76         61.2458
762.18        61.17925
762.59        60.94387
763.01        61.08388
763.42        60.81859
763.84        61.04385
764.26        61.09489
764.67        61.38609
765.09         61.7167
765.50        61.82898
765.92        61.73981
766.33        61.66703
766.75         61.6082
767.16        61.37332
767.58        61.01276
768.00        61.09708
768.41        61.60157
768.83        61.68782
769.24        61.33388
769.66        61.76707
770.07         61.9194
770.49        61.86387
770.90        61.39448
771.32        61.20767
771.73        61.34759
772.15        61.39073
772.56        61.35766
772.97        61.49826
773.39        61.73738
773.80        61.87792
774.22        61.85716
774.63        61.75814
775.05        61.62078
775.46        61.55851
775.88        61.58144
776.29        61.67078
776.70        61.77448
777.12          61.827
777.53        61.82483
777.95        61.78492
778.36        61.73047
778.77         61.6906
779.19        61.68258
779.60        61.70377
780.02        61.75187
780.43        61.87397
780.84        62.06938
781.26        62.21281
781.67        62.32468
782.09        62.58899
782.50        62.88048
782.91        62.76831
783.33        62.30285
783.74        62.06619
784.15        62.09308
784.57        62.08686
784.98        62.05721
785.39        62.12486
785.81        62.27911
786.22         62.4817
786.63        62.67717
787.04        62.77641
787.46        62.77202
787.87        62.67291
788.28        62.54041
788.70        62.45919
789.11        62.44029
789.52        62.47925
789.93        62.56058
790.35         62.6458
790.76         62.7286
791.17        62.81729
791.58        62.91921
792.00        62.99374
792.41        63.05904
792.82        63.20493
793.23        63.38715
793.65        63.33009
794.06        63.17712
794.47        63.41019
794.88        63.86221
795.29        64.38464
795.71         64.0116
796.12        63.85006
796.53        63.69192
796.94        63.59211
797.35        63.55241
797.76        63.46002
798.18        63.33366
798.59        63.29099
799.00        63.33364
799.41        63.38702
799.82        63.42848
800.23        63.46161
800.64        63.47869
801.06        63.45541
801.47        63.43964
801.88         63.4446
802.29         63.4758
802.70        63.51779
803.11         63.5737
803.52        63.64873
803.93         63.7422
804.34        63.85571
804.75        63.95191
805.17        63.98965
805.58          63.993
805.99        63.86884
806.40        63.68888
806.81        63.80369
807.22        64.12334
807.63        64.09811
808.04        63.78524
808.45        63.74353
808.86        64.00421
809.27         64.2436
809.68        64.38967
810.09        64.47115
810.50        64.46244
810.91        64.35387
811.32        64.19557
811.73         64.0741
812.14        64.01887
812.55        64.01615
812.96        64.04329
813.37        64.05563
813.78        64.03822
814.19        64.00565
814.60        63.97584
815.01        63.97052
815.42        63.99626
815.83        64.05108
816.24        64.10559
816.65        64.10858
817.05        64.05846
817.46        63.94896
817.87        63.87169
818.28        63.92425
818.69        64.12646
819.10        64.45033
819.51        64.82249
819.92          65.106
820.33         65.2455
820.74        65.26135
821.14        65.20769
821.55        65.19815
821.96        65.24854
822.37        65.32776
822.78        65.37338
823.19        65.28174
823.60        65.03296
824.00        64.68653
824.41        64.30351
824.82        64.04216
825.23         63.9513
825.64        64.00366
826.04        64.14804
826.45        64.25832
826.86        64.31349
827.27        64.34712
827.68        64.40176
828.08        64.57124
828.49        64.79871
828.90        65.08292
829.31        65.38949
829.72        65.57677
830.12         65.6194
830.53        65.91997
830.94        65.73319
831.35        65.58801
831.75        65.29092
832.16        64.85102
832.57        64.41416
832.97        64.21765
833.38        64.30984
833.79        64.62753
834.20        65.00727
834.60         65.1905
835.01        65.12078
835.42         64.8787
835.82        64.60353
836.23        64.49458
836.64        64.62654
837.04        64.92535
837.45        65.28059
837.86        65.57751
838.26         65.7742
838.67         65.8968
839.08         65.9453
839.48        65.90296
839.89        65.77905
840.29        65.58057
840.70         65.3856
841.11        65.32737
841.51        65.44844
841.92        65.67863
842.33        65.95231
842.73        66.14722
843.14        66.17794
843.54        66.11501
843.95        65.97527
844.35        65.81195
844.76        65.65134
845.17        65.48978
845.57        65.38731
845.98        65.40965
846.38        65.59203
846.79        65.88773
847.19        66.25659
847.60        66.54831
848.00        66.75264
848.41        66.86637
848.81        66.94402
849.22        67.02067
849.62        67.13919
850.03        67.22228
850.43         67.2966
850.84        67.30553
851.24        67.28739
851.65        67.21349
852.05        67.09487
852.46        66.85493
852.86        66.51225
853.27        66.14677
853.67        65.79488
854.07        65.63083
854.48        65.64265
854.88        65.81278
855.29        66.01872
855.69        66.19315
856.10        66.20294
856.50        66.15163
856.90        66.02738
857.31         65.8675
857.71        65.75459
858.12        65.63061
858.52        65.52147
858.92        65.41138
859.33        65.28375
859.73        65.19145
860.13        65.14113
860.54         65.1356
860.94        65.22645
861.34        65.36057
861.75        65.46626
862.15        65.50566
862.55         65.4268
862.96        65.23656
863.36        64.99339
863.76        64.73904
864.17        64.50438
864.57        64.32768
864.97        64.19155
865.38        64.05082
865.78        63.93582
866.18        63.83324
866.58        63.85347
866.99        64.15061
867.39        64.74572
867.79        65.53838
868.19        66.25492
868.60        66.43266
869.00        66.07968
869.40        65.48813
869.80        64.83996
870.21        64.30041
870.61        64.06418
871.01        64.15446
871.41        64.40131
871.81        64.45911
872.22        64.27122
872.62        63.94003
873.02        63.59813
873.42          63.648
873.82        63.97005
874.22          63.966
874.63        63.77727
875.03        63.75191
875.43        63.90289
875.83        64.98976
876.23        64.39243
876.63        63.84055
877.03        63.11208
877.44        61.61149
877.84        167.4301
878.24        63.23823
878.64        63.56831
879.04        64.28778
879.44        64.00763
879.84        60.20988
880.24        65.53165
880.64        66.22373
881.04        64.44169
881.44         62.9878
881.84        62.24536
882.24        62.43423
882.65        63.16691
883.05        63.36274
883.45        62.81557
883.85        62.29707
884.25        62.05025
884.65        62.05815
885.05        62.34996
885.45        62.83316
885.85        63.33918
886.25        63.65087
886.65        63.71591
887.05        63.63093
887.45        63.39531
887.85        63.01293
888.25        62.54235
888.65        61.98143
889.04        61.57692
889.44        61.74186
889.84        62.49371
890.24        63.64891
890.64        64.80441
891.04        65.36563
891.44         65.2216
891.84        64.58356
892.24        63.68825
892.64        62.96421
893.04        62.59435
893.44        62.45041
893.83        62.58311
894.23        63.03568
894.63        63.76439
895.03        64.76028
895.43        65.74185
895.83        66.21655
896.23        66.08729
896.63        65.49457
897.02        64.74499
897.42         64.3782
897.82        64.48066
898.22        64.88197
898.62        65.37856
899.01        65.64451
899.41        65.55477
899.81        65.24793
900.21        64.78979
900.61        64.27491
901.00        63.75797
901.40        63.28199
901.80        62.93568
902.20        62.71805
902.59        62.62365
902.99        62.94141
903.39         63.7023
903.79        63.24297
904.18        64.18921
904.58        64.37646
904.98        64.54234
905.38        64.54742
905.77        64.38704
906.17        64.11459
906.57         63.7725
906.96        63.54077
907.36         63.4743
907.76        63.55875
908.15         63.8057
908.55        64.07993
908.95          64.378
909.34        64.65658
909.74        64.95013
910.14        65.27292
910.53        65.60596
910.93        65.92518
911.33        66.06997
911.72        65.79842
912.12        65.11047
912.52        64.10756
912.91        63.08282
913.31        62.57272
913.70        62.67146
914.10         63.2487
914.49        64.01982
914.89        64.40066
915.29        64.26176
915.68        63.75745
916.08        63.19352
916.47        63.00848
916.87         63.3388
917.26        64.01557
917.66        64.79971
918.05         65.3418
918.45        65.51097
918.84        65.41895
919.24        65.20937
919.64        65.17284
920.03        65.37943
920.42        65.70728
920.82        65.97129
921.21        65.90315
921.61        65.48288
922.00        64.89721
922.40        64.39449
922.79        64.21663
923.19        64.06515
923.58        64.72709
923.98        66.46363
924.37        66.68877
924.77        64.01171
925.16         71.9948
925.55        66.12589
925.95        66.69675
926.34        66.76511
926.74        66.16398
927.13        64.91037
927.52        64.21391
927.92        64.55391
928.31        65.25142
928.70        66.09576
929.10        66.70884
929.49        67.00913
929.89        67.14343
930.28        67.03892
930.67        66.47071
931.07         65.4909
931.46        64.07596
931.85        62.71512
932.24         62.6884
932.64        64.16853
933.03        66.15208
933.42        67.60645
933.82        70.28039
934.21        68.81517
934.60        67.42699
934.99        65.89062
935.39        65.44421
935.78        66.19958
936.17        68.41138
936.56        74.80502
936.96        68.19877
937.35        71.79568
937.74        68.48876
938.13        66.01226
938.53        64.08258
938.92        63.48752
939.31         64.6794
939.70        66.39336
940.09        67.37559
940.49        67.33201
940.88         66.7142
941.27        65.88367
941.66        65.49642
942.05        65.78725
942.44        66.44866
942.84        67.14315
943.23        67.52228
943.62        67.47292
944.01        67.12116
944.40        66.70229
944.79        66.58923
945.18        66.87414
945.57        67.43211
945.97        67.94865
946.36        68.05112
946.75        67.61526
947.14        66.77859
947.53        65.87018
947.92        65.44982
948.31        65.67163
948.70        66.35723
949.09        67.17519
949.48        67.61903
949.87        67.55824
950.26        67.14097
950.65        66.59737
951.04        66.30239
951.43        66.36102
951.82        66.64255
952.21        66.95896
952.60        67.01014
952.99        66.71295
953.38        66.18738
953.77        65.60268
954.16         65.1722
954.55        64.95759
954.94        64.92274
955.33        64.95892
955.72        64.88048
956.11        64.64883
956.50        64.31799
956.89        64.09655
957.28        64.30299
957.66        65.00195
958.05        65.99131
958.44         66.9579
958.83        67.43642
959.22        67.32374
959.61        66.72497
960.00        65.91984
960.39        65.46215
960.78         65.5335
961.16        65.99476
961.55        66.48563
961.94        66.60257
962.33        66.25964
962.72        65.58821
963.11        64.81046
963.49        64.38568
963.88        64.47495
964.27        64.91338
964.66        65.45535
965.04        65.78801
965.43        65.77596
965.82        65.55693
966.21        65.24432
966.60        65.03199
966.98        64.99863
967.37        65.08266
967.76        65.22166
968.15        65.32089
968.53        65.36977
968.92         65.3734
969.31        65.40295
969.69        65.55655
970.08        65.81222
970.47        66.11701
970.86        66.37685
971.24        66.45188
971.63        66.29227
972.02        65.96994
972.40        65.56304
972.79        65.07657
973.17        64.60361
973.56        64.17979
973.95        63.89014
974.33        63.88012
974.72        64.16201
975.11        64.62486
975.49        65.31757
975.88        66.23866
976.26        67.36801
976.65        68.58207
977.04        69.50922
977.42         69.5758
977.81        68.66441
978.19         66.8803
978.58         64.9938
978.96        64.43181
979.35        65.52522
979.74         67.6954
980.12        70.03147
980.51        71.24655
980.89        71.25909
981.28        70.33907
981.66        68.84752
982.05        67.73682
982.43        67.41451
982.82        67.64506
983.20        68.12973
983.59        68.36406
983.97         68.2521
984.35        67.96385
984.74        67.61486
985.12         67.4477
985.51         67.4968
985.89        67.70863
986.28        67.95147
986.66         68.1319
987.04        68.26487
987.43         68.2914
987.81        68.01726
988.20        68.58505
988.58        70.19646
988.96        70.12552
989.35        67.63829
989.73        73.61255
990.12        69.89509
990.50        70.37649
990.88        70.17261
991.27        69.93031
991.65        69.58347
992.03        69.34139
992.42        69.28829
992.80         68.9684
993.18        68.36065
993.56        67.61462
993.95         67.0201
994.33        67.00436
994.71        67.64982
995.10         68.7686
995.48        70.03143
995.86         70.8851
996.24        71.15413
996.63        70.92654
997.01        70.47998
997.39        70.06595
997.77        69.78485
998.15        69.56107
998.54        69.41995
998.92         69.2964
999.30        69.22578
999.68        69.29721
1000.06        69.49531
1000.45        69.69514
1000.83        69.95522
1001.21        70.24885
1001.59        70.66566
1001.97        71.36314
1002.35        72.27869
1002.73        73.23621
1003.12        74.09428
1003.50        74.75705
1003.88         75.1992
1004.26        75.51132
1004.64         75.5856
1005.02        75.21707
1005.40        74.37935
1005.78        73.09864
1006.16        71.81961
1006.54        71.25606
1006.92        71.57254
1007.30        72.65535
1007.69        73.82764
1008.07        74.15421
1008.45        73.43088
1008.83        71.88673
1009.21        70.30199
1009.59        70.29182
1009.97        72.12261
1010.35        74.86599
1010.73        77.49841
1011.11        79.23566
1011.49        80.09042
1011.86        80.09265
1012.24        79.07656
1012.62        79.72771
1013.00        79.62848
1013.38        78.55823
1013.76         75.1873
1014.14        78.69766
1014.52        84.91364
1014.90        76.33348
1015.28        77.78041
1015.66        79.79952
1016.04        76.89111
1016.41        78.37066
1016.79         78.6619
1017.17        78.91755
1017.55        78.49866
1017.93        77.68007
1018.31        77.08994
1018.69        77.29194
1019.06        78.45005
1019.44        80.25023
1019.82        81.86182
1020.20        82.16453
1020.58        80.89798
1020.95        77.96485
1021.33        74.12121
1021.71        72.00364
1022.09        72.98628
1022.46        75.91717
1022.84        78.80111
1023.22        80.05679
1023.60        79.73968
1023.97        78.46672
1024.35        76.86607
1024.73        76.19386
