SpectraSmart Spectrum 2.9.0.0
--------- Device Information -----------
Spectrum Name :  反射率_0
Saving Time :  2024/04/21 00:21:09
Spectro-Module Model Name : SE2030-DUVN
Spectro-Module Serial Number : OS361AC55029948
Wavelength Start : 200
Wavelength End : 1025
Wavelength Unit : Wavelength(nm)
Spectrum Unit : Reflectance(%)
-----------Spectrum Setting ------------
Integration Time : 20ms
Average : 10
Boxcar : 0
Background removal :  enabled
linearity correction :  enabled
SC :  disabled
Intensity correction :  disabled
DWT denoise :  enabled
savitzky-golay :  disabled
FFT :  disabled
Running average :  disabled
Kalman :  disabled
High pass :  disabled
---------------BEGIN--------------------
Wavelength(nm)             Reflectance(%)
200.29               0
200.75       -91.42892
201.21       -47.06336
201.67       -22.93631
202.13       -12.64488
202.58       -9.898552
203.04       -10.73934
203.50       -14.23519
203.96         -18.659
204.42       -22.95243
204.88       -28.71451
205.34       -34.51019
205.80       -39.17729
206.26       -42.39266
206.72       -40.05101
207.18       -37.40697
207.64       -48.52969
208.10        -75.1497
208.55       -112.4799
209.01        -127.487
209.47       -86.90591
209.93       -31.99665
210.39        10.90411
210.85        37.62238
211.31        48.77485
211.77        48.64149
212.23        38.59621
212.69        13.63229
213.14       -32.05437
213.60         -109.73
214.06       -320.4248
214.52       -773.0218
214.98       -342.5684
215.44       -98.71587
215.90       -17.82072
216.36        7.965523
216.81        7.893822
217.27       -15.92094
217.73       -135.0232
218.19        1292.065
218.65        526.7987
219.11       -1194.702
219.57       -66.76747
220.02        4.356056
220.48        16.22181
220.94        8.037234
221.40       -22.56265
221.86       -96.43849
222.32       -146.8878
222.77       -83.05817
223.23       -25.94574
223.69        3.273997
224.15        13.46123
224.61        13.90544
225.06        10.22427
225.52        4.034055
225.98       -2.769122
226.44       -8.847065
226.90       -16.15641
227.36       -20.10239
227.81       -12.99527
228.27       0.1402947
228.73        13.31328
229.19        21.55168
229.65         22.2055
230.10        16.40297
230.56        5.841368
231.02       -7.621907
231.48       -16.31068
231.93       -14.88142
232.39        -6.52586
232.85        2.840299
233.31        8.292925
233.77        10.05984
234.22        10.29695
234.68        9.308993
235.14        7.504314
235.60        5.568995
236.05        2.244044
236.51       -1.934986
236.97        1.970128
237.43          14.886
237.88        23.24024
238.34        21.47425
238.80         49.1426
239.26        34.44891
239.71        29.81809
240.17         16.1658
240.63        2.075233
241.08       -6.235707
241.54       -3.563806
242.00        10.20234
242.46        19.22243
242.91        19.18446
243.37        11.82842
243.83       -0.599309
244.28       -7.594598
244.74       -2.838449
245.20        6.991485
245.66         14.9386
246.11        14.69511
246.57        5.471788
247.03       -10.19657
247.48       -30.62022
247.94       -53.54303
248.40       -83.69932
248.85       -150.4154
249.31       -348.2516
249.77       -514.0559
250.22       -215.9987
250.68       -88.78227
251.14       -47.55083
251.59       -36.61227
252.05       -38.61505
252.51       -48.25224
252.96       -64.45371
253.42       -75.67311
253.88        -71.5985
254.33       -56.55516
254.79       -35.27955
255.25       -13.57655
255.70        3.831071
256.16         16.1009
256.62        24.01567
257.07        28.33976
257.53        30.49907
257.99        31.44588
258.44        31.48855
258.90        31.26039
259.35        30.68699
259.81        30.05468
260.27        29.49608
260.72        29.21301
261.18        29.28089
261.63        29.41819
262.09        29.45051
262.55        29.03473
263.00         28.1796
263.46        27.16435
263.91        26.12397
264.37         25.4781
264.83        25.19947
265.28        25.11573
265.74        25.09717
266.19        24.89265
266.65        24.48763
267.11        23.94431
267.56        23.30919
268.02        22.71048
268.47        22.15141
268.93        21.61476
269.38        21.07295
269.84        20.53233
270.30        19.98763
270.75        19.45963
271.21        18.96231
271.66        18.46162
272.12        17.97521
272.57        17.49781
273.03        17.07585
273.48        16.76938
273.94         16.5836
274.39        16.47296
274.85         16.3751
275.31        16.15199
275.76        15.78412
276.22        15.34526
276.67        14.91402
277.13        14.64036
277.58        14.52687
278.04        14.52201
278.49        14.54325
278.95        14.51302
279.40        14.38529
279.86        14.20854
280.31        13.97416
280.77        13.71725
281.22        13.43722
281.68        13.16978
282.13        12.91315
282.59        12.71404
283.04        12.56664
283.50        12.46603
283.95        12.42787
284.41        12.47847
284.86         12.6065
285.32        12.79908
285.77        12.97597
286.22        13.01836
286.68        12.93202
287.13        12.73106
287.59        12.55736
288.04        12.53055
288.50        12.63868
288.95        12.98581
289.41        13.50281
289.86        13.55507
290.32        13.02046
290.77        14.12264
291.22        13.23317
291.68        13.41811
292.13        13.62369
292.59        13.91717
293.04        14.27109
293.50        14.72297
293.95        15.28799
294.40        15.92257
294.86        16.59727
295.31        17.25601
295.77        17.88021
296.22        18.48098
296.68        19.06853
297.13        19.65679
297.58        20.27009
298.04        20.91332
298.49        21.61978
298.95        22.45911
299.40        23.41719
299.85        24.45869
300.31        25.51121
300.76        26.45834
301.21        27.27149
301.67        28.00375
302.12        28.66947
302.58        29.35517
303.03        30.07815
303.48         30.8574
303.94        31.71473
304.39        32.65867
304.84         33.6835
305.30        34.78214
305.75        35.90837
306.20        37.05398
306.66        38.18686
307.11        39.27346
307.57        40.27193
308.02         41.1024
308.47        41.76024
308.93        42.31833
309.38        42.80783
309.83        43.22995
310.29        43.80065
310.74        44.35403
311.19        44.93915
311.65         45.5303
312.10        46.10823
312.55        46.67708
313.00        47.24186
313.46        47.81044
313.91        48.36496
314.36        48.89859
314.82        49.37189
315.27        49.73811
315.72        49.99396
316.18        50.16299
316.63        50.29903
317.08        50.49673
317.53        50.77891
317.99        51.11678
318.44        51.46484
318.89        51.73708
319.35         51.9099
319.80        52.01086
320.25         52.0717
320.70        52.14575
321.16        52.24591
321.61        52.36862
322.06        52.49726
322.51        52.61022
322.97        52.69844
323.42        52.79063
323.87        52.89736
324.32        53.04318
324.78        53.21939
325.23          53.429
325.68        53.64574
326.13        53.84452
326.59        54.00135
327.04        54.15047
327.49        54.26956
327.94        54.34394
328.39        54.37669
328.85        54.35691
329.30        54.35503
329.75        54.42295
330.20         54.5765
330.66        54.78579
331.11        55.03487
331.56        55.22161
332.01        55.32539
332.46        55.37476
332.92        55.39179
333.37        55.49279
333.82         55.6783
334.27        55.91586
334.72        56.19205
335.17        56.48465
335.63        56.76213
336.08        57.07201
336.53        57.35818
336.98        57.55108
337.43        57.64275
337.88        57.64462
338.34        57.64148
338.79        57.80056
339.24        58.14335
339.69         58.6184
340.14        59.09835
340.59        59.38573
341.05        59.44047
341.50        59.32537
341.95        59.14655
342.40        59.08508
342.85        59.19711
343.30        59.43054
343.75        59.71314
344.20        59.93008
344.66        60.05835
345.11        60.13559
345.56        60.21018
346.01        60.34235
346.46         60.5333
346.91         60.7823
347.36         61.0726
347.81        61.26565
348.26        61.32681
348.72        61.75456
349.17        61.67588
349.62        61.73326
350.07        61.68036
350.52        61.54142
350.97        61.35397
351.42        61.19973
351.87        61.10815
352.32        61.05991
352.77         61.0075
353.22        60.86991
353.67        60.63514
354.13        60.34417
354.58        60.04135
355.03        59.84126
355.48         59.7639
355.93        59.76486
356.38        59.77386
356.83        59.68565
357.28          59.467
357.73        59.14434
358.18        58.75085
358.63        58.34641
359.08        57.95716
359.53        57.57203
359.98        57.18355
360.43        56.77556
360.88        56.34829
361.33        55.92024
361.78        55.50743
362.23        55.13112
362.68        54.79473
363.13        54.48259
363.58        54.18751
364.03        53.89785
364.48        53.60533
364.93        53.31638
365.38        53.00229
365.83        52.62165
366.28        52.17056
366.73        51.65246
367.18        51.13893
367.63        50.74551
368.08        50.49075
368.53        50.34649
368.98        50.19503
369.43        49.84592
369.88        49.26149
370.33        48.49518
370.78        47.69758
371.23         47.1365
371.68        46.89106
372.13         46.8872
372.58        46.97071
373.03        46.89114
373.48        46.57882
373.93         46.1055
374.38         45.5864
374.83        45.21297
375.28        45.03873
375.72         44.9919
376.17        44.97396
376.62        44.83526
377.07        44.53386
377.52        44.10612
377.97        43.63776
378.42        43.27641
378.87        43.06397
379.32        42.96021
379.77        42.85376
380.22        42.57592
380.67        42.09713
381.11        41.47343
381.56        40.83913
382.01        40.42378
382.46        40.28648
382.91        40.34967
383.36        40.46957
383.81        40.42431
384.26        40.16047
384.71        39.75377
385.15        39.28987
385.60        38.94635
386.05         38.7513
386.50        38.64565
386.95        38.58659
387.40        38.51373
387.85        38.40664
388.29        38.27208
388.74        38.15023
389.19        37.99759
389.64        37.81281
390.09        37.59058
390.54         37.3709
390.98        37.22005
391.43        37.16959
391.88         37.1879
392.33        37.21361
392.78        37.16701
393.23        37.03864
393.67        36.81184
394.12        36.58025
394.57        36.46743
395.02        36.44756
395.47        36.31412
395.91        36.10016
396.36        36.00576
396.81        36.05026
397.26         36.1446
397.71        36.20036
398.15        36.12958
398.60         35.9607
399.05        35.63127
399.50        35.29648
399.95        35.28856
400.39        35.56688
400.84        35.81558
401.29        35.90993
401.74        35.70357
402.18        35.27502
402.63         35.0428
403.08        35.02699
403.53        34.87557
403.97        34.60488
404.42        34.48241
404.87        34.50336
405.32         34.5446
405.76        34.58524
406.21        34.61835
406.66        34.62039
407.11        34.64224
407.55        34.62798
408.00         34.3831
408.45        33.98841
408.90        33.64855
409.34        33.50102
409.79          33.755
410.24        34.25793
410.68        34.51009
411.13         34.4477
411.58        34.33288
412.03        34.22401
412.47        34.11728
412.92        34.03798
413.37        33.99442
413.81        33.96587
414.26        33.94786
414.71        33.92836
415.15        33.92213
415.60        33.92917
416.05        33.96924
416.49        34.04247
416.94        34.12315
417.39        34.18785
417.83         34.2038
418.28        34.15889
418.73        34.05524
419.17        33.91178
419.62        33.77614
420.07        33.67191
420.51        33.60197
420.96        33.55255
421.41         33.5127
421.85        33.46799
422.30        33.33654
422.74         33.1876
423.19        33.39766
423.64        33.87532
424.08        34.08971
424.53        33.94351
424.98        33.89283
425.42        33.96844
425.87        33.70374
426.31        33.27745
426.76        33.51089
427.21         34.2682
427.65        34.49129
428.10        34.15801
428.54        34.09337
428.99        34.31687
429.44        34.45338
429.88        34.42336
430.33        34.16906
430.77        33.80235
431.22         33.7468
431.66        33.99176
432.11        34.28075
432.56          34.565
433.00        34.67021
433.45        34.36922
433.89        34.21802
434.34        34.52821
434.78        33.07578
435.23        33.33541
435.67        34.54721
436.12         34.4698
436.57        34.64513
437.01        34.27667
437.46        34.09554
437.90        34.42948
438.35        34.76251
438.79        34.61841
439.24          34.618
439.68        34.62075
440.13        34.46917
440.57         34.2336
441.02        34.40138
441.46        34.84293
441.91        34.75852
442.35        34.27639
442.80        34.36415
443.24        34.90839
443.69        35.06048
444.13        34.77909
444.58        34.60231
445.02        34.56517
445.47        34.58232
445.91        34.62918
446.36        34.64506
446.80        34.61955
447.24        34.60387
447.69        34.61178
448.13        34.70738
448.58        34.76468
449.02        34.70775
449.47         34.5489
449.91        34.48833
450.36        34.55208
450.80        34.58226
451.25        34.58596
451.69        34.66023
452.13        34.76901
452.58        34.73713
453.02        34.57362
453.47         34.4462
453.91        34.36838
454.36        34.26454
454.80        34.12873
455.24        34.04329
455.69        34.03318
456.13        33.95149
456.58        33.84672
457.02        34.09496
457.46        34.39512
457.91         34.3779
458.35        34.10112
458.79        34.00592
459.24        34.13828
459.68        34.21175
460.13        34.21991
460.57         34.1946
461.01        34.13855
461.46        34.01162
461.90        34.11174
462.34        33.81847
462.79        34.01876
463.23        34.12098
463.68        34.29768
464.12        34.19437
464.56        33.89082
465.01        33.99035
465.45         34.3167
465.89         34.2461
466.34        33.88834
466.78        33.66612
467.22        33.59457
467.67        34.13479
468.11         33.9912
468.55        34.00613
468.99        33.84015
469.44        33.78998
469.88         33.8601
470.32        33.86399
470.77        33.81243
471.21        33.79421
471.65        33.81701
472.10        33.85405
472.54        33.87691
472.98        33.87085
473.42        33.83937
473.87        33.74316
474.31          33.614
474.75        33.69241
475.20        33.90658
475.64        33.87436
476.08        33.65114
476.52        33.59108
476.97        33.68888
477.41        33.85397
477.85        34.02094
478.29        33.78049
478.74        33.62609
479.18        33.51634
479.62         33.6547
480.06        33.67773
480.50        33.62128
480.95        33.58844
481.39        33.56749
481.83        33.88015
482.27        34.04082
482.72        34.20288
483.16        34.39185
483.60        34.63678
484.04        34.53095
484.48        34.11125
484.93        33.78931
485.37        33.57662
485.81         33.7934
486.25        33.73212
486.69        33.72489
487.14        33.75042
487.58        33.97372
488.02        33.98331
488.46        33.79941
488.90        34.27499
489.34        33.64402
489.79        33.33512
490.23        33.73091
490.67        33.89558
491.11        34.01307
491.55        33.93961
491.99        33.75082
492.43        33.70628
492.88        33.82199
493.32         33.8894
493.76        33.84403
494.20        33.85885
494.64        33.96902
495.08        33.57338
495.52        33.60583
495.96        33.64326
496.41        33.87128
496.85        33.74614
497.29        33.34987
497.73        33.42306
498.17        33.72678
498.61        33.86037
499.05        33.70948
499.49        33.51556
499.93        33.37682
500.37        33.37041
500.82        33.47616
501.26        33.64741
501.70        33.79093
502.14        33.52715
502.58        33.21442
503.02        33.03886
503.46        33.08736
503.90        33.15441
504.34        33.19152
504.78        33.24785
505.22        33.31929
505.66        33.34098
506.10        33.31862
506.54        33.42601
506.98         33.6959
507.42        33.46692
507.86        33.79693
508.30        33.78291
508.74        33.67006
509.18        33.50722
509.62        33.32917
510.06        33.22605
510.50        33.20186
510.94        33.20697
511.38        33.22048
511.82        33.24293
512.26        33.26126
512.70        33.26212
513.14        33.24779
513.58        33.23309
514.02        33.22189
514.46        33.20175
514.90        33.15179
515.34        33.12703
515.78        33.14307
516.22        33.05986
516.66        32.77745
517.10        33.20784
517.54        32.87899
517.98        32.96222
518.42        33.00608
518.86        33.02512
519.30        33.00878
519.74        32.95622
520.18        32.91372
520.62        32.96767
521.06        33.10067
521.50        33.17375
521.93        33.17574
522.37        33.19442
522.81        33.22764
523.25        33.22012
523.69        33.16677
524.13        33.09033
524.57        33.00004
525.01        32.89542
525.45        32.81185
525.89        32.80458
526.32        32.88014
526.76        33.02272
527.20        33.18832
527.64        33.30618
528.08        33.35414
528.52        33.35062
528.96        33.31663
529.40        33.28347
529.83        33.26233
530.27        33.25958
530.71        33.26272
531.15        33.25238
531.59        33.22557
532.03         33.1924
532.46        33.16227
532.90        33.15398
533.34        33.16667
533.78        33.19404
534.22        33.21379
534.66        33.19223
535.09        33.12148
535.53        33.02596
535.97        32.92759
536.41        32.86994
536.85        32.86372
537.28        32.89484
537.72        32.94662
538.16        32.99068
538.60        33.01654
539.04        33.03436
539.47        33.03655
539.91        33.03972
540.35        33.03699
540.79        33.02118
541.22        33.00204
541.66        33.00577
542.10        33.03205
542.54        33.07756
542.97         33.1099
543.41        33.09483
543.85        33.02816
544.29        32.93277
544.72        32.84202
545.16          32.839
545.60        32.92733
546.04        33.03725
546.47        33.15037
546.91        33.30928
547.35        33.44737
547.79         33.4325
548.22        33.27337
548.66        33.05667
549.10        32.86811
549.53         32.8651
549.97        33.02037
550.41        33.08306
550.84         33.0344
551.28         33.0224
551.72        33.04502
552.15        33.05973
552.59        33.08065
553.03        32.95905
553.46        32.97921
553.90        32.92476
554.34        32.87975
554.77         32.8337
555.21        32.81348
555.65        32.84761
556.08         32.9319
556.52         33.0562
556.96        33.18067
557.39        33.28268
557.83        33.33892
558.27         33.2782
558.70        33.15353
559.14        33.10844
559.57        33.15376
560.01        33.28835
560.45        33.42435
560.88        33.36203
561.32        33.16296
561.75        33.00373
562.19        32.95893
562.63        33.04774
563.06         33.2095
563.50        33.23948
563.93        33.13021
564.37        33.07031
564.80        33.07438
565.24        33.12344
565.68        33.20875
566.11        33.26941
566.55        33.30523
566.98        33.40654
567.42        33.53896
567.85        33.46741
568.29        33.26162
568.72        33.20202
569.16        33.31462
569.60        33.28615
570.03        33.28582
570.47         33.3013
570.90        33.32597
571.34        33.39194
571.77        33.52661
572.21        33.25494
572.64        33.14484
573.08        33.19065
573.51         33.3139
573.95        33.58086
574.38        33.35984
574.82        33.54205
575.25        33.37022
575.69        33.29377
576.12        33.03171
576.56         33.2897
576.99         33.7758
577.42        33.55002
577.86        33.48919
578.29        33.83765
578.73        33.61864
579.16        33.32509
579.60        33.14537
580.03        33.33334
580.47        33.46502
580.90        33.38949
581.33        33.68902
581.77         33.6965
582.20        33.80597
582.64        33.56643
583.07        33.52221
583.51        33.49403
583.94        33.52477
584.37        33.45614
584.81        33.32784
585.24        33.30938
585.68        33.64137
586.11        33.35614
586.54        33.45502
586.98         33.3956
587.41        33.37057
587.85        33.68519
588.28        33.34761
588.71        33.45739
589.15        33.51675
589.58        33.41542
590.01        33.49714
590.45        33.48099
590.88        33.61653
591.31        33.47475
591.75        33.50499
592.18        33.52893
592.61        33.58353
593.05         33.7596
593.48        33.66204
593.91        33.44568
594.35        33.45029
594.78        33.55077
595.21         33.4253
595.65        33.40395
596.08        33.36924
596.51        33.46122
596.94        33.35014
597.38         33.4172
597.81        33.61729
598.24        33.37284
598.68        33.57959
599.11        33.67065
599.54        33.45181
599.97        33.56133
600.41        33.56822
600.84        33.88441
601.27        33.67017
601.70        33.69312
602.14        33.42487
602.57        33.46477
603.00        33.67876
603.43        33.73431
603.87        33.93088
604.30        33.72493
604.73        33.52279
605.16        33.54494
605.60        33.51425
606.03        33.59972
606.46        33.72425
606.89        33.43588
607.32        33.26213
607.76        33.99554
608.19        33.70135
608.62        33.68298
609.05        34.59176
609.48         33.8157
609.92        33.82624
610.35         34.0053
610.78        33.77072
611.21        33.49508
611.64        33.59983
612.07        33.63057
612.50        33.74713
612.94        33.79737
613.37         33.7887
613.80         33.7458
614.23        33.68629
614.66        33.65201
615.09        33.63771
615.52        33.62692
615.96        33.62988
616.39        33.59966
616.82        33.51485
617.25        33.73071
617.68        33.66218
618.11        33.61755
618.54        33.55099
618.97         33.5575
619.40        33.65994
619.84        33.63511
620.27        33.74203
620.70        33.63208
621.13        33.44755
621.56         33.4488
621.99        33.65456
622.42        33.78125
622.85        33.73726
623.28        33.82867
623.71        33.85432
624.14         33.5736
624.57        33.61424
625.00        33.81298
625.43         33.5427
625.86        33.74132
626.29        33.84249
626.72        33.95092
627.15        33.81228
627.58         33.7176
628.01        33.70816
628.44        33.45767
628.87        33.37521
629.30        33.69429
629.73        33.60207
630.16        33.56768
630.59        33.54378
631.02        33.67753
631.45        33.55334
631.88        33.57638
632.31        33.62544
632.74        33.52564
633.17        33.61075
633.60        33.58486
634.03        33.55233
634.46          33.537
634.89        33.50201
635.32        33.51464
635.75        33.55583
636.18         33.6188
636.61         33.6759
637.04        33.68468
637.47        33.63787
637.89        33.55695
638.32         33.4558
638.75        33.37411
639.18        33.32724
639.61        33.30608
640.04        33.31487
640.47        33.35983
640.90        33.43448
641.33        33.53281
641.76        33.63186
642.18        33.69625
642.61        33.71004
643.04        33.68999
643.47        33.64736
643.90        33.61107
644.33        33.59332
644.76        33.56348
645.18        33.54313
645.61        33.60912
646.04        33.73718
646.47        33.81095
646.90        33.80934
647.33        33.78883
647.75        33.74582
648.18        33.65783
648.61        33.55564
649.04         33.4861
649.47        33.45744
649.89        33.59153
650.32         33.5293
650.75        33.71212
651.18        33.94124
651.61        33.90622
652.03         33.6398
652.46        33.44822
652.89        33.44693
653.32        33.57808
653.74        33.68134
654.17        33.97315
654.60        33.65188
655.03        33.25421
655.46        33.30608
655.88        33.87589
656.31        34.12432
656.74        34.99617
657.16        34.35261
657.59        33.75872
658.02        33.62638
658.45        33.91456
658.87        33.53404
659.30        33.73175
659.73        33.61105
660.15         33.2399
660.58        33.78904
661.01        34.09594
661.44        34.41339
661.86        34.35497
662.29        33.99224
662.72         33.6656
663.14        33.49453
663.57         33.5615
664.00        33.79045
664.42        33.86525
664.85        33.76273
665.27        33.64333
665.70         33.6556
666.13        33.62385
666.55        33.66318
666.98        33.72288
667.41        33.79213
667.83        33.81829
668.26        33.79745
668.69        33.71358
669.11        33.59798
669.54        33.62939
669.96        33.84647
670.39         33.7393
670.82        34.07518
671.24        34.12639
671.67        34.10205
672.09        34.01839
672.52        33.92603
672.94        33.81015
673.37        33.71244
673.80        33.72997
674.22        33.84039
674.65        33.88137
675.07        33.84618
675.50        33.81168
675.92        33.79331
676.35        33.77015
676.77        33.73881
677.20        33.73568
677.62        33.77918
678.05        33.76871
678.47        33.68156
678.90        33.99538
679.32         33.8665
679.75        33.96352
680.17        34.03078
680.60        34.08932
681.02        34.12427
681.45        34.12957
681.87        34.11031
682.30        34.06004
682.72        34.01574
683.15        33.99135
683.57        33.95499
684.00        34.11494
684.42        33.87966
684.85        33.88496
685.27        33.94909
685.70        34.01615
686.12        34.04945
686.54        34.05214
686.97        34.02263
687.39        33.97408
687.82        33.93637
688.24         33.9448
688.66        33.99949
689.09        34.20181
689.51        34.27644
689.94        34.44256
690.36        34.58601
690.78        34.61002
691.21        34.53431
691.63        34.44733
692.06        34.39108
692.48        34.37468
692.90        34.38469
693.33        34.35801
693.75        34.29948
694.17        34.23481
694.60        34.16133
695.02        34.19013
695.44        34.17132
695.87        34.07737
696.29        33.93113
696.71        34.00179
697.14        34.24068
697.56        34.36734
697.98        34.36436
698.41        34.28104
698.83        34.39288
699.25        34.34763
699.68        34.24716
700.10        34.18823
700.52        34.18806
700.94        34.21623
701.37        34.25087
701.79        34.28902
702.21        34.31169
702.64        34.33109
703.06        34.34688
703.48        34.35926
703.90        34.37117
704.33        34.37696
704.75        34.38205
705.17        34.38201
705.59        34.37719
706.01        34.36823
706.44        34.36198
706.86        34.37609
707.28        34.40602
707.70        34.44606
708.12         34.4865
708.55        34.50625
708.97         34.4973
709.39        34.47338
709.81         34.4388
710.23        34.40427
710.66        34.37846
711.08        34.36359
711.50        34.36225
711.92        34.38694
712.34        34.43714
712.76        34.50722
713.19        34.57481
713.61        34.62934
714.03         34.6502
714.45        34.65108
714.87        34.64439
715.29        34.62669
715.71        34.59978
716.13        34.65332
716.56         34.6174
716.98        34.64562
717.40        34.68006
717.82        34.72266
718.24        34.76543
718.66        34.79732
719.08        34.81564
719.50        34.82041
719.92        34.81488
720.34         34.8041
720.76        34.79163
721.19        34.77413
721.61        34.76227
722.03        34.75606
722.45        34.75675
722.87        34.76303
723.29         34.7802
723.71        34.81548
724.13        34.86829
724.55        34.93611
724.97        35.00192
725.39        35.03903
725.81        35.04313
726.23        35.01978
726.65        34.99186
727.07        35.00628
727.49        35.07154
727.91        35.14745
728.33        35.21128
728.75         35.2859
729.17        35.33593
729.59        35.24203
730.01        35.05013
730.43        34.97105
730.85        35.03308
731.27        35.08617
731.69        35.11486
732.10        35.20843
732.52        35.40643
732.94        35.26401
733.36        34.89558
733.78        34.74394
734.20        34.85218
734.62        34.96963
735.04         35.0467
735.46        35.10883
735.88        35.14459
736.30        35.16357
736.72        35.14918
737.13        35.13174
737.55        35.10861
737.97        34.93188
738.39        34.70356
738.81        34.95079
739.23        35.53794
739.65        35.55828
740.06        35.05392
740.48        34.89993
740.90        35.10345
741.32        35.18786
741.74        35.12892
742.16        35.13909
742.57        35.22703
742.99        35.31953
743.41         35.4068
743.83        35.46248
744.25        35.47949
744.67        35.47199
745.08        35.46512
745.50        35.47244
745.92        35.50899
746.34        35.57065
746.75        35.63893
747.17        35.67811
747.59        35.68033
748.01        35.63644
748.42        35.57642
748.84        35.56283
749.26        35.58644
749.68        35.61457
750.09        35.62176
750.51        35.51518
750.93        35.35859
751.35        35.40869
751.76        35.64339
752.18        35.78297
752.60         35.8068
753.01        35.89022
753.43        35.99021
753.85        35.99544
754.27        35.89699
754.68         35.7197
755.10        35.53584
755.52        35.43714
755.93        35.44832
756.35         35.5573
756.77        35.69841
757.18        35.74041
757.60        35.64665
758.02        35.49073
758.43        35.39256
758.85        35.21451
759.26        35.54332
759.68        35.83787
760.10        35.74012
760.51        35.62931
760.93        35.87825
761.34        35.41635
761.76        35.67554
762.18        35.74529
762.59        35.94505
763.01        36.09256
763.42         35.7114
763.84        35.95798
764.26        36.00004
764.67        36.23476
765.09         36.3966
765.50        36.35493
765.92        36.17418
766.33        36.14725
766.75        36.27929
767.16        36.29282
767.58         36.1412
768.00        36.22435
768.41        36.48713
768.83        36.31817
769.24        35.74467
769.66        36.12519
770.07        35.87787
770.49        36.09204
770.90        36.22484
771.32          36.136
771.73        35.88701
772.15        35.83695
772.56        36.03074
772.97        36.23833
773.39        36.38512
773.80        36.50505
774.22        36.55585
774.63        36.53863
775.05        36.48071
775.46        36.46163
775.88        36.48635
776.29        36.54846
776.70        36.60591
777.12        36.59321
777.53        36.51222
777.95        36.39999
778.36        36.28361
778.77        36.20334
779.19        36.16501
779.60        36.14499
780.02        36.16698
780.43        36.24814
780.84        36.37325
781.26        36.63301
781.67        36.92478
782.09        36.78088
782.50        36.30081
782.91        36.11353
783.33        36.24764
783.74        36.30345
784.15        36.26738
784.57        36.42416
784.98        36.72783
785.39        36.91734
785.81         36.9554
786.22        36.91255
786.63        36.82996
787.04        36.78007
787.46        36.79259
787.87        36.82027
788.28        36.84546
788.70        36.84267
789.11        36.79091
789.52         36.7091
789.93        36.62215
790.35        36.56113
790.76         36.5491
791.17        36.58361
791.58        36.63567
792.00        36.68076
792.41        36.73416
792.82        36.69919
793.23        36.64852
793.65        36.90051
794.06         37.3517
794.47         37.4799
794.88         37.3478
795.29        37.17472
795.71        37.53667
796.12        37.66627
796.53        37.68193
796.94        37.72498
797.35        37.75562
797.76        37.57659
798.18        37.26246
798.59        37.09377
799.00        37.10827
799.41        37.18586
799.82        37.26451
800.23         37.2813
800.64        37.21024
801.06         37.0665
801.47        36.91739
801.88        36.81727
802.29        36.79117
802.70        36.82209
803.11        36.89839
803.52        36.99938
803.93        37.10563
804.34        37.21419
804.75        37.32138
805.17        37.39136
805.58        37.42855
805.99        37.49801
806.40        37.56961
806.81        37.42354
807.22        37.14311
807.63         37.1311
808.04        37.37086
808.45         37.4793
808.86        37.42899
809.27         37.4495
809.68        37.54755
810.09        37.61557
810.50        37.64758
810.91         37.6732
811.32        37.68563
811.73          37.677
812.14        37.64879
812.55        37.59499
812.96        37.54325
813.37        37.54475
813.78        37.60616
814.19        37.71205
814.60        37.81254
815.01        37.82845
815.42        37.74691
815.83        37.59549
816.24        37.42896
816.65        37.35089
817.05        37.40089
817.46        37.52804
817.87        37.71043
818.28        37.89186
818.69        38.04996
819.10        38.19781
819.51        38.32125
819.92        38.39384
820.33        38.40775
820.74        38.36042
821.14        38.27407
821.55        38.20875
821.96        38.17114
822.37        38.15697
822.78        38.14254
823.19        38.08447
823.60          37.971
824.00         37.8147
824.41        37.64915
824.82        37.54743
825.23        37.52974
825.64        37.59221
826.04        37.67614
826.45         37.6568
826.86        37.52612
827.27        37.31701
827.68        37.14815
828.08        37.23419
828.49        37.55802
828.90        38.09879
829.31        38.71685
829.72        39.01411
830.12        38.89346
830.53        39.15527
830.94        38.57214
831.35        38.30191
831.75        38.02792
832.16        37.74119
832.57        37.52238
832.97         37.5232
833.38        37.76187
833.79        38.18833
834.20        38.64682
834.60        38.89217
835.01        38.86543
835.42        38.63224
835.82        38.32049
836.23        38.14682
836.64        38.18221
837.04        38.35968
837.45        38.57676
837.86        38.70926
838.26        38.72105
838.67        38.65348
839.08         38.5342
839.48        38.38744
839.89        38.23477
840.29        38.05998
840.70        37.91668
841.11        37.87365
841.51        37.95076
841.92        38.10979
842.33        38.29793
842.73        38.41984
843.14        38.41785
843.54        38.34347
843.95        38.22909
844.35        38.13915
844.76        38.09578
845.17        38.07175
845.57        38.09605
845.98        38.19444
846.38        38.38223
846.79        38.64308
847.19        38.91252
847.60        39.02364
848.00        38.96586
848.41        38.75262
848.81        38.53358
849.22        38.54495
849.62        38.85479
850.03        39.35246
850.43        39.87114
850.84         40.0606
851.24        39.87774
851.65        39.37737
852.05         38.7654
852.46        38.38575
852.86        38.34566
853.27        38.57575
853.67        38.85834
854.07        38.96948
854.48        38.84155
854.88        38.55459
855.29        38.22952
855.69        38.16558
856.10        38.38468
856.50        38.84419
856.90        39.31138
857.31         39.4385
857.71        39.17157
858.12        38.59713
858.52        37.92337
858.92        37.49233
859.33        37.41012
859.73        37.61194
860.13        37.97137
860.54        38.26435
860.94        38.45387
861.34        38.56562
861.75        38.62287
862.15        38.71735
862.55        38.83343
862.96        38.90646
863.36        38.90379
863.76        38.75077
864.17        38.45222
864.57        38.08315
864.97        37.68005
865.38        37.27795
865.78        36.93275
866.18        36.65405
866.58        36.59195
866.99        36.94132
867.39        37.71066
867.79        38.79406
868.19        39.88887
868.60        40.45893
869.00        40.53998
869.40        40.57467
869.80        40.56907
870.21        40.20084
870.61        39.54878
871.01        38.87673
871.41        38.32212
871.81        37.92434
872.22        37.76676
872.62        37.84653
873.02         38.0908
873.42         38.6454
873.82        39.12551
874.22        38.66127
874.63        37.76489
875.03        37.47604
875.43        37.93478
875.83        40.29298
876.23        39.73475
876.63        38.71863
877.03        36.73912
877.44        32.86587
877.84        220.3106
878.24        33.97236
878.64        35.22662
879.04        37.86107
879.44        38.83297
879.84        33.26287
880.24        42.21383
880.64         42.8968
881.04        39.15654
881.44        36.23728
881.84        35.04374
882.24        35.78888
882.65        37.59686
883.05        38.23079
883.45        37.29417
883.85        36.20843
884.25        35.50661
884.65        35.33296
885.05        35.79871
885.45        36.69884
885.85        37.65485
886.25        38.17587
886.65        38.14874
887.05        37.75946
887.45        37.15357
887.85        36.57811
888.25        36.16226
888.65        35.82178
889.04        35.69603
889.44        36.03064
889.84        36.79295
890.24        37.87939
890.64        38.93808
891.04        39.44725
891.44        39.31731
891.84        38.70575
892.24        37.88614
892.64        37.35472
893.04         37.2796
893.44         37.5162
893.83        37.96348
894.23        38.41089
894.63        38.80456
895.03        39.23513
895.43        39.65054
895.83        39.94101
896.23        40.09232
896.63        40.09251
897.02        40.07985
897.42         40.3178
897.82         40.8146
898.22        41.47256
898.62        42.07514
899.01        42.27078
899.41        41.96482
899.81        41.29969
900.21        40.45344
900.61        39.71941
901.00        39.19852
901.40        38.89522
901.80         38.8291
902.20        38.76395
902.59        38.61423
902.99        38.93203
903.39        39.80952
903.79        38.57211
904.18        39.67336
904.58         39.5015
904.98        39.36766
905.38        39.14034
905.77        38.84459
906.17        38.50123
906.57        38.14352
906.96        37.96936
907.36        38.02274
907.76        38.27193
908.15         38.6688
908.55        39.00335
908.95        39.24333
909.34        39.36563
909.74         39.4559
910.14        39.61136
910.53        39.84235
910.93        40.09999
911.33        40.22358
911.72        39.96291
912.12        39.31117
912.52        38.39845
912.91        37.48179
913.31        37.03151
913.70        37.12783
914.10        37.63551
914.49        38.35572
914.89        38.88549
915.29        39.09634
915.68        39.07116
916.08        38.90743
916.47        38.71449
916.87         38.5789
917.26        38.46214
917.66        38.36494
918.05        38.31504
918.45         38.3088
918.84        38.35928
919.24        38.50298
919.64        38.83826
920.03        39.34452
920.42        39.93203
920.82        40.44049
921.21         40.6347
921.61        40.51577
922.00        40.26982
922.40        40.08522
922.79        40.03595
923.19        39.55706
923.58        40.08276
923.98        42.33701
924.37        42.22959
924.77        37.40234
925.16        51.33276
925.55         41.2846
925.95        42.28616
926.34        42.20703
926.74         40.8533
927.13        38.30838
927.52        36.81403
927.92        37.28585
928.31        38.52325
928.70        40.11037
929.10        41.35316
929.49        42.07718
929.89        42.54507
930.28        42.65525
930.67        42.15037
931.07        41.10208
931.46         39.4078
931.85        37.66596
932.24        37.64273
932.64        39.60952
933.03        42.01945
933.42        43.44668
933.82        47.51604
934.21        44.89007
934.60         42.8811
934.99        40.82283
935.39        40.38093
935.78        41.59403
936.17        45.07568
936.56         55.8384
936.96        43.97404
937.35         50.2533
937.74        44.48708
938.13        40.24903
938.53        36.92512
938.92        35.83552
939.31        37.83328
939.70           40.72
940.09        42.29913
940.49        42.07138
940.88        40.78868
941.27        39.12671
941.66         38.3163
942.05        38.79721
942.44        40.01243
942.84         41.3144
943.23        42.00482
943.62        41.86782
944.01         41.1466
944.40        40.30429
944.79        40.08215
945.18        40.66387
945.57        41.80167
945.97        42.90796
946.36        43.19628
946.75        42.45141
947.14        40.93784
947.53        39.27426
947.92        38.51948
948.31        38.95269
948.70        40.21632
949.09        41.69503
949.48        42.44635
949.87        42.23774
950.26        41.38754
950.65        40.28566
951.04        39.56086
951.43        39.42554
951.82        39.66352
952.21        40.12221
952.60        40.55902
952.99        40.84459
953.38        41.05973
953.77        41.19777
954.16        41.21655
954.55         41.1446
954.94        41.01955
955.33         40.8559
955.72        40.71653
956.11        40.63776
956.50        40.56525
956.89        40.68585
957.28        41.27545
957.66        42.35953
958.05        43.76526
958.44        45.00419
958.83        45.34131
959.22        44.63673
959.61        43.01542
960.00        41.12133
960.39        40.22514
960.78        40.69746
961.16        42.21481
961.55        43.79011
961.94        44.21175
962.33        43.26464
962.72        41.29042
963.11        39.07082
963.49        38.19106
963.88        39.17907
964.27        41.39279
964.66        43.87105
965.04         45.3357
965.43        45.43746
965.82        44.64196
966.21        43.35862
966.60        42.31203
966.98          41.793
967.37        41.54988
967.76          41.541
968.15        41.72343
968.53        42.05428
968.92        42.63492
969.31        43.22971
969.69        43.38745
970.08        43.00673
970.47        42.12999
970.86        41.21724
971.24        41.10213
971.63        41.91847
972.02        43.37694
972.40        44.82651
972.79         45.1915
973.17        44.33969
973.56        42.62915
973.95        40.69132
974.33        39.65982
974.72        39.91283
975.11        41.04719
975.49        42.70581
975.88        44.22013
976.26        45.37675
976.65        46.30257
977.04        46.89037
977.42        46.92838
977.81        46.40549
978.19        45.24977
978.58        44.12555
978.96        44.15826
979.35        45.51276
979.74        47.69146
980.12        49.87973
980.51        50.82437
980.89        50.50081
981.28        49.18582
981.66        47.22058
982.05        45.71064
982.43        45.10167
982.82        45.19217
983.20        45.76791
983.59        46.45373
983.97        47.11639
984.35        47.85319
984.74        48.47417
985.12        48.65307
985.51        48.31785
985.89        47.65956
986.28        46.88718
986.66        46.43377
987.04         46.4764
987.43        46.76667
987.81        46.87672
988.20        48.51225
988.58         51.7641
988.96        52.24002
989.35        48.80996
989.73        58.51569
990.12        52.77105
990.50        53.43167
990.88        52.85297
991.27        52.14458
991.65         51.2182
992.03        50.37064
992.42          49.895
992.80        49.20707
993.18        48.32804
993.56        47.48955
993.95        46.84998
994.33        46.55726
994.71        46.68966
995.10        47.18867
995.48        47.96686
995.86        48.89683
996.24        49.87375
996.63        50.75374
997.01        51.64602
997.39        52.55502
997.77        53.40641
998.15        54.12838
998.54        54.55472
998.92        54.31136
999.30        53.40313
999.68        52.01139
1000.06        50.42069
1000.45        49.20767
1000.83        48.75281
1001.21         48.9277
1001.59        49.81863
1001.97        51.46517
1002.35        53.60095
1002.73        56.00542
1003.12        58.08691
1003.50        59.21677
1003.88        59.29414
1004.26        58.47179
1004.64        57.13438
1005.02        56.16358
1005.40        55.91516
1005.78        56.17143
1006.16        56.62911
1006.54        56.68974
1006.92         56.2267
1007.30        55.61872
1007.69        54.94136
1008.07        54.35219
1008.45         53.8921
1008.83        53.38946
1009.21        53.32396
1009.59        54.63395
1009.97        57.17487
1010.35        60.23402
1010.73        62.75414
1011.11        63.98036
1011.49        64.09273
1011.86        62.83141
1012.24        60.21877
1012.62        62.03862
1013.00        63.59091
1013.38        64.12066
1013.76        61.21477
1014.14        68.36469
1014.52        78.28028
1014.90        66.51585
1015.28        68.44421
1015.66        70.23502
1016.04        63.61483
1016.41        62.78147
1016.79        60.22083
1017.17        59.43082
1017.55        59.52775
1017.93        60.76245
1018.31        63.00991
1018.69        64.90015
1019.06        66.09672
1019.44         66.8894
1019.82        67.07434
1020.20        66.28467
1020.58        64.49832
1020.95        61.36444
1021.33        57.92404
1021.71        57.08532
1022.09        59.91475
1022.46        64.79635
1022.84        69.30378
1023.22        71.83212
1023.60        72.54549
1023.97        72.08606
1024.35         70.8718
1024.73        69.71581
