SpectraSmart Spectrum 2.9.0.0
--------- Device Information -----------
Spectrum Name :  反射率_0
Saving Time :  2024/04/21 00:16:38
Spectro-Module Model Name : SE2030-DUVN
Spectro-Module Serial Number : OS361AC55029948
Wavelength Start : 200
Wavelength End : 1025
Wavelength Unit : Wavelength(nm)
Spectrum Unit : Reflectance(%)
-----------Spectrum Setting ------------
Integration Time : 20ms
Average : 10
Boxcar : 0
Background removal :  enabled
linearity correction :  enabled
SC :  disabled
Intensity correction :  disabled
DWT denoise :  enabled
savitzky-golay :  disabled
FFT :  disabled
Running average :  disabled
Kalman :  disabled
High pass :  disabled
---------------BEGIN--------------------
Wavelength(nm)             Reflectance(%)
200.29               0
200.75       -36.07957
201.21        5.463665
201.67         28.3117
202.13        35.50785
202.58        33.09124
203.04        24.59249
203.50        13.20821
203.96        8.058984
204.42        12.88139
204.88        23.03264
205.34        33.69971
205.80        38.68474
206.26        36.30494
206.72        29.27452
207.18        15.78987
207.64       -6.156379
208.10       -32.17236
208.55       -60.16471
209.01       -67.70316
209.47       -34.57706
209.93        7.075087
210.39        39.38693
210.85        59.42508
211.31        67.57529
211.77        67.09737
212.23        58.86972
212.69        39.20452
213.14          5.4203
213.60       -47.73925
214.06       -182.4659
214.52       -438.2885
214.98       -143.1329
215.44        1.959744
215.90        46.45826
216.36        60.11956
216.81        60.47945
217.27        49.52609
217.73         -5.9672
218.19        668.9621
218.65        317.1476
219.11       -592.8512
219.57        7.140885
220.02        45.62997
220.48        52.80875
220.94        49.70587
221.40        36.22486
221.86        1.394954
222.32       -29.01048
222.77       -6.289958
223.23        17.42845
223.69        30.29984
224.15        35.17163
224.61        35.87653
225.06        35.26259
225.52        33.14602
225.98        28.41001
226.44        21.27177
226.90         10.9657
227.36        2.633026
227.81        6.057654
228.27        17.66005
228.73        30.37285
229.19        38.83246
229.65        40.41512
230.10        36.19099
230.56        27.79162
231.02        16.73842
231.48        9.380846
231.93        10.20001
232.39         16.7056
232.85        24.04703
233.31        28.17676
233.77        29.28448
234.22        29.13912
234.68        28.30437
235.14        27.69273
235.60        27.97607
236.05        28.05978
236.51         27.8749
236.97        32.70925
237.43        42.58241
237.88        48.64459
238.34        47.47808
238.80         66.1804
239.26        57.22181
239.71        55.44468
240.17        48.64091
240.63        43.10788
241.08        43.27964
241.54        51.94118
242.00        66.58677
242.46        76.12631
242.91        77.98322
243.37        71.99816
243.83        60.27023
244.28        53.44054
244.74        57.77431
245.20        67.95439
245.66        77.86528
246.11         81.4985
246.57        78.31863
247.03        70.88984
247.48        60.32261
247.94        47.94469
248.40        31.38347
248.85       -5.782708
249.31       -114.4127
249.77       -184.8407
250.22       -13.05081
250.68        54.91671
251.14        76.16623
251.59         82.2943
252.05        82.88788
252.51         79.7387
252.96        73.41873
253.42        68.76028
253.88        69.39294
254.33        73.17873
254.79        78.34788
255.25        81.63839
255.70        82.66242
256.16        83.13849
256.62        83.33555
257.07        83.40229
257.53        83.79447
257.99        83.91531
258.44        83.11944
258.90        81.74291
259.35        79.39679
259.81        76.97459
260.27        74.64028
260.72        72.69497
261.18         71.5504
261.63          70.607
262.09        69.86279
262.55         68.7559
263.00        67.17766
263.46          65.535
263.91        63.88071
264.37        62.81875
264.83        62.24694
265.28        61.89482
265.74        61.59669
266.19        60.85266
266.65         59.7002
267.11        58.24248
267.56        56.63935
268.02         55.2471
268.47        54.09343
268.93        53.10677
269.38        52.16612
269.84        51.16765
270.30         50.0559
270.75        48.88348
271.21        47.69434
271.66        46.46597
272.12        45.25476
272.57        44.04176
273.03        42.90396
273.48        41.88651
273.94        41.03022
274.39        40.28493
274.85        39.64227
275.31         38.9998
275.76        38.32571
276.22        37.68364
276.67        37.08612
277.13        36.65868
277.58        36.34579
278.04        36.12579
278.49        35.86895
278.95        35.50743
279.40        34.97278
279.86        34.35466
280.31          33.651
280.77        32.96724
281.22        32.30061
281.68        31.70704
282.13        31.16444
282.59        30.73289
283.04        30.38522
283.50        30.13815
283.95        29.98673
284.41        29.96269
284.86        30.03546
285.32        30.20422
285.77        30.37018
286.22        30.42644
286.68        30.37698
287.13        30.20933
287.59         30.0689
288.04        30.06278
288.50          30.198
288.95        30.53646
289.41        31.00413
289.86        31.03222
290.32        30.54255
290.77        31.33625
291.22         30.5823
291.68        30.82217
292.13        31.23342
292.59        31.86558
293.04        32.66943
293.50        33.63704
293.95        34.76171
294.40        36.02234
294.86        37.40255
295.31        38.86202
295.77        40.37795
296.22        41.92326
296.68        43.49266
297.13        45.07354
297.58        46.68684
298.04        48.34438
298.49        50.05708
298.95        51.86663
299.40        53.75123
299.85        55.69459
300.31        57.67054
300.76        59.60537
301.21        61.48746
301.67        63.35358
302.12        65.17896
302.58        67.05544
303.03        68.96336
303.48        70.93501
303.94        72.96344
304.39        74.97215
304.84        76.95206
305.30        78.93001
305.75        80.87486
306.20        82.86581
306.66         84.9071
307.11         86.9049
307.57        88.82885
308.02        90.54393
308.47        92.06551
308.93        93.44814
309.38        94.68952
309.83        95.94145
310.29        97.26807
310.74        98.35672
311.19        99.64389
311.65        100.7761
312.10        101.8526
312.55         102.878
313.00        103.8394
313.46        104.7071
313.91        105.4576
314.36        106.1161
314.82        106.7152
315.27        107.2965
315.72        107.8854
316.18        108.4725
316.63        109.0489
317.08        109.6004
317.53        110.1155
317.99        110.5938
318.44        111.0287
318.89        111.3929
319.35        111.6824
319.80        111.9152
320.25        112.1105
320.70        112.3083
321.16        112.5122
321.61        112.7294
322.06        112.9529
322.51        113.1783
322.97        113.3852
323.42        113.6174
323.87        113.8406
324.32         114.018
324.78        114.1243
325.23        114.2063
325.68        114.2909
326.13        114.4582
326.59        114.6954
327.04        115.0356
327.49          115.39
327.94        115.6465
328.39        115.7785
328.85          115.79
329.30        115.8145
329.75        115.9311
330.20        116.1755
330.66        116.4782
331.11         116.878
331.56        117.2853
332.01        117.6796
332.46        118.0874
332.92        118.4523
333.37        118.8341
333.82        119.1884
334.27        119.5114
334.72         119.861
335.17        120.3428
335.63        120.9381
336.08        121.6746
336.53        122.4287
336.98        123.0462
337.43        123.4809
337.88        123.7736
338.34        123.9663
338.79        124.2007
339.24        124.4994
339.69        124.8438
340.14        125.2237
340.59        125.6255
341.05        126.0416
341.50         126.482
341.95        126.9596
342.40        127.4917
342.85        128.0659
343.30         128.665
343.75        129.2058
344.20        129.5694
344.66        129.7469
345.11        129.7534
345.56        129.7101
346.01        129.8118
346.46        130.1062
346.91        130.5072
347.36          130.88
347.81        131.1123
348.26        131.1821
348.72        130.7877
349.17        130.6834
349.62          130.53
350.07        130.5704
350.52        130.7269
350.97        130.9127
351.42         130.977
351.87        130.8674
352.32        130.6337
352.77        130.3353
353.22        130.0577
353.67        129.8227
354.13        129.6165
354.58        129.3622
355.03             129
355.48        128.5213
355.93        127.9558
356.38        127.3743
356.83        126.8775
357.28        126.4718
357.73        126.1092
358.18        125.7031
358.63        125.1226
359.08        124.3439
359.53        123.4241
359.98         122.428
360.43         121.447
360.88        120.5133
361.33        119.6036
361.78        118.7253
362.23        117.8903
362.68        117.0983
363.13        116.3568
363.58        115.6248
364.03        114.8296
364.48         113.953
364.93        113.0045
365.38        112.0414
365.83        111.1639
366.28        110.3937
366.73        109.7017
367.18        109.0176
367.63        108.2312
368.08        107.3233
368.53         106.338
368.98        105.3432
369.43        104.4305
369.88        103.6167
370.33        102.8678
370.78        102.1401
371.23        101.3771
371.68        100.5735
372.13        99.75839
372.58        98.97504
373.03        98.27137
373.48        97.64988
373.93        97.08999
374.38        96.54508
374.83        95.95353
375.28         95.3055
375.72        94.59872
376.17        93.91623
376.62        93.29421
377.07        92.72668
377.52        92.18628
377.97        91.62327
378.42        90.97442
378.87        90.25491
379.32        89.52017
379.77        88.82729
380.22         88.2369
380.67        87.74747
381.11        87.32531
381.56        86.95052
382.01        86.61687
382.46         86.3148
382.91        86.05132
383.36        85.75519
383.81        85.31651
384.26        84.72295
384.71        84.00468
385.15        83.26955
385.60        82.75711
386.05         82.4809
386.50        82.37315
386.95        82.29205
387.40        82.01797
387.85        81.51465
388.29        80.82272
388.74        80.16164
389.19         79.6174
389.64        79.21056
390.09        78.88577
390.54        78.59909
390.98        78.27432
391.43        77.93796
391.88        77.60579
392.33        77.29572
392.78        77.02285
393.23        76.78522
393.67        76.53822
394.12        76.34472
394.57        76.09707
395.02        75.79059
395.47        75.47965
395.91        75.18688
396.36        74.87861
396.81        74.58516
397.26         74.3593
397.71        74.17437
398.15        73.93973
398.60        73.72825
399.05         73.4565
399.50        73.19645
399.95        73.13654
400.39        73.23041
400.84        73.21662
401.29        73.03563
401.74        72.63061
402.18        72.09755
402.63        71.76353
403.08        71.61021
403.53         71.2856
403.97        70.79182
404.42         70.3866
404.87        70.11966
405.32          69.973
405.76         69.9425
406.21        70.02927
406.66        70.12935
407.11        70.13535
407.55        70.01465
408.00        69.64361
408.45        69.16123
408.90        68.92965
409.34        68.96709
409.79        69.03829
410.24        69.04484
410.68        68.97974
411.13        68.81429
411.58        68.52107
412.03        68.16988
412.47        67.94381
412.92        67.86461
413.37        67.88463
413.81        67.94392
414.26        68.00893
414.71        68.03616
415.15        68.05993
415.60        68.03166
416.05        67.92596
416.49        67.74927
416.94        67.50467
417.39        67.24834
417.83         67.0602
418.28        66.95993
418.73        66.92125
419.17        66.90744
419.62        66.86548
420.07        66.77933
420.51          66.662
420.96          66.544
421.41        66.43816
421.85        66.32959
422.30        66.20688
422.74        66.06494
423.19        66.11173
423.64         66.2766
424.08        66.30373
424.53        66.14075
424.98        66.07174
425.42        66.12341
425.87        66.08679
426.31        65.99026
426.76        66.02144
427.21        66.15926
427.65        66.22755
428.10        66.16096
428.54         66.1846
428.99        66.03963
429.44        65.93853
429.88        65.78051
430.33        65.58181
430.77        65.33839
431.22        65.27592
431.66        65.33447
432.11        65.32336
432.56        65.25621
433.00        65.10902
433.45        64.76853
433.89        64.72337
434.34        65.07536
434.78        64.37382
435.23        64.38567
435.67        65.13448
436.12        65.24509
436.57         65.3082
437.01        64.98071
437.46        64.67735
437.90        65.07175
438.35        65.71638
438.79         65.6665
439.24        65.74413
439.68         65.6512
440.13        65.31232
440.57        64.85188
441.02        64.92144
441.46        65.42072
441.91        65.33936
442.35        64.81621
442.80        65.26064
443.24        66.40083
443.69        66.63662
444.13        65.95753
444.58        65.58713
445.02        65.58375
445.47        65.67014
445.91        65.75079
446.36        65.71667
446.80        65.54716
447.24        65.34771
447.69        65.18668
448.13        65.26254
448.58        65.34608
449.02        65.27274
449.47        65.03252
449.91        64.95985
450.36         65.0807
450.80        65.11914
451.25        65.07549
451.69         65.1151
452.13        65.17876
452.58        64.95814
453.02         64.5066
453.47        64.19653
453.91        64.04986
454.36        63.89222
454.80        63.71687
455.24        63.57428
455.69        63.47363
456.13        63.39642
456.58        63.36801
457.02        63.17702
457.46        63.18638
457.91        62.90995
458.35        62.63826
458.79        62.46189
459.24         62.4306
459.68        62.47429
460.13        62.59021
460.57        62.49406
461.01        62.16811
461.46         62.4406
461.90        61.96072
462.34        61.66018
462.79        61.90326
463.23        61.09895
463.68        61.77647
464.12        61.50154
464.56         61.1017
465.01        61.22168
465.45        61.63798
465.89         61.6981
466.34        61.40271
466.78        60.92672
467.22        60.39281
467.67        60.62379
468.11        60.48761
468.55        60.53579
468.99        60.39416
469.44        60.31851
469.88        60.28572
470.32        60.14073
470.77        59.91777
471.21        59.69942
471.65        59.56115
472.10        59.43727
472.54         59.3195
472.98        59.19847
473.42        59.07925
473.87        58.95593
474.31        58.83563
474.75        58.88691
475.20        59.04308
475.64        59.07842
476.08        59.01485
476.52        58.93917
476.97        58.80538
477.41        59.06496
477.85        59.02908
478.29         58.5827
478.74        58.28429
479.18        58.23174
479.62        58.51412
480.06        58.61658
480.50        58.50319
480.95        58.51256
481.39        58.61861
481.83        58.68023
482.27        58.73717
482.72        58.84188
483.16        58.79361
483.60        58.89904
484.04        59.00521
484.48        58.65422
484.93        58.52119
485.37        58.34217
485.81         58.9217
486.25        58.41672
486.69        60.26361
487.14        60.37014
487.58        59.47134
488.02        58.62074
488.46        58.19919
488.90        58.21696
489.34        57.76824
489.79        57.31961
490.23        57.99601
490.67        58.21019
491.11        58.30485
491.55        58.15892
491.99        57.87024
492.43         57.7087
492.88        57.70077
493.32        57.70407
493.76        57.65308
494.20        57.64399
494.64        57.69291
495.08        57.40167
495.52        57.39082
495.96         57.4533
496.41        57.67372
496.85        57.62325
497.29        57.29711
497.73        57.28654
498.17        57.28931
498.61        57.27088
499.05        57.13545
499.49        57.12248
499.93        57.23429
500.37        57.21943
500.82        57.08347
501.26        57.20755
501.70        57.49657
502.14         57.1334
502.58        56.70018
503.02        56.38751
503.46        56.52569
503.90        56.65571
504.34        56.74379
504.78        56.80706
505.22        56.83193
505.66        56.74559
506.10        56.57766
506.54        56.57538
506.98         56.7925
507.42        56.30158
507.86        56.86442
508.30        56.47656
508.74        56.56782
509.18        56.37035
509.62        56.21068
510.06        56.14932
510.50        56.17382
510.94        56.19886
511.38        56.18801
511.82        56.17331
512.26        56.14371
512.70        56.07627
513.14        55.98317
513.58         55.9023
514.02        55.84425
514.46         55.7945
514.90        55.75219
515.34        55.76396
515.78        55.83413
516.22        55.90225
516.66        55.79417
517.10        56.10833
517.54         55.8456
517.98        55.79576
518.42        55.69693
518.86        55.62811
519.30        55.60186
519.74        55.57195
520.18        55.55439
520.62         55.6351
521.06        55.76757
521.50        55.75331
521.93        55.60375
522.37        55.51351
522.81        55.49705
523.25        55.44157
523.69        55.35371
524.13        55.29677
524.57        55.27606
525.01        55.27704
525.45        55.29464
525.89        55.31831
526.32        55.34048
526.76        55.36755
527.20        55.39573
527.64        55.42146
528.08        55.44205
528.52        55.45757
528.96        55.46627
529.40        55.46025
529.83        55.43794
530.27        55.42899
530.71        55.42326
531.15        55.40237
531.59        55.36691
532.03        55.32691
532.46        55.28882
532.90         55.2752
533.34        55.28329
533.78        55.30495
534.22        55.32327
534.66        55.31203
535.09        55.25928
535.53         55.1951
535.97        55.11942
536.41        55.04783
536.85        54.98767
537.28        54.93346
537.72        54.89849
538.16        54.90447
538.60        54.94998
539.04        55.02932
539.47        55.09571
539.91        55.12381
540.35        55.09186
540.79        55.01382
541.22        54.92316
541.66        54.88852
542.10        54.91903
542.54        54.99089
542.97        55.06297
543.41        55.10005
543.85        55.08546
544.29        55.04546
544.72        54.98508
545.16        54.95023
545.60        54.94198
546.04        54.91408
546.47        54.89342
546.91        54.99454
547.35        55.17824
547.79        55.28331
548.22        55.26061
548.66        55.19388
549.10        55.09662
549.53        54.93766
549.97        54.77282
550.41        54.67226
550.84        54.64217
551.28        54.71436
551.72        54.85772
552.15        54.86847
552.59        54.70343
553.03        54.94464
553.46        54.69373
553.90        54.63674
554.34        54.48778
554.77        54.60363
555.21        54.41445
555.65        54.45361
556.08        54.54681
556.52        54.70233
556.96        54.84754
557.39        54.89921
557.83        54.84998
558.27         54.6786
558.70        54.46998
559.14        54.37679
559.57        54.41179
560.01        54.61149
560.45        54.84826
560.88        54.79218
561.32        54.52937
561.75        54.37183
562.19        54.39473
562.63         54.4689
563.06        54.54171
563.50        54.54482
563.93        54.46377
564.37        54.38442
564.80        54.33086
565.24        54.41594
565.68        54.60471
566.11        54.70135
566.55        54.70539
566.98        54.77736
567.42        54.90914
567.85        54.83548
568.29        54.65129
568.72        54.68171
569.16        54.96918
569.60        55.03304
570.03         55.1242
570.47        55.31685
570.90        55.49306
571.34        55.40379
571.77        55.87874
572.21        55.38981
572.64        55.52857
573.08        55.61872
573.51        55.33382
573.95        55.73604
574.38        55.65271
574.82        56.26226
575.25         56.1381
575.69        55.95224
576.12         55.3776
576.56        55.72332
576.99        55.85066
577.42        56.07922
577.86        55.93344
578.29        56.55932
578.73        56.95895
579.16        56.34509
579.60        55.64014
580.03        55.64922
580.47        55.88694
580.90        55.85767
581.33        56.32139
581.77        56.16565
582.20        56.85349
582.64         56.8912
583.07        56.64988
583.51         56.2234
583.94        55.87877
584.37        55.39436
584.81        55.12283
585.24        55.35673
585.68        56.33375
586.11        55.85492
586.54         56.2661
586.98        55.70368
587.41        55.46879
587.85        55.87416
588.28        55.82704
588.71        55.58405
589.15        55.61543
589.58        55.21275
590.01        55.58924
590.45        54.88001
590.88        55.16835
591.31        54.72981
591.75        54.75621
592.18         54.7455
592.61        54.89492
593.05        55.47379
593.48        55.59908
593.91        55.98743
594.35        55.68081
594.78        55.21196
595.21        54.96509
595.65        54.99436
596.08        55.36372
596.51        55.25681
596.94        55.05782
597.38        54.87988
597.81        54.83217
598.24        55.23046
598.68        55.07528
599.11        54.75074
599.54        55.24564
599.97        55.05243
600.41        54.97926
600.84        55.34734
601.27        55.06168
601.70        55.15606
602.14        54.74834
602.57        54.75217
603.00        54.92145
603.43        55.32909
603.87         55.3047
604.30        55.03801
604.73        54.92204
605.16        54.45478
605.60        54.85429
606.03        55.05208
606.46        55.31019
606.89        54.91801
607.32        54.59718
607.76          55.158
608.19         54.8831
608.62         54.9223
609.05         55.5551
609.48        54.92426
609.92        54.77443
610.35        54.79431
610.78        54.91948
611.21        54.69311
611.64        54.71889
612.07        54.63222
612.50        54.64902
612.94        54.61199
613.37        54.53537
613.80        54.58627
614.23          54.538
614.66        54.42584
615.09        54.22915
615.52        54.19876
615.96        54.31813
616.39        54.31395
616.82        54.16545
617.25        54.22737
617.68        54.12725
618.11        54.05997
618.54        54.07473
618.97        53.95359
619.40         53.7472
619.84        53.86232
620.27        53.78299
620.70         53.8433
621.13        53.89072
621.56        53.79987
621.99        53.89574
622.42        53.95674
622.85        54.05237
623.28        53.93449
623.71        53.87741
624.14        53.95274
624.57        53.92318
625.00        54.22969
625.43        53.82485
625.86        53.89745
626.29        54.19192
626.72        53.80113
627.15        53.96644
627.58        53.86296
628.01        53.92366
628.44        53.64902
628.87        53.70428
629.30        53.79593
629.73        53.82903
630.16        53.62224
630.59        53.53856
631.02        53.71283
631.45        53.49216
631.88        53.48151
632.31        53.47184
632.74        53.21241
633.17        53.26124
633.60        53.19379
634.03         53.1848
634.46        53.25634
634.89        53.31208
635.32        53.39808
635.75        53.46928
636.18        53.53334
636.61        53.57652
637.04        53.58248
637.47        53.55113
637.89        53.49208
638.32        53.41086
638.75        53.34225
639.18        53.29682
639.61         53.2694
640.04        53.25734
640.47        53.25299
640.90        53.25246
641.33        53.25994
641.76        53.26812
642.18        53.26987
642.61        53.25125
643.04        53.21838
643.47        53.18409
643.90        53.17612
644.33        53.19892
644.76        53.22934
645.18        53.25237
645.61        53.27103
646.04        53.26482
646.47         53.1724
646.90        53.02931
647.33        52.95715
647.75        52.96806
648.18        53.03159
648.61        53.13405
649.04        53.19775
649.47         53.1949
649.89        53.43499
650.32        53.34159
650.75        53.43874
651.18        53.51502
651.61        53.44321
652.03         53.2557
652.46        53.09523
652.89        53.06084
653.32         53.1599
653.74        53.30251
654.17        53.47271
654.60        53.11515
655.03        52.70288
655.46        52.70267
655.88        53.45861
656.31        54.95029
656.74        60.17556
657.16        59.21005
657.59        57.53927
658.02        55.16239
658.45        54.03441
658.87        53.40406
659.30         53.6537
659.73        53.21449
660.15        52.66061
660.58        53.12122
661.01        53.34523
661.44        53.61323
661.86        53.54384
662.29        53.19221
662.72         52.9603
663.14        52.92085
663.57        52.95289
664.00         53.0224
664.42        53.08001
664.85        53.11701
665.27        53.08319
665.70        53.16079
666.13        53.20474
666.55        53.26861
666.98        53.33952
667.41         53.3882
667.83        53.37779
668.26        53.31203
668.69        53.15784
669.11        52.96022
669.54        52.97109
669.96        53.24746
670.39        53.03481
670.82        53.54296
671.24        53.55625
671.67        53.44524
672.09        53.39485
672.52        53.43842
672.94        53.35038
673.37        53.17594
673.80        53.17488
674.22        53.33231
674.65        53.38951
675.07        53.34286
675.50        53.30991
675.92        53.30558
676.35         53.2844
676.77        53.24683
677.20        53.22573
677.62        53.23752
678.05        53.21503
678.47        53.14312
678.90         53.3563
679.32         53.2646
679.75        53.35849
680.17        53.45554
680.60        53.56442
681.02        53.64988
681.45        53.66749
681.87        53.61888
682.30        53.49317
682.72        53.35582
683.15        53.31131
683.57        53.33652
684.00        53.46698
684.42        53.28286
684.85        53.31261
685.27        53.41832
685.70        53.51574
686.12        53.56143
686.54        53.56707
686.97        53.52354
687.39        53.45142
687.82        53.38025
688.24        53.33654
688.66        53.31624
689.09        53.51918
689.51         53.5226
689.94        53.64978
690.36        53.75011
690.78        53.77741
691.21        53.74519
691.63        53.67988
692.06         53.6338
692.48        53.69193
692.90         53.8224
693.33          53.858
693.75        53.78592
694.17        53.68397
694.60        53.59885
695.02        53.54044
695.44        53.59599
695.87        53.61387
696.29        53.62196
696.71        53.48924
697.14         53.2954
697.56        53.50728
697.98        54.03469
698.41        54.06101
698.83        54.09455
699.25        53.97526
699.68        53.89736
700.10        53.79088
700.52        53.67972
700.94        53.57964
701.37        53.49401
701.79        53.48109
702.21        53.52864
702.64        53.62679
703.06        53.74439
703.48        53.83672
703.90        53.89237
704.33        53.91898
704.75         53.9222
705.17         53.8973
705.59        53.84954
706.01        53.77353
706.44           53.71
706.86        53.73442
707.28        53.84291
707.70         54.0367
708.12        54.24367
708.55        54.28584
708.97        54.16203
709.39        54.04735
709.81        53.97562
710.23        53.89181
710.66        53.82048
711.08         53.8279
711.50        53.89347
711.92        53.96148
712.34        54.02038
712.76        54.08418
713.19        54.14165
713.61        54.21283
714.03        54.27278
714.45        54.32189
714.87        54.35682
715.29        54.33922
715.71        54.26492
716.13        54.29246
716.56        54.16007
716.98         54.1168
717.40        54.08205
717.82        54.05482
718.24        54.05828
718.66        54.13074
719.08        54.27397
719.50        54.47445
719.92         54.6656
720.34         54.7416
720.76         54.6829
721.19        54.50906
721.61        54.32101
722.03        54.26241
722.45        54.36798
722.87        54.59469
723.29        54.84996
723.71        54.97914
724.13        54.94356
724.55         54.7943
724.97        54.61192
725.39        54.52896
725.81        54.58207
726.23        54.72135
726.65        54.89577
727.07        55.03352
727.49        55.11081
727.91        55.14114
728.33        55.13201
728.75        55.13483
729.17        55.14212
729.59         55.0509
730.01        54.91671
730.43        54.92143
730.85        55.08086
731.27        55.29405
731.69        55.49216
732.10         55.5685
732.52        55.65062
732.94        55.36898
733.36        54.90467
733.78        54.68066
734.20        54.76588
734.62        54.95218
735.04        55.15285
735.46        55.30464
735.88        55.37045
736.30        55.37852
736.72        55.34248
737.13        55.31774
737.55        55.29294
737.97         55.2027
738.39        55.08817
738.81        55.17255
739.23        55.39799
739.65        55.39865
740.06        55.17115
740.48        55.10143
740.90        55.17115
741.32        55.18282
741.74        55.14148
742.16         55.1624
742.57         55.2582
742.99        55.37771
743.41        55.48571
743.83         55.5103
744.25        55.43755
744.67        55.28694
745.08        55.13586
745.50         55.0752
745.92        55.14321
746.34        55.31498
746.75        55.50605
747.17        55.57443
747.59        55.48979
748.01        55.26622
748.42        55.01635
748.84        54.94196
749.26        55.05207
749.68        55.25459
750.09        55.44675
750.51        55.38563
750.93        55.14064
751.35        55.14377
751.76        55.38779
752.18        55.48277
752.60         55.4161
753.01        55.44667
753.43        55.52447
753.85        55.46925
754.27        55.26967
754.68        55.02324
755.10        54.83589
755.52        54.62581
755.93        54.76398
756.35        54.95958
756.77        55.24131
757.18        55.38886
757.60        55.46837
758.02        55.44151
758.43         55.4384
758.85        55.29571
759.26        55.59796
759.68        55.79274
760.10        55.36979
760.51        55.04379
760.93        55.37696
761.34        55.19903
761.76        55.57582
762.18        55.68581
762.59        55.72058
763.01        55.74777
763.42        55.10488
763.84        55.20618
764.26        55.39888
764.67         55.7752
765.09        56.08476
765.50         56.3283
765.92        56.45021
766.33        56.26972
766.75        55.88245
767.16        55.69442
767.58        55.71428
768.00        55.92931
768.41         56.2448
768.83        56.08945
769.24        55.53622
769.66        55.86068
770.07         55.9119
770.49        56.10101
770.90        56.03865
771.32        55.82755
771.73        55.56193
772.15        55.45536
772.56         55.5559
772.97         55.7238
773.39        55.86041
773.80        55.93125
774.22        55.88068
774.63        55.74524
775.05        55.57707
775.46        55.50702
775.88        55.54627
776.29        55.67144
776.70        55.82079
777.12        55.90348
777.53        55.90922
777.95        55.87098
778.36        55.80377
778.77        55.72562
779.19        55.65086
779.60        55.57275
780.02        55.53601
780.43         55.6312
780.84        55.86741
781.26        56.20277
781.67        56.55607
782.09        56.74596
782.50        56.70634
782.91        56.45927
783.33        56.12366
783.74        55.97614
784.15        56.04428
784.57        56.37354
784.98         56.7936
785.39        56.70012
785.81        56.18891
786.22         56.0591
786.63        56.33204
787.04        56.41815
787.46        56.32945
787.87        56.41167
788.28         56.6276
788.70        56.73071
789.11        56.68288
789.52        56.56388
789.93        56.43839
790.35        56.39991
790.76        56.48637
791.17        56.66462
791.58        56.85915
792.00        56.95631
792.41        56.95635
792.82        56.83038
793.23        56.69158
793.65         56.7936
794.06        57.10569
794.47        57.37212
794.88        57.57482
795.29        57.42945
795.71        57.79501
796.12        57.80745
796.53        57.71964
796.94        57.71542
797.35        57.76191
797.76        57.56463
798.18        57.18826
798.59        56.99838
799.00        57.03038
799.41        57.11835
799.82        57.19989
800.23        57.23767
800.64        57.20313
801.06        57.09018
801.47        56.97149
801.88        56.89749
802.29        56.88994
802.70        56.93404
803.11         57.0029
803.52        57.05146
803.93        57.06543
804.34        57.05473
804.75        57.05655
805.17        57.11856
805.58        57.27209
805.99        57.48962
806.40        57.70483
806.81        57.80573
807.22        57.76758
807.63        57.62381
808.04        57.47355
808.45        57.48262
808.86        57.68363
809.27        58.01933
809.68        58.37308
810.09         58.5413
810.50        58.46747
810.91        58.22101
811.32        57.89022
811.73        57.62216
812.14        57.47247
812.55        57.39633
812.96        57.39287
813.37        57.45752
813.78        57.57201
814.19        57.74593
814.60        57.91353
815.01        57.96621
815.42        57.88622
815.83        57.69254
816.24        57.47213
816.65         57.3975
817.05        57.52377
817.46        57.77523
817.87        58.07927
818.28        58.28761
818.69        58.36471
819.10        58.35729
819.51        58.31939
819.92        58.34504
820.33        58.45978
820.74        58.61455
821.14        58.77659
821.55        58.92435
821.96        59.03235
822.37        59.11719
822.78        59.14875
823.19        59.07332
823.60        58.88648
824.00        58.61187
824.41        58.30444
824.82        58.11213
825.23        58.07708
825.64         58.1842
826.04        58.35888
826.45        58.43737
826.86        58.39433
827.27        58.26581
827.68         58.1566
828.08        58.26772
828.49        58.56996
828.90        59.04066
829.31        59.54345
829.72        59.75302
830.12        59.60252
830.53        59.62121
830.94         59.0594
831.35        58.77386
831.75        58.59355
832.16        58.48172
832.57        58.45025
832.97        58.51348
833.38        58.65483
833.79        58.86496
834.20        59.10483
834.60        59.30996
835.01        59.45652
835.42         59.5525
835.82        59.59925
836.23        59.57257
836.64        59.49101
837.04        59.36941
837.45        59.23542
837.86        59.18582
838.26        59.25318
838.67        59.41297
839.08        59.61003
839.48        59.73629
839.89        59.75779
840.29        59.69284
840.70        59.62843
841.11        59.70268
841.51        59.95216
841.92        60.30042
842.33        60.62548
842.73        60.72681
843.14        60.52322
843.54        60.11829
843.95        59.66173
844.35        59.41297
844.76        59.43822
845.17        59.66551
845.57        60.00527
845.98        60.27551
846.38        60.43662
846.79        60.51209
847.19         60.5533
847.60        60.56877
848.00        60.60073
848.41        60.60227
848.81        60.60438
849.22        60.61121
849.62        60.65885
850.03        60.71668
850.43        60.80329
850.84        60.83889
851.24        60.85543
851.65        60.81001
852.05        60.76914
852.46        60.76711
852.86        60.81028
853.27         60.9208
853.67         60.9774
854.07        60.93669
854.48        60.76512
854.88        60.49976
855.29        60.19927
855.69        60.11903
856.10        60.23743
856.50        60.57235
856.90        60.92199
857.31        60.98837
857.71        60.74978
858.12        60.24673
858.52        59.67157
858.92        59.30237
859.33        59.21581
859.73        59.37531
860.13        59.65132
860.54        59.82071
860.94          59.875
861.34        59.85077
861.75        59.79316
862.15        59.84653
862.55        60.00245
862.96        60.17252
863.36        60.33642
863.76        60.42892
864.17        60.42038
864.57        60.36531
864.97        60.20179
865.38        59.80784
865.78        59.22163
866.18        58.48506
866.58         57.8233
866.99        57.60823
867.39        57.95944
867.79        58.74011
868.19        59.65788
868.60        60.20644
869.00        60.36513
869.40        60.45551
869.80        60.49273
870.21        60.28235
870.61        59.90953
871.01         59.5104
871.41        59.11465
871.81         58.6687
872.22        58.21232
872.62        57.77517
873.02        57.46338
873.42        57.65235
873.82        58.14249
874.22        58.26408
874.63        58.15869
875.03        58.16605
875.43        58.29622
875.83        59.46035
876.23        58.61305
876.63        57.74043
877.03        56.59293
877.44        54.44291
877.84        180.5216
878.24        56.24489
878.64        57.21789
879.04        58.91249
879.44        59.37549
879.84        55.39785
880.24         61.1061
880.64        61.24101
881.04        58.37384
881.44        56.18847
881.84        55.36414
882.24        56.03704
882.65         57.4737
883.05        57.97962
883.45        57.22912
883.85        56.24622
884.25         55.5032
884.65        55.27742
885.05        55.68969
885.45        56.52749
885.85        57.45485
886.25        58.03392
886.65        58.14986
887.05        57.95438
887.45        57.55733
887.85        57.14092
888.25        56.80396
888.65        56.48961
889.04        56.29255
889.44        56.38076
889.84        56.75241
890.24        57.35585
890.64        57.99536
891.04        58.37434
891.44        58.42999
891.84        58.23388
892.24        57.91541
892.64         57.7141
893.04        57.70379
893.44        57.80912
893.83         57.9631
894.23        58.03017
894.63        57.99082
895.03        57.90929
895.43        57.82206
895.83        57.77083
896.23        57.78284
896.63         57.8399
897.02        57.94073
897.42        58.14393
897.82        58.41645
898.22        58.71858
898.62        59.00402
899.01         59.2076
899.41        59.27755
899.81         59.2443
900.21        59.06779
900.61        58.68922
901.00        58.11815
901.40        57.46695
901.80        56.90369
902.20        56.50902
902.59        56.30088
902.99         56.5934
903.39         57.4001
903.79        56.73426
904.18        57.68982
904.58        57.75809
904.98        57.82899
905.38        57.76028
905.77        57.55438
906.17        57.23414
906.57        56.87996
906.96        56.74802
907.36        56.89393
907.76        57.28461
908.15        57.80005
908.55        58.09098
908.95        58.11316
909.34        57.88794
909.74        57.64762
910.14        57.72537
910.53        58.17198
910.93        58.86237
911.33        59.45287
911.72        59.40311
912.12        58.64434
912.52        57.39529
912.91        56.06753
913.31        55.38034
913.70        55.48179
914.10        56.15647
914.49        57.10954
914.89        57.75555
915.29        57.92112
915.68        57.75866
916.08        57.43844
916.47        57.17972
916.87        57.09899
917.26        57.10838
917.66        57.17142
918.05        57.26834
918.45        57.36698
918.84        57.49855
919.24        57.68255
919.64        57.98949
920.03        58.40763
920.42        58.86572
920.82        59.22849
921.21        59.30896
921.61        59.10566
922.00        58.75908
922.40          58.458
922.79        58.34544
923.19        58.04502
923.58        58.53364
923.98        60.22674
924.37        60.18973
924.77        56.76651
925.16        66.24018
925.55        59.07673
925.95        59.69434
926.34        59.70112
926.74        58.91213
927.13        57.33784
927.52        56.43126
927.92         56.7823
928.31        57.58755
928.70        58.59206
929.10        59.34698
929.49        59.75769
929.89        59.99966
930.28        60.02028
930.67        59.63441
931.07        58.89608
931.46        57.72885
931.85        56.59404
932.24        56.79652
932.64        58.49306
933.03        60.57587
933.42        61.93332
933.82        64.78229
934.21        62.82607
934.60        61.01752
934.99        59.07635
935.39        58.44596
935.78        59.25466
936.17        61.85443
936.56        69.53787
936.96        61.50291
937.35        65.80561
937.74        61.71979
938.13        58.65592
938.53        56.37128
938.92        55.83693
939.31        57.54977
939.70        59.84425
940.09        61.04491
940.49        60.78854
940.88        59.66294
941.27        58.21495
941.66        57.46369
942.05        57.77649
942.44         58.7012
942.84        59.75591
943.23        60.40966
943.62        60.48668
944.01        60.18695
944.40        59.74936
944.79         59.5438
945.18        59.68169
945.57        60.02352
945.97         60.3328
946.36         60.3736
946.75        60.03885
947.14        59.42936
947.53        58.76318
947.92        58.39937
948.31        58.44234
948.70        58.78593
949.09        59.19622
949.48        59.31441
949.87        59.06103
950.26        58.54881
950.65        57.99396
951.04        57.74479
951.43        57.89425
951.82         58.3313
952.21        58.85259
952.60        59.11975
952.99         59.0252
953.38        58.66828
953.77        58.23673
954.16         57.9889
954.55        58.00034
954.94        58.23717
955.33        58.53109
955.72        58.58701
956.11        58.33747
956.50        57.85503
956.89        57.47809
957.28        57.73126
957.66        58.71351
958.05        60.15729
958.44        61.55516
958.83        62.15465
959.22        61.79154
959.61        60.63037
960.00        59.16743
960.39        58.38205
960.78        58.58136
961.16        59.49949
961.55        60.46875
961.94        60.67954
962.33        59.97201
962.72        58.58944
963.11        57.01134
963.49        56.21698
963.88        56.55738
964.27        57.67692
964.66         59.0168
965.04        59.83846
965.43         59.9068
965.82         59.4844
966.21        58.85139
966.60        58.49063
966.98        58.56773
967.37        58.92009
967.76        59.35115
968.15        59.56131
968.53        59.49019
968.92        59.24237
969.31        58.99377
969.69        58.99527
970.08        59.28665
970.47        59.76348
970.86        60.30578
971.24        60.72791
971.63        60.93013
972.02        60.96613
972.40        60.87079
972.79        60.59142
973.17        60.21082
973.56        59.77778
973.95        59.38115
974.33        59.18356
974.72        59.23735
975.11        59.46082
975.49        59.96842
975.88        60.85237
976.26        62.11703
976.65        63.60855
977.04        64.91293
977.42         65.4024
977.81         64.9257
978.19        63.56757
978.58        62.03979
978.96        61.63573
979.35        62.64158
979.74        64.53985
980.12        66.47863
980.51        67.20302
980.89        66.64512
981.28        65.06212
981.66        62.91131
982.05        61.42854
982.43        61.13789
982.82         61.7679
983.20        62.83287
983.59        63.54095
983.97        63.70559
984.35        63.53765
984.74        63.21951
985.12        63.11963
985.51        63.30339
985.89        63.66693
986.28        64.00723
986.66        64.14629
987.04        64.10458
987.43        63.87304
987.81        63.31778
988.20        63.91545
988.58        65.92355
988.96        66.13697
989.35        63.72401
989.73        70.75281
990.12        66.99573
990.50        67.90051
990.88        67.99808
991.27        67.85357
991.65        67.34011
992.03        66.64891
992.42        66.08706
992.80        65.54437
993.18        65.09034
993.56        64.82546
993.95        64.66495
994.33        64.39373
994.71        64.00566
995.10        63.56354
995.48        63.28812
995.86        63.53288
996.24        64.32158
996.63          65.385
997.01        66.54273
997.39        67.32726
997.77         67.5817
998.15        67.43182
998.54        66.97264
998.92        66.24276
999.30        65.36309
999.68        64.36882
1000.06        63.44894
1000.45        62.95235
1000.83        63.12259
1001.21        63.87495
1001.59         65.1152
1001.97          66.644
1002.35        68.25069
1002.73        69.81989
1003.12        71.15016
1003.50        72.10883
1003.88        72.68104
1004.26          72.911
1004.64        72.83459
1005.02        72.55458
1005.40        72.12371
1005.78        71.52395
1006.16        70.85685
1006.54        70.24625
1006.92        69.77387
1007.30        69.55963
1007.69        69.43863
1008.07        69.20923
1008.45        68.81065
1008.83        68.24626
1009.21        67.95374
1009.59        68.77773
1009.97        70.68297
1010.35        73.05391
1010.73         75.1006
1011.11        76.28469
1011.49        76.70978
1011.86        76.23788
1012.24        74.82679
1012.62        76.03289
1013.00        76.87684
1013.38          76.972
1013.76        74.74209
1014.14        79.02184
1014.52        85.29615
1014.90        76.75802
1015.28        77.69464
1015.66        79.17029
1016.04        75.56001
1016.41        76.53846
1016.79        76.37096
1017.17        76.42709
1017.55        76.01307
1017.93        75.45073
1018.31        75.28756
1018.69        75.83237
1019.06        77.16119
1019.44        78.99651
1019.82        80.56174
1020.20        80.82262
1020.58        79.56279
1020.95        76.69444
1021.33        73.00164
1021.71        71.10874
1022.09        72.36082
1022.46        75.56771
1022.84        78.79562
1023.22        80.61955
1023.60        81.09959
1023.97        80.76569
1024.35        80.10339
1024.73        80.00478
