SpectraSmart Spectrum 2.9.0.0
--------- Device Information -----------
Spectrum Name :  反射率_0
Saving Time :  2024/04/20 23:55:21
Spectro-Module Model Name : SE2030-DUVN
Spectro-Module Serial Number : OS361AC55029948
Wavelength Start : 200
Wavelength End : 1025
Wavelength Unit : Wavelength(nm)
Spectrum Unit : Reflectance(%)
-----------Spectrum Setting ------------
Integration Time : 20ms
Average : 10
Boxcar : 0
Background removal :  enabled
linearity correction :  enabled
SC :  disabled
Intensity correction :  disabled
DWT denoise :  enabled
savitzky-golay :  disabled
FFT :  disabled
Running average :  disabled
Kalman :  disabled
High pass :  disabled
---------------BEGIN--------------------
Wavelength(nm)             Reflectance(%)
200.29               0
200.75       -63.94252
201.21       -10.25883
201.67         20.0416
202.13        33.58057
202.58        38.22749
203.04        39.29447
203.50        36.49349
203.96        29.04742
204.42        18.13239
204.88         3.28391
205.34       -9.371079
205.80       -12.08646
206.26       -2.328204
206.72        24.80289
207.18        58.72447
207.64        68.48963
208.10        40.89454
208.55       -15.29643
209.01       -60.71347
209.47       -43.44625
209.93        2.001576
210.39        41.97079
210.85        67.92459
211.31        78.07028
211.77        75.79164
212.23        62.09032
212.69        30.67052
213.14       -25.72992
213.60       -120.8072
214.06       -373.2811
214.52       -911.0117
214.98        -400.429
215.44       -111.0392
215.90       -14.70767
216.36         17.0263
216.81        20.14184
217.27       0.1022575
217.73       -107.2208
218.19        1174.921
218.65        470.1053
219.11       -908.8156
219.57       -12.91295
220.02        42.38284
220.48        51.74065
220.94        45.60835
221.40        21.77103
221.86       -36.08169
222.32       -75.55212
222.77       -25.88687
223.23         18.9603
223.69        41.26411
224.15        47.36194
224.61        44.54829
225.06        37.23603
225.52        27.64166
225.98         19.0873
226.44        13.37445
226.90        8.460554
227.36        7.147487
227.81        13.56309
228.27         23.4881
228.73        33.08078
229.19        39.02165
229.65        39.54327
230.10        35.45953
230.56        27.97751
231.02        18.23309
231.48        11.36873
231.93        11.26242
232.39        16.15244
232.85        21.94957
233.31        25.01098
233.77        25.42116
234.22        24.76139
234.68        23.34967
235.14         21.7294
235.60        20.54057
236.05        18.76316
236.51        16.59515
236.97        20.77647
237.43        31.72488
237.88         38.6413
238.34        37.33278
238.80        59.83525
239.26        49.44254
239.71        47.65536
240.17        39.53708
240.63        30.94667
241.08        25.74463
241.54        27.15022
242.00           35.46
242.46        40.12918
242.91        38.40361
243.37        31.35325
243.83        21.42285
244.28        17.93263
244.74        25.63775
245.20         38.4428
245.66         49.8978
246.11        54.48123
246.57         51.8541
247.03        43.99731
247.48        32.92646
247.94        22.26983
248.40        11.93249
248.85       -5.766748
249.31       -48.12072
249.77       -66.11089
250.22        2.723541
250.68        27.34811
251.14        35.45082
251.59        39.72978
252.05        43.69901
252.51        48.59788
252.96        53.11688
253.42        53.08397
253.88        46.62746
254.33        37.61509
254.79        32.80427
255.25        34.77131
255.70        39.99596
256.16        45.33047
256.62        49.34857
257.07        51.40109
257.53         52.2706
257.99        52.41256
258.44        51.78214
258.90        50.90385
259.35        49.52794
259.81        48.10658
260.27        46.71034
260.72        45.52469
261.18        44.80848
261.63        44.23116
262.09        43.73503
262.55        42.95081
263.00        41.81343
263.46        40.57817
263.91        39.34024
264.37        38.56783
264.83        38.19747
265.28        38.05019
265.74        37.90353
266.19        37.31012
266.65        36.28653
267.11        34.94498
267.56        33.55532
268.02        32.60445
268.47        32.13836
268.93        32.02745
269.38        31.95908
269.84        31.50581
270.30          30.568
270.75        29.30455
271.21        27.99766
271.66        27.01924
272.12         26.4821
272.57        26.23076
273.03        26.10142
273.48        25.83143
273.94        25.37242
274.39        24.79565
274.85        24.20569
275.31        23.69004
275.76         23.2715
276.22        22.93082
276.67        22.63014
277.13        22.38845
277.58        22.16002
278.04        21.95349
278.49        21.72012
278.95        21.44794
279.40        21.10121
279.86        20.72563
280.31        20.28868
280.77        19.81173
281.22        19.29682
281.68        18.81056
282.13        18.38375
282.59        18.12182
283.04         18.0105
283.50        18.01247
283.95        18.10217
284.41        18.25568
284.86        18.43993
285.32        18.67331
285.77        18.85033
286.22        18.82849
286.68        18.62628
287.13        18.25906
287.59        17.95826
288.04        17.97697
288.50        18.31606
288.95        19.00671
289.41        19.85126
289.86        20.05147
290.32         19.4694
290.77        20.24652
291.22        19.13311
291.68         19.1481
292.13        19.36373
292.59        19.80002
293.04        20.40627
293.50        21.17785
293.95        22.10815
294.40        23.17992
294.86        24.34389
295.31        25.50262
295.77        26.62899
296.22        27.72614
296.68        28.84283
297.13        30.05946
297.58        31.41535
298.04        32.89827
298.49        34.48777
298.95         36.1653
299.40        37.90038
299.85        39.70308
300.31        41.56353
300.76        43.44356
301.21        45.34145
301.67        47.28208
302.12        49.25572
302.58        51.35141
303.03        53.55873
303.48        55.90159
303.94        58.35898
304.39        60.84274
304.84         63.3265
305.30        65.82433
305.75        68.30627
306.20        70.84056
306.66        73.42123
307.11        75.95908
307.57        78.41338
308.02        80.65446
308.47        82.69076
308.93        84.60075
309.38         86.4004
309.83         88.1806
310.29        90.01855
310.74        91.83261
311.19        93.62196
311.65        95.35044
312.10        96.98306
312.55        98.52819
313.00        99.98988
313.46        101.3777
313.91        102.6682
314.36        103.8625
314.82         104.941
315.27        105.8664
315.72         106.659
316.18        107.3478
316.63        107.9895
317.08        108.6747
317.53        109.4197
317.99        110.1873
318.44        110.9428
318.89         111.611
319.35        112.1634
319.80        112.6351
320.25         113.012
320.70        113.2796
321.16        113.4433
321.61        113.5295
322.06        113.6107
322.51        113.8134
322.97        114.1497
323.42        114.6306
323.87        115.1535
324.32        115.5589
324.78         115.781
325.23         115.901
325.68        115.9841
326.13        116.1752
326.59        116.4861
327.04        116.9318
327.49        117.4083
327.94        117.7832
328.39        118.0204
328.85        118.1269
329.30         118.253
329.75        118.5004
330.20        118.9016
330.66        119.3709
331.11        119.8996
331.56        120.3204
332.01        120.5967
332.46        120.7793
332.92        120.8746
333.37        121.0524
333.82        121.3104
334.27        121.6336
334.72        122.0406
335.17        122.5618
335.63        123.1549
336.08        123.8648
336.53        124.6145
336.98        125.3277
337.43        125.9636
337.88        126.5221
338.34        126.9518
338.79        127.2517
339.24        127.4106
339.69        127.4611
340.14        127.4877
340.59        127.6236
341.05        127.9113
341.50        128.3337
341.95        128.8613
342.40         129.437
342.85        130.0225
343.30         130.617
343.75        131.1721
344.20        131.6211
344.66        131.9547
345.11        132.1565
345.56        132.2718
346.01        132.3836
346.46        132.5297
346.91        132.6745
347.36        132.7757
347.81        132.8668
348.26        132.9611
348.72        132.6852
349.17         132.785
349.62        132.8129
350.07        132.9859
350.52        133.2371
350.97        133.4586
351.42        133.4656
351.87        133.2064
352.32        132.7462
352.77        132.1781
353.22        131.6431
353.67        131.1866
354.13        130.7895
354.58        130.3882
355.03        129.9389
355.48        129.4258
355.93        128.8656
356.38        128.2933
356.83        127.7515
357.28        127.2333
357.73        126.7117
358.18        126.1108
358.63        125.3233
359.08        124.3458
359.53        123.2336
359.98        122.0928
360.43        121.0758
360.88         120.216
361.33        119.4662
361.78        118.7641
362.23        118.0068
362.68        117.1654
363.13         116.278
363.58        115.3547
364.03        114.4087
364.48        113.4469
364.93        112.4493
365.38         111.451
365.83        110.5189
366.28         109.659
366.73        108.8525
367.18        108.0327
367.63        107.0877
368.08        106.0098
368.53        104.8621
368.98        103.7052
369.43        102.6195
369.88        101.6235
370.33        100.6732
370.78         99.7982
371.23        99.06538
371.68        98.47847
372.13        98.02557
372.58        97.57614
373.03        96.90864
373.48        95.97845
373.93        94.84681
374.38        93.67928
374.83        92.76803
375.28        92.19201
375.72        91.83958
376.17        91.59617
376.62        91.20874
377.07        90.60049
377.52        89.82856
377.97        88.97266
378.42        88.18668
378.87        87.53645
379.32        86.98643
379.77        86.47144
380.22        85.88329
380.67        85.18903
381.11        84.42673
381.56        83.66395
382.01        83.03718
382.46         82.5881
382.91        82.27498
383.36         81.9986
383.81         81.6048
384.26        81.05752
384.71        80.40757
385.15        79.72846
385.60        79.19868
386.05        78.83071
386.50        78.57262
386.95        78.35316
387.40        78.07082
387.85          77.705
388.29        77.24763
388.74        76.83887
389.19        76.46922
389.64        76.13692
390.09        75.81503
390.54        75.48582
390.98        75.11761
391.43        74.75304
391.88        74.39647
392.33        74.06084
392.78        73.75795
393.23        73.49042
393.67        73.21793
394.12        73.00833
394.57        72.79102
395.02        72.54843
395.47        72.26438
395.91          71.978
396.36        71.73624
396.81        71.57158
397.26         71.4939
397.71        71.41047
398.15        71.18732
398.60        70.89592
399.05        70.38698
399.50        69.84379
399.95        69.80759
400.39        70.15179
400.84        70.13294
401.29        69.70724
401.74        69.19411
402.18        68.76187
402.63        68.69891
403.08        68.91125
403.53        68.81811
403.97        68.38026
404.42        68.00194
404.87        67.76736
405.32        67.62709
405.76        67.57706
406.21        67.67126
406.66        67.81541
407.11        67.72405
407.55        67.41167
408.00        67.25951
408.45        67.26597
408.90        66.82514
409.34        66.11965
409.79        66.10532
410.24         66.6456
410.68        66.81384
411.13        66.55718
411.58        66.36584
412.03        66.30667
412.47         66.2886
412.92        66.30489
413.37        66.38094
413.81        66.46009
414.26        66.51905
414.71        66.52764
415.15        66.50497
415.60        66.44027
416.05        66.37908
416.49        66.33842
416.94        66.30209
417.39        66.26115
417.83        66.19652
418.28        66.10802
418.73        65.99471
419.17        65.88956
419.62        65.85525
420.07        65.90558
420.51        66.01746
420.96        66.14352
421.41        66.19997
421.85        66.14796
422.30        65.94953
422.74        65.69167
423.19        65.83326
423.64        66.28587
424.08        66.49454
424.53        66.34357
424.98        66.33086
425.42        66.49052
425.87        66.30706
426.31        65.94205
426.76        66.24208
427.21        67.04854
427.65        67.20229
428.10        66.71144
428.54        66.60208
428.99        66.92139
429.44        67.11484
429.88        67.10514
430.33        67.01122
430.77        66.83351
431.22        66.84717
431.66        67.00592
432.11        67.08872
432.56        67.14186
433.00        67.11451
433.45        66.87519
433.89         67.0883
434.34        67.77632
434.78        66.58851
435.23        66.62525
435.67        66.86453
436.12        67.84694
436.57        67.99052
437.01        67.34225
437.46        67.02245
437.90        67.80096
438.35        67.46569
438.79        67.71925
439.24        67.63335
439.68        67.67609
440.13        67.73815
440.57        67.80384
441.02        67.94033
441.46        68.09599
441.91        68.07446
442.35        67.91868
442.80        68.31641
443.24        69.06791
443.69        69.21725
444.13        68.76019
444.58        68.48666
445.02        68.46178
445.47        68.51593
445.91        68.61043
446.36        68.68259
446.80        68.70984
447.24        68.78393
447.69        68.90677
448.13          69.091
448.58        69.13396
449.02        69.16805
449.47        69.14776
449.91        69.12374
450.36        69.12051
450.80        69.02448
451.25        68.89097
451.69        68.90379
452.13        69.01491
452.58        68.89398
453.02        68.55671
453.47        68.32978
453.91        68.21986
454.36        68.06946
454.80        67.89484
455.24        67.74112
455.69        67.61939
456.13        67.57401
456.58        67.68047
457.02        67.32034
457.46        67.71432
457.91        67.47429
458.35        67.14832
458.79        66.92307
459.24        66.86636
459.68        66.80795
460.13        66.76299
460.57        66.58987
461.01        66.26948
461.46        66.40585
461.90        66.12839
462.34        65.84239
462.79        65.85908
463.23        65.83031
463.68        65.86436
464.12        65.67487
464.56        65.35589
465.01         65.4852
465.45        65.83032
465.89        65.84176
466.34        65.59509
466.78        65.26459
467.22        64.88829
467.67        65.49573
468.11        65.10263
468.55        65.06978
468.99        64.82172
469.44        64.64043
469.88        64.52486
470.32        64.33384
470.77        64.11669
471.21        63.98276
471.65        63.94537
472.10        63.97228
472.54        64.02103
472.98        64.03614
473.42        64.00255
473.87        63.97945
474.31        63.94183
474.75         63.8873
475.20        63.82456
475.64        63.83242
476.08        63.91176
476.52        63.86734
476.97        63.64288
477.41        63.67178
477.85        63.97015
478.29        63.14355
478.74        62.89622
479.18        63.09928
479.62        63.27876
480.06         63.4981
480.50        63.60576
480.95        63.61619
481.39        63.41239
481.83        64.06398
482.27        63.87052
482.72        63.42194
483.16        63.38879
483.60        63.56299
484.04        63.52241
484.48        63.12434
484.93        62.86532
485.37        63.07783
485.81        63.69311
486.25          62.981
486.69        64.75315
487.14        64.88622
487.58        63.88239
488.02        63.51973
488.46         62.9369
488.90        62.66462
489.34        62.87599
489.79        62.31229
490.23        62.79852
490.67        62.79568
491.11        62.79832
491.55        62.63587
491.99        62.38689
492.43        62.25037
492.88        62.23993
493.32        62.30713
493.76        62.35636
494.20        62.37725
494.64        62.37376
495.08        61.99978
495.52        61.86986
495.96        61.92585
496.41        62.22366
496.85        62.29046
497.29        62.07089
497.73        62.00487
498.17        61.81404
498.61         61.9017
499.05        62.09143
499.49        61.96807
499.93        61.60349
500.37        61.47837
500.82        61.62937
501.26        61.65948
501.70        62.05247
502.14        61.73413
502.58         61.4435
503.02        61.24526
503.46        61.26809
503.90        61.25731
504.34        61.17725
504.78        61.15974
505.22        61.21233
505.66        61.24401
506.10        61.24754
506.54        61.32108
506.98        61.47623
507.42        61.05662
507.86        61.63065
508.30        60.99387
508.74        61.31519
509.18        61.16658
509.62        61.07668
510.06         61.0376
510.50        61.03245
510.94        60.98344
511.38        60.87988
511.82        60.81892
512.26        60.80096
512.70        60.77761
513.14        60.74894
513.58        60.73512
514.02        60.73404
514.46        60.73819
514.90        60.72776
515.34        60.70973
515.78        60.68744
516.22        60.63336
516.66        60.40829
517.10        60.62984
517.54         60.4117
517.98        60.44572
518.42        60.46671
518.86        60.49575
519.30        60.52669
519.74        60.52259
520.18        60.51028
520.62        60.60541
521.06        60.76324
521.50        60.75601
521.93        60.59592
522.37        60.49807
522.81        60.47893
523.25        60.42113
523.69        60.32573
524.13        60.24918
524.57        60.19737
525.01        60.15805
525.45        60.14338
525.89        60.17052
526.32        60.23404
526.76        60.32894
527.20        60.42569
527.64        60.47981
528.08        60.47998
528.52        60.44248
528.96        60.38499
529.40        60.32876
529.83        60.28352
530.27        60.27352
530.71        60.28668
531.15        60.30236
531.59         60.3143
532.03        60.32753
532.46        60.33955
532.90         60.3585
533.34        60.37718
533.78        60.39556
534.22        60.38805
534.66         60.3167
535.09        60.17457
535.53        59.99922
535.97        59.83082
536.41        59.74874
536.85        59.76837
537.28        59.86315
537.72         59.9875
538.16         60.0668
538.60        60.07595
539.04         60.0382
539.47        59.95905
539.91        59.89693
540.35        59.85147
540.79        59.81558
541.22         59.7866
541.66        59.77776
542.10        59.78233
542.54        59.79118
542.97         59.8032
543.41        59.84426
543.85        59.90871
544.29        60.00517
544.72        60.07202
545.16         60.0684
545.60        59.97727
546.04        59.74187
546.47        59.48612
546.91        59.54427
547.35        59.85633
547.79        60.09444
548.22        60.14682
548.66        59.99128
549.10        59.72149
549.53        59.65271
549.97        59.78957
550.41        59.80166
550.84        59.69523
551.28        59.66963
551.72        59.70916
552.15        59.77982
552.59        59.90882
553.03        59.65173
553.46        59.82228
553.90        59.75009
554.34        59.66171
554.77        59.56009
555.21        59.50935
555.65        59.48304
556.08        59.45507
556.52        59.81472
556.96         59.8366
557.39        59.91337
557.83        59.84792
558.27        59.68834
558.70        59.50661
559.14        59.40193
559.57         59.3953
560.01        59.56743
560.45        59.77804
560.88        59.67713
561.32        59.37653
561.75        59.13462
562.19        59.07616
562.63        59.34524
563.06        59.78436
563.50        59.76908
563.93        59.34893
564.37        59.22014
564.80        59.38586
565.24         59.5088
565.68        59.55262
566.11        59.56758
566.55        59.55738
566.98        59.61472
567.42        59.74184
567.85         59.5714
568.29        59.38828
568.72        59.52168
569.16        59.99323
569.60        60.17999
570.03        60.17204
570.47        60.21001
570.90        60.32786
571.34         60.1572
571.77        60.60621
572.21        60.26701
572.64        60.33039
573.08        60.18391
573.51        60.16586
573.95        60.65369
574.38        60.61382
574.82        61.22717
575.25        61.06483
575.69        61.06379
576.12         60.3723
576.56        60.61552
576.99        60.64795
577.42        60.84947
577.86        60.83413
578.29        61.33469
578.73        61.77448
579.16        61.23156
579.60        60.46134
580.03        60.49555
580.47        60.54022
580.90        60.85125
581.33        61.03954
581.77        61.06357
582.20        61.45663
582.64         61.7393
583.07        61.47549
583.51        60.67037
583.94        60.59028
584.37        60.24834
584.81        60.27712
585.24        60.27028
585.68        60.62064
586.11        60.78481
586.54        60.96628
586.98        60.80767
587.41         60.5415
587.85        60.55358
588.28        61.10837
588.71        60.85243
589.15        60.88469
589.58        60.22403
590.01        59.96138
590.45        60.07819
590.88        60.06144
591.31        59.84348
591.75        59.76468
592.18        59.68285
592.61        59.76566
593.05        60.26209
593.48        60.81657
593.91        60.66712
594.35        60.40905
594.78        60.40609
595.21        60.09428
595.65        60.11413
596.08        60.19677
596.51        60.20124
596.94        59.99633
597.38        59.93601
597.81        60.04815
598.24        59.97771
598.68        60.09482
599.11        59.89393
599.54        60.29993
599.97        60.02435
600.41         60.0644
600.84        60.51712
601.27        60.27673
601.70        60.13134
602.14        59.94905
602.57        59.74073
603.00        59.58801
603.43        59.98809
603.87        60.35444
604.30        60.30262
604.73        59.70115
605.16        59.60328
605.60        59.98368
606.03        60.07373
606.46        59.89173
606.89        59.73317
607.32        59.52161
607.76        60.30856
608.19        59.92862
608.62        59.70345
609.05        60.24436
609.48        59.77191
609.92        59.97952
610.35        59.67252
610.78        59.92344
611.21        59.60808
611.64        59.69495
612.07        59.62055
612.50        59.60941
612.94        59.55275
613.37        59.45513
613.80        59.57902
614.23        59.43729
614.66        59.42232
615.09        59.37626
615.52        59.28362
615.96        59.17847
616.39        59.09933
616.82        59.04541
617.25         59.2165
617.68        59.23188
618.11        59.14074
618.54        59.04381
618.97        58.96789
619.40         58.9312
619.84        58.99108
620.27        58.73516
620.70        58.66075
621.13        58.65638
621.56        58.67796
621.99        58.73712
622.42        58.89656
622.85        59.06718
623.28        59.21937
623.71        58.93919
624.14        59.05301
624.57        59.01915
625.00        59.05998
625.43        58.73152
625.86        58.74246
626.29        59.03325
626.72        58.59179
627.15         58.7636
627.58        58.67039
628.01        58.76973
628.44         58.4935
628.87        58.36803
629.30        58.78599
629.73        58.48862
630.16        58.49573
630.59         58.3503
631.02        58.63669
631.45        58.47368
631.88        58.53436
632.31        58.58915
632.74        58.35529
633.17        58.43141
633.60        58.31513
634.03         58.1983
634.46        58.12207
634.89        58.01762
635.32        57.99286
635.75        58.01845
636.18        58.09258
636.61        58.18583
637.04        58.25223
637.47        58.27922
637.89        58.28219
638.32        58.26536
638.75        58.26334
639.18        58.28408
639.61        58.31533
640.04        58.34904
640.47        58.37407
640.90        58.38573
641.33        58.38952
641.76        58.38496
642.18        58.37577
642.61        58.35126
643.04         58.3193
643.47        58.28643
643.90        58.26842
644.33        58.26769
644.76        58.26583
645.18        58.26238
645.61        58.27721
646.04        58.29676
646.47         58.2659
646.90        58.19062
647.33        58.13773
647.75         58.1015
648.18        58.06012
648.61        58.05306
649.04        58.05639
649.47        58.05064
649.89        58.43188
650.32        58.47921
650.75        58.44796
651.18        58.17475
651.61         57.9494
652.03         57.8621
652.46        57.80317
652.89        57.80532
653.32        58.05101
653.74        58.42427
654.17        58.33778
654.60         57.8162
655.03        57.69058
655.46        57.54765
655.88        58.46779
656.31        59.77097
656.74        64.67663
657.16         63.9436
657.59         62.0659
658.02        59.44269
658.45        58.67428
658.87        58.00479
659.30        58.07041
659.73        58.18496
660.15        57.51569
660.58        57.89232
661.01        58.04253
661.44        58.37083
661.86        58.44636
662.29        58.24329
662.72        57.87557
663.14        57.50118
663.57        57.55239
664.00         57.9575
664.42        58.12545
664.85        58.02586
665.27        57.91409
665.70         58.0036
666.13        58.01849
666.55        58.02205
666.98        58.03065
667.41        58.03794
667.83        58.04485
668.26        58.06147
668.69        58.03456
669.11        57.96007
669.54        58.04177
669.96        58.32647
670.39        57.97493
670.82        58.37186
671.24         58.3708
671.67        58.36096
672.09        58.33335
672.52        58.31567
672.94        58.20461
673.37        58.04556
673.80        58.03565
674.22        58.15887
674.65        58.18012
675.07        58.10159
675.50        58.03837
675.92        58.01521
676.35        57.99804
676.77        57.98977
677.20        58.01771
677.62        58.08696
678.05        58.11683
678.47        58.08877
678.90        58.31046
679.32        58.25176
679.75        58.34928
680.17        58.43524
680.60        58.51301
681.02        58.57004
681.45        58.56229
681.87         58.4886
682.30        58.44072
682.72        58.43273
683.15        58.23534
683.57        57.93528
684.00        58.14499
684.42        58.40753
684.85        58.57854
685.27        58.49883
685.70        58.43408
686.12         58.4022
686.54        58.36031
686.97        58.31577
687.39        58.30452
687.82        58.31396
688.24        58.29801
688.66         58.2326
689.09        58.35864
689.51        58.25208
689.94        58.32267
690.36        58.42672
690.78        58.51135
691.21        58.55611
691.63        58.52501
692.06        58.45946
692.48         58.4707
692.90        58.55748
693.33        58.60831
693.75        58.63097
694.17        58.65327
694.60        58.65355
695.02        58.78424
695.44        58.76994
695.87        58.64899
696.29        58.44426
696.71        58.40723
697.14        58.54213
697.56        58.79864
697.98        59.08777
698.41        58.97478
698.83        59.02473
699.25        58.79153
699.68        58.52448
700.10        58.34595
700.52        58.29966
700.94        58.34493
701.37        58.42622
701.79        58.50769
702.21        58.54734
702.64        58.56844
703.06        58.58234
703.48        58.61051
703.90        58.65988
704.33        58.71314
704.75        58.75568
705.17        58.75002
705.59        58.69332
706.01        58.59971
706.44        58.50992
706.86        58.50614
707.28        58.59099
707.70        58.73733
708.12        58.90275
708.55        59.01303
708.97        59.04167
709.39        59.01937
709.81        58.95896
710.23        58.88949
710.66        58.82912
711.08        58.77926
711.50        58.73946
711.92         58.7245
712.34        58.73717
712.76        58.77853
713.19        58.82753
713.61        58.88835
714.03        58.93279
714.45        58.97266
714.87        59.02008
715.29        59.05632
715.71        59.07403
716.13        59.22484
716.56        59.20083
716.98        59.23684
717.40        59.23155
717.82        59.20145
718.24         59.1586
718.66        59.12666
719.08        59.11859
719.50        59.12752
719.92        59.15717
720.34        59.21075
720.76        59.28362
721.19        59.36347
721.61        59.45103
722.03        59.51863
722.45        59.55993
722.87        59.58238
723.29        59.58951
723.71        59.58929
724.13        59.58858
724.55        59.58398
724.97        59.59396
725.39        59.64903
725.81        59.74939
726.23        59.88099
726.65        60.00702
727.07        60.07406
727.49        60.07145
727.91        60.00405
728.33        59.90053
728.75         59.8477
729.17        59.84921
729.59        59.80901
730.01        59.75058
730.43        59.78583
730.85         59.9145
731.27        60.06192
731.69        60.19615
732.10        60.24427
732.52        60.37068
732.94        60.20211
733.36        59.87484
733.78        59.70456
734.20         59.7366
734.62        59.79598
735.04        59.86579
735.46        59.98486
735.88         60.1404
736.30          60.338
736.72        60.49549
737.13         60.5201
737.55        60.36526
737.97         59.9757
738.39        59.53456
738.81        59.56205
739.23        60.01432
739.65        60.27594
740.06        60.21331
740.48         60.2164
740.90         60.2315
741.32        60.00549
741.74        59.63644
742.16        59.45829
742.57        59.54396
742.99        59.77785
743.41        60.05637
743.83        60.20068
744.25        60.16265
744.67        59.99718
745.08        59.81673
745.50        59.76075
745.92        59.88191
746.34        60.13151
746.75        60.39299
747.17        60.48058
747.59        60.35376
748.01        60.04071
748.42        59.68865
748.84        59.55392
749.26        59.65651
749.68        59.88601
750.09        60.11011
750.51        60.03077
750.93        59.71789
751.35        59.65665
751.76        59.85609
752.18        59.92167
752.60        59.84895
753.01        59.90304
753.43         60.0246
753.85        60.03275
754.27        59.91264
754.68         59.7214
755.10        59.53634
755.52        59.45387
755.93        59.50019
756.35        59.64866
756.77        59.85231
757.18        59.99789
757.60        60.04314
758.02          60.063
758.43        60.14011
758.85        59.90184
759.26        60.30228
759.68        60.31804
760.10        59.84141
760.51        59.44968
760.93        59.77651
761.34        59.79977
761.76        59.73831
762.18        59.91932
762.59        60.21938
763.01        60.32967
763.42        59.52443
763.84        59.58192
764.26        59.89389
764.67        60.38003
765.09        60.76016
765.50        60.89899
765.92        60.80901
766.33        60.63169
766.75        60.43928
767.16        60.30251
767.58        60.20078
768.00        60.32908
768.41        60.61441
768.83        60.40189
769.24        59.77677
769.66        60.06146
770.07        60.19121
770.49        60.31191
770.90        60.12559
771.32         60.0695
771.73        60.16291
772.15         60.2164
772.56        60.24678
772.97        60.31058
773.39         60.3764
773.80        60.44183
774.22        60.47022
774.63         60.4818
775.05        60.46215
775.46        60.43824
775.88        60.39796
776.29        60.36145
776.70        60.31176
777.12        60.23649
777.53        60.15647
777.95        60.07305
778.36        60.01635
778.77        60.02666
779.19        60.11357
779.60        60.26996
780.02        60.45583
780.43        60.65184
780.84        60.84272
781.26        60.93014
781.67        60.96608
782.09        61.17206
782.50        61.45252
782.91        61.40567
783.33         61.0592
783.74        60.90071
784.15        60.94616
784.57        60.95155
784.98        60.92576
785.39        60.96852
785.81        61.07581
786.22        61.21498
786.63         61.3615
787.04          61.478
787.46        61.56194
787.87        61.59801
788.28          61.603
788.70        61.59928
789.11        61.57157
789.52        61.51701
789.93        61.44999
790.35        61.38384
790.76        61.34715
791.17        61.36181
791.58        61.38605
792.00         61.3743
792.41         61.3575
792.82        61.20377
793.23        61.06844
793.65        61.45184
794.06        62.22249
794.47        62.68058
794.88        62.79441
795.29        62.57673
795.71        62.96883
796.12        62.82278
796.53        62.45731
796.94        62.26976
797.35        62.26355
797.76        62.07291
798.18        61.72456
798.59        61.53496
799.00        61.51771
799.41        61.52986
799.82        61.52314
800.23        61.48052
800.64        61.38848
801.06         61.2343
801.47         61.1095
801.88        61.09799
802.29        61.21991
802.70        61.43779
803.11        61.70034
803.52        61.91917
803.93        62.06282
804.34        62.15527
804.75        62.20086
805.17        62.22445
805.58        62.26971
805.99        62.24074
806.40        62.17851
806.81        62.33824
807.22        62.63625
807.63        62.63976
808.04        62.40641
808.45        62.39958
808.86        62.64213
809.27         62.8628
809.68         62.9837
810.09        62.99332
810.50        62.87197
810.91        62.64299
811.32        62.36379
811.73        62.12991
812.14        61.98005
812.55        61.88631
812.96        61.88568
813.37        62.02937
813.78        62.30188
814.19         62.6833
814.60        63.03521
815.01         63.1438
815.42        62.96995
815.83        62.56148
816.24        62.07621
816.65        61.82444
817.05        61.91212
817.46        62.22716
817.87        62.64088
818.28        62.91072
818.69        62.97429
819.10        62.91026
819.51        62.79814
819.92        62.77519
820.33        62.88274
820.74          63.049
821.14         63.2342
821.55         63.4117
821.96        63.55029
822.37        63.67321
822.78        63.73632
823.19        63.65712
823.60        63.42922
824.00        63.08816
824.41        62.71362
824.82        62.50634
825.23        62.51632
825.64        62.70133
826.04        62.96841
826.45        63.12241
826.86        63.12515
827.27        63.03134
827.68        62.91066
828.08        62.90737
828.49        62.99423
828.90        63.16767
829.31        63.40045
829.72        63.55124
830.12         63.5903
830.53        63.94689
830.94        63.82801
831.35        63.78003
831.75        63.59005
832.16        63.27563
832.57        62.95779
832.97        62.84056
833.38        62.96419
833.79        63.25623
834.20        63.61256
834.60        63.87279
835.01        63.98633
835.42         64.0033
835.82        63.94904
836.23        63.82582
836.64        63.67433
837.04        63.50312
837.45        63.34714
837.86        63.32346
838.26         63.4608
838.67         63.7158
839.08        64.02623
839.48        64.27036
839.89        64.40015
840.29        64.44125
840.70        64.42901
841.11        64.42368
841.51        64.46111
841.92        64.49192
842.33        64.51024
842.73         64.5061
843.14        64.44093
843.54         64.3653
843.95        64.30325
844.35        64.30886
844.76        64.38366
845.17        64.50533
845.57        64.66618
845.98        64.82054
846.38         64.9738
846.79        65.11037
847.19        65.21994
847.60        65.21365
848.00        65.11392
848.41        64.90472
848.81         64.7067
849.22        64.65981
849.62        64.83443
850.03        65.15997
850.43        65.53523
850.84        65.69166
851.24        65.62426
851.65        65.33835
852.05        65.03509
852.46        64.98476
852.86        65.24313
853.27        65.72289
853.67         66.1614
854.07        66.33766
854.48        66.17639
854.88        65.78794
855.29        65.25211
855.69         64.8799
856.10        64.68977
856.50        64.68941
856.90        64.76438
857.31        64.76295
857.71        64.69381
858.12        64.57329
858.52        64.44571
858.92        64.31239
859.33        64.16886
859.73        64.03712
860.13        63.93832
860.54        63.91878
860.94        64.03932
861.34        64.24504
861.75        64.43648
862.15        64.52448
862.55        64.43843
862.96        64.18406
863.36        63.85465
863.76        63.55238
864.17        63.31653
864.57        63.17255
864.97        63.02908
865.38        62.71233
865.78        62.24001
866.18        61.66064
866.58        61.22226
866.99        61.32387
867.39        62.04756
867.79        63.18776
868.19        64.35765
868.60        64.95596
869.00        64.94736
869.40        64.66777
869.80        64.21594
870.21        63.60173
870.61        63.00585
871.01        62.51677
871.41        62.15176
871.81        61.82586
872.22        61.54607
872.62        61.35958
873.02         61.3023
873.42        61.59397
873.82        62.01947
874.22        61.99126
874.63        61.70816
875.03        61.61573
875.43          61.763
875.83        62.94506
876.23         62.3223
876.63        61.63488
877.03        60.62828
877.44        58.65573
877.84        173.1509
878.24         60.2468
878.64        61.17646
879.04         62.7827
879.44        63.23909
879.84        59.56533
880.24        64.56892
880.64        64.44324
881.04        61.54008
881.44        59.34923
881.84        58.55947
882.24        59.28315
882.65        60.74576
883.05        61.24712
883.45        60.45042
883.85        59.32993
884.25        58.42992
884.65        58.17862
885.05        58.71704
885.45        59.78703
885.85        60.93185
886.25        61.53586
886.65        61.45792
887.05        60.90665
887.45        60.13811
887.85        59.57766
888.25        59.38824
888.65        59.44504
889.04         59.6835
889.44         60.0043
889.84        60.33297
890.24        60.69336
890.64        61.03762
891.04        61.28989
891.44         61.4299
891.84        61.45401
892.24        61.36143
892.64        61.17464
893.04        60.92583
893.44        60.64454
893.83        60.39952
894.23         60.2466
894.63        60.22441
895.03        60.33827
895.43        60.57555
895.83         60.8976
896.23        61.26624
896.63        61.64298
897.02        61.99825
897.42        62.36431
897.82        62.69392
898.22         62.9533
898.62        63.05928
899.01        62.89508
899.41        62.44015
899.81        61.78907
900.21        61.04754
900.61        60.38319
901.00        59.86586
901.40        59.53725
901.80        59.46285
902.20         59.5679
902.59        59.79478
902.99        60.43564
903.39        61.43968
903.79        60.92537
904.18        61.68351
904.58        61.48445
904.98        61.20017
905.38        60.81177
905.77        60.37187
906.17        59.89689
906.57         59.5001
906.96        59.47789
907.36        59.86601
907.76        60.59338
908.15        61.46064
908.55        61.97207
908.95        62.04399
909.34        61.76171
909.74        61.34553
910.14        61.12424
910.53        61.19356
910.93        61.42981
911.33        61.69846
911.72        61.78979
912.12         61.6484
912.52        61.35635
912.91        60.97747
913.31        60.67981
913.70        60.48933
914.10        60.36654
914.49        60.28762
914.89         60.1416
915.29        59.94077
915.68        59.71601
916.08        59.57349
916.47        59.61797
916.87        59.89259
917.26        60.34417
917.66        60.85038
918.05        61.23859
918.45        61.43075
918.84         61.4609
919.24        61.41163
919.64        61.48938
920.03         61.7326
920.42         62.0544
920.82        62.28955
921.21        62.19304
921.61        61.75883
922.00        61.16455
922.40        60.66566
922.79        60.50513
923.19        60.34504
923.58        61.06559
923.98        62.95221
924.37        63.13786
924.77        60.07237
925.16        68.81541
925.55        62.13208
925.95        62.66588
926.34        62.68552
926.74         61.9936
927.13        60.55457
927.52        59.63096
927.92        59.76643
928.31        60.27064
928.70        60.98444
929.10         61.5867
929.49        62.00165
929.89          62.345
930.28        62.52938
930.67        62.30593
931.07        61.68934
931.46        60.63443
931.85        59.53848
932.24        59.57256
932.64        60.90199
933.03        62.51845
933.42        63.47654
933.82        66.08875
934.21        64.33864
934.60        62.96751
934.99         61.5769
935.39        61.28671
935.78        62.13728
936.17        64.50278
936.56        71.59595
936.96        64.22314
937.35         68.5286
937.74        65.24332
938.13        62.92902
938.53        61.03039
938.92        60.29707
939.31        61.29846
939.70         62.7654
940.09        63.44144
940.49        63.03585
940.88         62.0118
941.27        60.81957
941.66          60.287
942.05        60.69703
942.44        61.67788
942.84        62.75718
943.23         63.4025
943.62         63.4509
944.01        63.06962
944.40        62.55392
944.79        62.39104
945.18        62.70295
945.57        63.31367
945.97        63.87086
946.36         63.9477
946.75        63.40646
947.14        62.42269
947.53        61.32945
947.92        60.69014
948.31        60.67743
948.70        61.11025
949.09        61.72297
949.48        62.10638
949.87        62.13955
950.26        61.95319
950.65        61.65931
951.04        61.43188
951.43        61.33775
951.82        61.30603
952.21        61.31232
952.60        61.34041
952.99        61.37017
953.38        61.41084
953.77        61.46384
954.16        61.51345
954.55        61.56104
954.94        61.62896
955.33        61.67016
955.72        61.60945
956.11        61.44337
956.50        61.18163
956.89        60.98684
957.28        61.11357
957.66         61.6252
958.05        62.36666
958.44        63.07891
958.83        63.36407
959.22        63.12535
959.61         62.4254
960.00        61.53721
960.39        61.00301
960.78        61.00497
961.16        61.45319
961.55        61.90222
961.94        61.82169
962.33        61.12467
962.72        59.96405
963.11         58.7911
963.49        58.51325
963.88        59.37793
964.27        61.00307
964.66        62.75367
965.04        63.79866
965.43        63.90274
965.82         63.3596
966.21        62.45393
966.60        61.70722
966.98        61.32946
967.37         61.1473
967.76        61.12302
968.15        61.19643
968.53        61.34201
968.92        61.62607
969.31        61.92516
969.69        61.98281
970.08         61.7317
970.47        61.20575
970.86        60.68653
971.24        60.68632
971.63        61.27888
972.02        62.28502
972.40        63.31647
972.79        63.71664
973.17        63.41162
973.56        62.59244
973.95        61.62735
974.33        61.17074
974.72        61.42449
975.11         62.1723
975.49        63.19154
975.88        64.04125
976.26        64.63104
976.65        65.00831
977.04        65.21699
977.42        65.28013
977.81        65.18226
978.19        64.84702
978.58        64.53858
978.96        64.63264
979.35        65.15565
979.74        65.96385
980.12        66.74776
980.51        66.88904
980.89        66.42085
981.28        65.40636
981.66         64.1058
982.05        63.28439
982.43        63.22163
982.82        63.78677
983.20        64.61297
983.59        65.08858
983.97        65.09413
984.35        64.74498
984.74        64.26545
985.12        64.12061
985.51        64.40038
985.89         65.0321
986.28        65.66953
986.66        65.90791
987.04        65.72936
987.43        65.13835
987.81        64.26268
988.20        65.01529
988.58        67.65147
988.96        68.88919
989.35        67.67007
989.73        74.09044
990.12        70.08755
990.50        69.59278
990.88        68.12596
991.27        67.00192
991.65        66.40421
992.03        66.34987
992.42        66.80457
992.80        66.99636
993.18        66.75491
993.56        66.37353
993.95        65.93045
994.33        65.48068
994.71        65.11245
995.10        64.74594
995.48        64.57751
995.86        64.96473
996.24        65.89518
996.63        67.11249
997.01        68.35426
997.39         68.9948
997.77        68.87421
998.15        68.20461
998.54        67.17455
998.92        65.96881
999.30        64.76162
999.68         63.5359
1000.06        62.56748
1000.45        62.34831
1000.83        63.09728
1001.21        64.65207
1001.59        66.59837
1001.97        68.28137
1002.35        69.46687
1002.73        70.23988
1003.12        70.71893
1003.50        71.18274
1003.88        71.70425
1004.26        72.22958
1004.64        72.67448
1005.02         72.8761
1005.40        72.74384
1005.78        72.29155
1006.16         71.7078
1006.54        71.27314
1006.92        71.08854
1007.30        71.19698
1007.69        71.24629
1008.07        70.77203
1008.45        69.69418
1008.83        68.11983
1009.21        66.79363
1009.59        67.20628
1009.97        69.49495
1010.35        72.73698
1010.73        75.78482
1011.11          77.746
1011.49        78.66171
1011.86        78.54837
1012.24        77.34527
1012.62        78.22485
1013.00         78.5725
1013.38        78.03013
1013.76        75.17348
1014.14        78.97339
1014.52        85.15135
1014.90        76.61681
1015.28         77.7637
1015.66        79.27528
1016.04        75.44899
1016.41        75.98571
1016.79        75.35192
1017.17        75.27775
1017.55        75.09115
1017.93        75.02885
1018.31        75.32281
1018.69        75.72993
1019.06        76.26374
1019.44        76.93686
1019.82        77.36284
1020.20        76.93836
1020.58        75.54681
1020.95        73.02268
1021.33        70.21351
1021.71        69.50504
1022.09        71.79845
1022.46        75.74224
1022.84        79.37392
1023.22        81.37974
1023.60        81.89131
1023.97        81.40494
1024.35        80.36024
1024.73        79.62283
