SpectraSmart Spectrum 2.9.0.0
--------- Device Information -----------
Spectrum Name :  反射率_0
Saving Time :  2024/04/21 00:53:59
Spectro-Module Model Name : SE2030-DUVN
Spectro-Module Serial Number : OS361AC55029948
Wavelength Start : 200
Wavelength End : 1025
Wavelength Unit : Wavelength(nm)
Spectrum Unit : Reflectance(%)
-----------Spectrum Setting ------------
Integration Time : 20ms
Average : 10
Boxcar : 0
Background removal :  enabled
linearity correction :  enabled
SC :  disabled
Intensity correction :  disabled
DWT denoise :  enabled
savitzky-golay :  disabled
FFT :  disabled
Running average :  disabled
Kalman :  disabled
High pass :  disabled
---------------BEGIN--------------------
Wavelength(nm)             Reflectance(%)
200.29               0
200.75       -1.488211
201.21         14.0837
201.67        24.45937
202.13        31.12861
202.58        36.23191
203.04        42.38308
203.50        48.78692
203.96        51.38616
204.42        48.11745
204.88         39.5485
205.34        29.85017
205.80        24.40674
206.26         24.7028
206.72        32.43511
207.18        42.77399
207.64        42.05938
208.10        25.87109
208.55      -0.6208583
209.01       -16.79689
209.47        1.104228
209.93        30.97067
210.39        55.56586
210.85        71.78683
211.31        80.19697
211.77        83.68546
212.23        84.19096
212.69        81.79179
213.14         78.3855
213.60        73.96836
214.06        62.88579
214.52        27.51067
214.98        36.29277
215.44        50.67778
215.90        57.87962
216.36        59.95345
216.81        57.32072
217.27        47.95717
217.73        6.627703
218.19         497.002
218.65        237.9418
219.11       -391.5519
219.57        22.91107
220.02         49.6163
220.48        55.00915
220.94          53.948
221.40        46.83136
221.86         29.3504
222.32        20.11736
222.77        38.21108
223.23        52.59383
223.69        59.26829
224.15        60.79252
224.61         59.5245
225.06         56.8525
225.52        53.44303
225.98        50.01812
226.44        47.14668
226.90        44.06526
227.36        42.74636
227.81        46.15446
228.27        52.11076
228.73        57.96224
229.19         61.5754
229.65        61.82288
230.10        59.15606
230.56        54.37727
231.02        48.27809
231.48        44.26351
231.93        44.71194
232.39        48.49398
232.85        52.66947
233.31        54.74053
233.77        54.84956
234.22        54.06269
234.68        52.96915
235.14        52.67589
235.60        53.77618
236.05        55.52044
236.51        57.50156
236.97        61.99286
237.43        68.46301
237.88        72.29038
238.34        71.86716
238.80        82.27048
239.26        78.63791
239.71        79.30338
240.17        78.04576
240.63        77.80952
241.08        80.50571
241.54        86.87032
242.00        94.94482
242.46        99.91013
242.91        100.7871
243.37        96.01909
243.83        87.54742
244.28        83.86935
244.74        89.03462
245.20        99.64223
245.66         108.039
246.11        105.5931
246.57        91.78059
247.03        68.95609
247.48        41.56794
247.94        17.11151
248.40       -3.821713
248.85       -32.43413
249.31       -83.54268
249.77       -53.88001
250.22        45.52636
250.68        67.98197
251.14        73.42413
251.59        78.58154
252.05        86.94519
252.51        99.35557
252.96        114.8073
253.42        124.6807
253.88        121.7127
254.33        110.4222
254.79        101.3912
255.25        100.1277
255.70        103.1831
256.16        107.4631
256.62        110.1724
257.07        109.8188
257.53           108.1
257.99        105.6452
258.44        102.9637
258.90        101.5775
259.35        100.5307
259.81        99.93111
260.27        99.08572
260.72        97.45778
261.18        95.75694
261.63        93.79072
262.09        92.05455
262.55        90.19604
263.00        88.09197
263.46        86.10236
263.91         84.1785
264.37         82.9716
264.83        82.31848
265.28         81.9052
265.74        81.58716
266.19        80.77448
266.65        79.52039
267.11        77.92463
267.56        76.09247
268.02        74.33523
268.47        72.67722
268.93        71.08064
269.38        69.54455
269.84        68.16992
270.30        66.93308
270.75        65.83283
271.21         64.7668
271.66        63.45701
272.12        61.92911
272.57        60.24412
273.03        58.63853
273.48        57.36138
273.94        56.49419
274.39        55.86261
274.85        55.36923
275.31        54.76047
275.76        53.95284
276.22        53.09196
276.67        52.16995
277.13        51.32181
277.58        50.50875
278.04         49.7519
278.49        49.00788
278.95        48.37776
279.40        47.78284
279.86        47.26451
280.31        46.69049
280.77        46.01319
281.22        45.17284
281.68        44.28607
282.13        43.37656
282.59        42.60671
283.04        41.96251
283.50        41.44975
283.95        41.02856
284.41        40.70357
284.86        40.44494
285.32        40.30182
285.77        40.20729
286.22        40.11193
286.68        40.02517
287.13        39.88873
287.59        39.83131
288.04         39.9278
288.50        40.16726
288.95        40.57532
289.41        41.03112
289.86        40.94212
290.32        40.24936
290.77        40.54938
291.22        39.48484
291.68        39.38382
292.13        39.56335
292.59        40.03303
293.04        40.73238
293.50        41.63236
293.95        42.69644
294.40        43.90471
294.86        45.18697
295.31        46.41482
295.77        47.56086
296.22        48.63436
296.68        49.69293
297.13        50.81978
297.58        52.06469
298.04        53.40493
298.49        54.85575
298.95        56.46407
299.40        58.19346
299.85        60.03458
300.31        61.88628
300.76        63.55045
301.21        65.01331
301.67        66.36285
302.12        67.69445
302.58        69.28861
303.03        71.15157
303.48        73.23995
303.94        75.44539
304.39        77.53291
304.84        79.44726
305.30        81.26941
305.75        82.99386
306.20        84.74216
306.66        86.54678
307.11        88.30321
307.57        90.02384
308.02        91.63215
308.47          93.149
308.93        94.64243
309.38        96.06123
309.83        97.41557
310.29         98.7317
310.74        99.96333
311.19        101.1775
311.65        102.4618
312.10        103.7955
312.55        105.1439
313.00        106.4028
313.46        107.4103
313.91        108.1215
314.36        108.6189
314.82        109.0038
315.27        109.4207
315.72        109.9358
316.18        110.5073
316.63        111.1447
317.08        111.8611
317.53        112.6289
317.99        113.4348
318.44        114.1811
318.89        114.6915
319.35        114.9311
319.80        114.9583
320.25        114.8866
320.70        114.9186
321.16        115.1075
321.61        115.4183
322.06        115.7909
322.51          116.13
322.97        116.3855
323.42         116.635
323.87        116.8653
324.32        117.0703
324.78        117.2341
325.23        117.3859
325.68        117.5428
326.13        117.7772
326.59        118.0722
327.04         118.469
327.49        118.8775
327.94        119.1821
328.39        119.3555
328.85        119.3972
329.30        119.4513
329.75         119.611
330.20        119.9127
330.66        120.2807
331.11        120.7313
331.56        121.1346
332.01        121.4579
332.46        121.7309
332.92        121.9309
333.37        122.1799
333.82        122.4534
334.27        122.7483
334.72        123.0737
335.17         123.448
335.63        123.8411
336.08        124.3124
336.53        124.8386
336.98        125.4312
337.43        126.0735
337.88        126.7432
338.34        127.3462
338.79        127.8035
339.24        128.0671
339.69        128.1773
340.14        128.2174
340.59        128.3236
341.05        128.5454
341.50        128.8667
341.95        129.2635
342.40        129.6953
342.85        130.1346
343.30          130.58
343.75        131.0159
344.20        131.4185
344.66        131.7836
345.11        132.0911
345.56        132.3168
346.01        132.4327
346.46        132.4594
346.91         132.391
347.36        132.2893
347.81        132.3493
348.26        132.6087
348.72          132.64
349.17        133.0615
349.62        133.2316
350.07        133.3257
350.52        133.3426
350.97        133.2827
351.42        133.1412
351.87        132.9141
352.32        132.5998
352.77        132.2231
353.22        131.8216
353.67        131.4088
354.13        131.0117
354.58        130.5748
355.03        130.0607
355.48         129.475
355.93        128.8374
356.38        128.2313
356.83        127.7787
357.28          127.48
357.73        127.2754
358.18        127.0351
358.63        126.5582
359.08        125.8033
359.53        124.8451
359.98        123.7869
360.43        122.7851
360.88        121.8876
361.33        121.0485
361.78         120.253
362.23        119.4773
362.68        118.7095
363.13        117.9729
363.58        117.2301
364.03        116.4099
364.48        115.5025
364.93         114.521
365.38        113.5355
365.83        112.6709
366.28        111.9477
366.73        111.3154
367.18        110.7002
367.63        109.9836
368.08        109.1387
368.53         108.223
368.98        107.2545
369.43        106.2467
369.88        105.2155
370.33        104.1478
370.78        103.1257
371.23        102.3099
371.68        101.7362
372.13        101.3605
372.58        101.0519
373.03         100.582
373.48        99.89014
373.93        99.04636
374.38        98.13211
374.83        97.30239
375.28        96.61704
375.72         95.9986
376.17        95.48447
376.62        95.04496
377.07        94.64477
377.52        94.28606
377.97        93.88138
378.42        93.29649
378.87        92.53278
379.32        91.65079
379.77         90.7824
380.22        90.10535
380.67        89.63773
381.11        89.32151
381.56        89.04898
382.01        88.66398
382.46        88.13461
382.91        87.52934
383.36        86.89891
383.81        86.31496
384.26         85.7992
384.71        85.31515
385.15        84.86602
385.60        84.52972
386.05        84.27534
386.50        84.08932
386.95        83.88139
387.40        83.51472
387.85        82.98331
388.29        82.29403
388.74        81.66193
389.19        81.17178
389.64        80.83279
390.09         80.5857
390.54        80.36961
390.98        80.07283
391.43        79.72269
391.88        79.36028
392.33        79.00083
392.78        78.67328
393.23        78.39031
393.67        78.05406
394.12        77.79753
394.57        77.72086
395.02        77.77336
395.47        77.72826
395.91         77.5424
396.36        77.30185
396.81        77.02583
397.26        76.66927
397.71        76.26865
398.15         75.9257
398.60        75.74992
399.05        75.50431
399.50        75.26513
399.95        75.45078
400.39        75.90511
400.84        75.85119
401.29        75.29218
401.74        74.79248
402.18        74.47304
402.63        74.22939
403.08        74.01604
403.53        73.68647
403.97        73.23503
404.42        72.82816
404.87        72.54406
405.32        72.39867
405.76        72.38028
406.21        72.59139
406.66        72.86619
407.11        72.71722
407.55        72.21978
408.00        71.93806
408.45        71.93627
408.90        71.78719
409.34        71.48843
409.79        71.32585
410.24        71.27266
410.68        71.17827
411.13        71.03239
411.58        70.87074
412.03        70.71478
412.47        70.62843
412.92        70.59989
413.37        70.61462
413.81        70.64254
414.26        70.70316
414.71        70.76806
415.15        70.84695
415.60        70.89127
416.05        70.88242
416.49        70.81625
416.94        70.69154
417.39        70.53303
417.83        70.36969
418.28        70.21735
418.73        70.07037
419.17        69.92645
419.62        69.79002
420.07        69.66214
420.51        69.53824
420.96        69.44755
421.41        69.37403
421.85        69.28551
422.30        69.24277
422.74        69.20522
423.19        69.17902
423.64        69.16506
424.08         69.2847
424.53        69.43092
424.98        69.49495
425.42        69.47649
425.87        69.28422
426.31        69.04545
426.76        69.21264
427.21        69.68313
427.65        69.75854
428.10         69.3991
428.54        69.21381
428.99        69.25681
429.44        69.14877
429.88        68.90607
430.33        68.86102
430.77        68.92399
431.22        68.98399
431.66         69.0177
432.11        69.09021
432.56        69.18141
433.00        69.22939
433.45        69.05294
433.89        68.78436
434.34        68.53174
434.78        68.40364
435.23        67.47231
435.67        68.95305
436.12        68.88971
436.57        69.13544
437.01        68.68356
437.46        68.46917
437.90        69.31012
438.35        68.68291
438.79        69.13342
439.24        68.98219
439.68        68.94896
440.13        68.86189
440.57        68.75092
441.02        68.91616
441.46        69.24191
441.91        69.12236
442.35        68.67078
442.80        69.04437
443.24        69.99471
443.69        70.04217
444.13        69.21417
444.58        68.82969
445.02        69.02828
445.47        68.81667
445.91        69.34709
446.36        69.41859
446.80        69.36068
447.24        69.26495
447.69        69.20159
448.13        69.33179
448.58        69.41368
449.02        69.36008
449.47        69.13461
449.91        68.99532
450.36        68.97628
450.80        68.84894
451.25        68.67257
451.69        68.68941
452.13         68.8507
452.58        68.80431
453.02        68.55296
453.47        68.40779
453.91          68.369
454.36        68.27233
454.80        68.10661
455.24        67.97643
455.69        67.91384
456.13        67.78793
456.58        67.63787
457.02        67.75101
457.46         67.7142
457.91          67.649
458.35        67.56084
458.79        67.46143
459.24        67.39742
459.68        67.31972
460.13        67.28219
460.57        67.09875
461.01           66.76
461.46        66.83802
461.90        66.76945
462.34        66.24239
462.79        66.46937
463.23        66.56534
463.68        66.81572
464.12        66.71657
464.56        66.31781
465.01        66.25677
465.45        66.39484
465.89        66.22163
466.34        65.84185
466.78        65.68185
467.22        65.77188
467.67        65.90273
468.11        65.89105
468.55         65.7493
468.99         65.4822
469.44        65.30636
469.88        65.24192
470.32        65.13171
470.77        64.95908
471.21        64.85104
471.65          64.825
472.10         64.7196
472.54        64.47917
472.98        64.79287
473.42        64.47429
473.87        64.46395
474.31        64.38771
474.75        64.44744
475.20        64.60865
475.64        64.44779
476.08        64.50865
476.52        64.44328
476.97        64.34511
477.41        64.51915
477.85        64.95273
478.29        64.15919
478.74        63.88071
479.18        64.17477
479.62        64.27278
480.06        64.45717
480.50        64.33914
480.95        64.40755
481.39        64.60793
481.83        64.41052
482.27          64.605
482.72        64.39089
483.16        64.28898
483.60        64.33218
484.04         64.5808
484.48         64.2871
484.93        64.16564
485.37        64.37861
485.81        64.61197
486.25        64.32058
486.69        65.78899
487.14        65.55073
487.58        64.85099
488.02        64.18748
488.46        63.94814
488.90        64.01395
489.34         64.1393
489.79         63.8519
490.23        63.97758
490.67        64.08266
491.11        64.34007
491.55        64.11961
491.99        63.55828
492.43        63.33567
492.88         63.5009
493.32         63.7464
493.76        63.91917
494.20        64.02182
494.64        64.04061
495.08        63.63296
495.52        63.40678
495.96        63.39856
496.41        63.66101
496.85        63.58144
497.29         63.1733
497.73        63.16635
498.17        63.22104
498.61        63.38432
499.05        63.46097
499.49        63.29809
499.93        63.01879
500.37        63.01838
500.82        63.26385
501.26        63.56481
501.70        63.79171
502.14        63.38493
502.58        62.99419
503.02         62.7912
503.46        62.92289
503.90        63.09987
504.34         63.2136
504.78        63.27647
505.22        63.27973
505.66        63.14028
506.10         62.8963
506.54        62.90254
506.98        63.23973
507.42        62.69058
507.86        63.27777
508.30        63.22875
508.74        63.22057
509.18        63.14236
509.62        63.05128
510.06        62.98994
510.50        62.93348
510.94         62.8172
511.38        62.65553
511.82        62.54629
512.26        62.49743
512.70        62.46191
513.14         62.4312
513.58        62.40873
514.02        62.38842
514.46        62.36766
514.90        62.33603
515.34        62.31318
515.78        62.30456
516.22        62.28252
516.66        62.09496
517.10        62.32541
517.54        62.11913
517.98        62.14253
518.42        62.14951
518.86        62.17379
519.30        62.21317
519.74        62.22522
520.18        62.22947
520.62        62.33405
521.06        62.49092
521.50        62.47015
521.93        62.29219
522.37        62.19089
522.81        62.18455
523.25        62.14524
523.69        62.06686
524.13        61.99656
524.57        61.93773
525.01         61.8844
525.45        61.84755
525.89        61.84188
526.32        61.86538
526.76        61.91446
527.20        61.97627
527.64        62.03307
528.08        62.07497
528.52        62.10637
528.96        62.11885
529.40        62.09354
529.83        62.03019
530.27        61.96639
530.71        61.90758
531.15        61.86053
531.59        61.83255
532.03        61.82792
532.46        61.83924
532.90        61.86731
533.34        61.90066
533.78        61.93471
534.22        61.95837
534.66         61.9554
535.09        61.91437
535.53        61.86324
535.97        61.79305
536.41        61.70781
536.85        61.61561
537.28        61.51965
537.72        61.44573
538.16          61.435
538.60        61.49035
539.04        61.59695
539.47         61.7023
539.91        61.77806
540.35        61.79572
540.79        61.77137
541.22        61.72269
541.66        61.69432
542.10        61.69363
542.54        61.70518
542.97        61.71701
543.41        61.74279
543.85        61.77498
544.29        61.82677
544.72        61.87022
545.16        61.90345
545.60        61.91196
546.04        61.85674
546.47        61.79234
546.91        61.87922
547.35        62.07733
547.79        62.22259
548.22        62.23956
548.66        62.10781
549.10        61.88552
549.53        61.75339
549.97        61.73195
550.41        61.65788
550.84        61.55749
551.28        61.51025
551.72        61.50587
552.15         61.5772
552.59         61.7534
553.03        61.53825
553.46        61.77767
553.90        61.73466
554.34        61.65423
554.77        61.51803
555.21        61.40399
555.65        61.39759
556.08        61.49243
556.52        61.70128
556.96        61.92691
557.39        61.98083
557.83        61.87922
558.27         61.7683
558.70        61.68113
559.14        61.60114
559.57        61.54728
560.01        61.54491
560.45         61.5566
560.88        61.65936
561.32        61.82769
561.75        61.63018
562.19        61.23937
562.63         61.3942
563.06        61.94801
563.50        61.97902
563.93        61.46652
564.37         61.2275
564.80        61.29223
565.24        61.46154
565.68          61.671
566.11        61.76669
566.55        61.73636
566.98        61.79454
567.42         61.9514
567.85        61.73199
568.29          61.535
568.72        61.56831
569.16        61.93571
569.60         61.9959
570.03         62.0255
570.47        62.13104
570.90        62.35682
571.34        62.11308
571.77        62.53713
572.21         62.1058
572.64        62.47524
573.08        62.21349
573.51        62.20797
573.95          62.638
574.38        62.59973
574.82        62.94712
575.25        62.95827
575.69        62.64792
576.12        62.18187
576.56        62.40679
576.99        62.68679
577.42        62.94364
577.86        62.89883
578.29        63.45259
578.73        63.42946
579.16        63.08928
579.60        62.50828
580.03        62.65804
580.47        63.09862
580.90         62.6451
581.33        62.92257
581.77        63.16312
582.20        63.53351
582.64        63.64438
583.07        63.00645
583.51        62.70081
583.94         62.5561
584.37        62.36763
584.81        62.27733
585.24        62.32427
585.68        62.90497
586.11        62.79642
586.54        62.60652
586.98         62.8126
587.41        62.51302
587.85        62.78197
588.28        62.81966
588.71        62.79087
589.15        62.60336
589.58        62.21316
590.01         62.3797
590.45        61.66412
590.88        62.25185
591.31        61.87339
591.75         61.8531
592.18        61.89852
592.61        62.18433
593.05        62.52161
593.48        62.75977
593.91        62.75076
594.35        62.56604
594.78        62.64039
595.21        62.23718
595.65        62.28673
596.08        62.46225
596.51        62.63194
596.94        62.19993
597.38        62.14066
597.81        62.39045
598.24        62.38963
598.68        61.92982
599.11        62.62552
599.54        62.57403
599.97        62.13755
600.41        62.23672
600.84        62.55199
601.27        62.29862
601.70        62.39391
602.14        62.09303
602.57        62.09911
603.00        62.15544
603.43        62.72995
603.87        62.62004
604.30         62.3942
604.73         62.2198
605.16        62.16262
605.60        62.18734
606.03        62.30482
606.46        62.36593
606.89         62.4845
607.32        61.77971
607.76        62.34733
608.19        62.24129
608.62        62.12275
609.05        62.69531
609.48        62.31425
609.92        62.56478
610.35         62.3704
610.78        62.60988
611.21        62.17319
611.64        62.35567
612.07        62.24905
612.50        62.20591
612.94        62.15196
613.37        62.10052
613.80        62.23875
614.23        62.32824
614.66        62.14193
615.09        62.03064
615.52        61.96817
615.96        62.07619
616.39        62.03212
616.82        61.80884
617.25        62.03738
617.68        61.91064
618.11        61.85194
618.54        61.79626
618.97        61.80552
619.40        61.95149
619.84        61.69663
620.27        61.84228
620.70        61.89254
621.13        62.03081
621.56        61.97895
621.99        61.79325
622.42        61.80142
622.85        61.94003
623.28        61.92831
623.71        61.91283
624.14        61.63143
624.57        61.87561
625.00        62.21653
625.43         61.7183
625.86         61.7839
626.29        62.12378
626.72         61.6937
627.15        61.89301
627.58        61.84375
628.01        62.02409
628.44        61.66262
628.87        61.52206
629.30        61.93435
629.73        61.73689
630.16        61.75265
630.59         61.5052
631.02        61.71735
631.45        61.48042
631.88         61.5126
632.31         61.5798
632.74         61.3855
633.17        61.54787
633.60        61.48779
634.03        61.38998
634.46        61.36022
634.89        61.34201
635.32        61.18942
635.75        61.33097
636.18        61.38979
636.61        61.47464
637.04        61.53395
637.47        61.55894
637.89        61.56298
638.32        61.53612
638.75        61.50184
639.18        61.46794
639.61        61.43007
640.04        61.40195
640.47        61.40653
640.90        61.44557
641.33        61.51207
641.76        61.58477
642.18        61.63315
642.61        61.63416
643.04        61.60539
643.47        61.55871
643.90        61.52071
644.33        61.49931
644.76        61.47057
645.18        61.44393
645.61        61.45642
646.04        61.49863
646.47        61.51377
646.90        61.48772
647.33        61.46743
647.75        61.44862
648.18        61.36502
648.61        61.27405
649.04        61.34492
649.47        61.49634
649.89        61.73018
650.32         61.3922
650.75         61.3766
651.18        61.47699
651.61        61.43651
652.03        61.28594
652.46        61.18401
652.89        61.16828
653.32         61.2892
653.74        61.55377
654.17        61.45618
654.60        61.20514
655.03        61.34467
655.46        61.20702
655.88        61.34691
656.31        62.93453
656.74        67.05385
657.16        65.68384
657.59        63.76265
658.02        62.28201
658.45        62.13194
658.87        61.93445
659.30        62.03795
659.73        61.39163
660.15        60.80636
660.58         61.3243
661.01        61.61108
661.44         61.8609
661.86        61.88831
662.29        61.69219
662.72        61.46113
663.14        61.27888
663.57        61.19108
664.00        61.20059
664.42        61.19289
664.85        61.17762
665.27        61.15947
665.70        61.31049
666.13        61.36425
666.55        61.36962
666.98         61.3443
667.41        61.31278
667.83        61.32352
668.26         61.3959
668.69        61.45394
669.11         61.4654
669.54        61.60125
669.96        61.89955
670.39        61.48991
670.82        61.85216
671.24        61.78559
671.67        61.71618
672.09        61.63337
672.52        61.58302
672.94        61.48344
673.37        61.38243
673.80        61.47647
674.22        61.72438
674.65        61.83387
675.07        61.79229
675.50        61.73415
675.92         61.6881
676.35        61.62585
676.77        61.55981
677.20        61.51056
677.62        61.50927
678.05        61.52618
678.47        61.54556
678.90        61.83327
679.32        61.86079
679.75        61.95816
680.17        61.96439
680.60        61.91932
681.02        61.83974
681.45        61.74797
681.87        61.67684
682.30        61.62179
682.72        61.61568
683.15        61.67634
683.57        61.76681
684.00        61.93776
684.42        61.82621
684.85        61.83649
685.27        61.85421
685.70        61.81252
686.12        61.71398
686.54        61.67606
686.97        61.64603
687.39        61.67966
687.82        61.74086
688.24        61.76864
688.66        61.73161
689.09        61.89383
689.51        61.80949
689.94        61.91384
690.36        62.05546
690.78        62.18371
691.21        62.26979
691.63        62.25422
692.06        62.17955
692.48        62.18242
692.90        62.25504
693.33        62.26433
693.75        62.22048
694.17        62.15452
694.60        62.08368
695.02        62.22663
695.44        62.29848
695.87        62.34496
696.29        62.31186
696.71        62.29693
697.14        62.31113
697.56        62.44246
697.98        62.64469
698.41        62.52111
698.83        62.54504
699.25        62.35145
699.68         62.2156
700.10        62.09716
700.52        62.04648
700.94        62.04723
701.37        62.06907
701.79        62.11345
702.21        62.14875
702.64        62.18677
703.06        62.21743
703.48         62.2312
703.90        62.23183
704.33        62.21737
704.75        62.20038
705.17        62.18488
705.59        62.17434
706.01        62.16272
706.44        62.16973
706.86        62.23632
707.28        62.34942
707.70        62.51982
708.12        62.69529
708.55        62.73465
708.97        62.64071
709.39        62.56363
709.81        62.53623
710.23        62.51363
710.66        62.51317
711.08        62.59435
711.50        62.71107
711.92        62.77497
712.34        62.77039
712.76        62.72112
713.19        62.65154
713.61        62.64813
714.03        62.70387
714.45        62.80985
714.87        62.92978
715.29        62.96635
715.71          62.899
716.13        62.91829
716.56        62.75382
716.98        62.75012
717.40        62.82002
717.82        62.94043
718.24        63.07057
718.66         63.1493
719.08        63.16189
719.50        63.13249
719.92        63.07381
720.34        63.00286
720.76        62.93376
721.19        62.85244
721.61         62.8082
722.03        62.85309
722.45        62.99295
722.87        63.21153
723.29        63.44598
723.71        63.59066
724.13        63.61727
724.55        63.54955
724.97        63.44608
725.39        63.40762
725.81        63.46318
726.23        63.58519
726.65        63.72252
727.07        63.79851
727.49        63.79389
727.91        63.72235
728.33        63.63675
728.75        63.63877
729.17        63.72844
729.59        63.85064
730.01        63.96676
730.43        63.96202
730.85        63.87461
731.27        63.93726
731.69        64.12128
732.10        64.10918
732.52        64.08521
732.94        63.82288
733.36         63.4724
733.78        63.26896
734.20        63.26289
734.62        63.33222
735.04        63.42457
735.46        63.51311
735.88        63.57271
736.30        63.60558
736.72        63.64079
737.13        63.73781
737.55        63.86401
737.97         64.0293
738.39        64.18271
738.81        64.22138
739.23         64.1446
739.65        64.06512
740.06        63.98972
740.48        63.93993
740.90        63.89736
741.32        63.90018
741.74        63.95058
742.16        64.02294
742.57        64.11831
742.99        64.22724
743.41        64.32789
743.83        64.36426
744.25        64.32742
744.67         64.2214
745.08        64.12342
745.50        64.12381
745.92        64.25793
746.34        64.49943
746.75        64.74743
747.17        64.83485
747.59         64.7278
748.01         64.4426
748.42        64.12144
748.84        64.01728
749.26        64.14586
749.68        64.39753
750.09        64.64323
750.51        64.58212
750.93        64.29301
751.35        64.28883
751.76        64.56886
752.18        64.69202
752.60        64.64606
753.01        64.71944
753.43          64.852
753.85        64.85183
754.27        64.70634
754.68        64.48116
755.10        64.25491
755.52        64.12355
755.93        64.11552
756.35        64.20992
756.77        64.38022
757.18        64.51297
757.60        64.55943
758.02        64.67661
758.43        64.91941
758.85        64.62997
759.26        64.90782
759.68         65.1806
760.10        64.92762
760.51        64.69595
760.93        65.11711
761.34        64.68594
761.76        65.05082
762.18        65.14779
762.59        65.28643
763.01        65.33966
763.42        64.51758
763.84        64.51807
764.26        64.75681
764.67        65.11537
765.09        65.37981
765.50        65.61272
765.92        65.76384
766.33        65.63155
766.75        65.28889
767.16        65.11945
767.58        65.11485
768.00        65.27752
768.41        65.53828
768.83         65.3364
769.24         64.7813
769.66        65.15021
770.07        65.44825
770.49        65.61796
770.90        65.36314
771.32         65.0955
771.73        64.92455
772.15          64.844
772.56        64.90436
772.97        65.09612
773.39        65.31902
773.80        65.48074
774.22        65.51045
774.63        65.45198
775.05        65.34985
775.46        65.33096
775.88        65.40041
776.29        65.54166
776.70        65.66559
777.12        65.64339
777.53        65.47228
777.95         65.2007
778.36        64.92435
778.77        64.78368
779.19        64.81927
779.60        64.99225
780.02        65.24632
780.43        65.52149
780.84        65.78158
781.26        65.98227
781.67        66.14311
782.09        66.31633
782.50        66.44825
782.91        66.37785
783.33        66.12785
783.74        65.98374
784.15        65.95254
784.57         65.9304
784.98        65.91118
785.39        65.90556
785.81        65.90785
786.22        65.91407
786.63        65.94324
787.04        66.02305
787.46        66.16129
787.87        66.32049
788.28          66.467
788.70         66.5264
789.11        66.46575
789.52         66.3659
789.93         66.2831
790.35        66.18327
790.76        66.16271
791.17        66.46494
791.58        66.96648
792.00        67.23769
792.41        67.24995
792.82        67.09372
793.23        66.92457
793.65         67.0723
794.06        67.47468
794.47        67.69853
794.88        67.73421
795.29        67.38311
795.71        67.66372
796.12        67.48305
796.53        67.18497
796.94        67.12278
797.35        67.30565
797.76        67.27248
798.18        66.99169
798.59        66.99002
799.00        67.33169
799.41        66.75616
799.82        67.14431
800.23        67.00386
800.64        66.90639
801.06        66.77218
801.47        66.69239
801.88        66.70699
802.29        66.80283
802.70        66.96905
803.11        67.15852
803.52        67.29063
803.93        67.35448
804.34        67.39019
804.75        67.38416
805.17        67.38232
805.58        67.44123
805.99        67.29529
806.40        67.07813
806.81        67.58017
807.22        68.54209
807.63        68.63593
808.04        67.93931
808.45        67.71974
808.86         68.0532
809.27         68.1787
809.68        68.05025
810.09        67.97088
810.50        67.94558
810.91        67.89774
811.32        67.83375
811.73         67.7596
812.14        67.67834
812.55        67.60744
812.96        67.55467
813.37        67.51939
813.78        67.50494
814.19        67.51392
814.60        67.54288
815.01        67.58435
815.42        67.63531
815.83        67.69576
816.24        67.76072
816.65        67.81985
817.05        67.87371
817.46        67.89671
817.87        67.91946
818.28        67.94864
818.69        67.98954
819.10         68.0401
819.51        68.10964
819.92         68.2115
820.33        68.33899
820.74        68.47673
821.14        68.59595
821.55        68.67507
821.96        68.69574
822.37        68.66667
822.78        68.59023
823.19        68.47657
823.60        68.33501
824.00        68.17756
824.41        68.00313
824.82        67.87527
825.23        67.81219
825.64        67.82557
826.04        67.88308
826.45        67.88572
826.86        67.83109
827.27        67.73732
827.68        67.69401
828.08        67.87994
828.49        68.24803
828.90        68.77617
829.31        69.32793
829.72        69.60667
830.12        69.55458
830.53         69.5669
830.94        69.09428
831.35        68.80143
831.75        68.58318
832.16        68.40299
832.57        68.30186
832.97        68.33292
833.38        68.48643
833.79        68.74007
834.20        69.04103
834.60        69.30448
835.01        69.49536
835.42        69.62253
835.82         69.6734
836.23        69.58833
836.64        69.39264
837.04        69.12667
837.45        68.84162
837.86        68.67995
838.26        68.69008
838.67        68.82349
839.08        69.05208
839.48        69.30798
839.89        69.54374
840.29        69.76724
840.70        69.95102
841.11        70.05058
841.51        70.07722
841.92        70.01273
842.33        69.89338
842.73        69.78667
843.14        69.67683
843.54         69.5805
843.95        69.53336
844.35         69.6112
844.76         69.8046
845.17        70.09562
845.57        70.38781
845.98        70.48413
846.38        70.37227
846.79        70.08138
847.19        69.75535
847.60        69.55286
848.00         69.5601
848.41         69.6972
848.81        69.93578
849.22        70.14504
849.62        70.31496
850.03        70.44116
850.43        70.55992
850.84        70.62185
851.24        70.67626
851.65        70.65253
852.05        70.62898
852.46        70.64695
852.86        70.71889
853.27        70.87424
853.67        70.97443
854.07        70.96804
854.48        70.81363
854.88        70.55021
855.29        70.24008
855.69         70.1741
856.10         70.3185
856.50        70.68964
856.90        71.04247
857.31        71.01149
857.71        70.57547
858.12        69.79964
858.52        68.93692
858.92        68.34659
859.33        68.13921
859.73        68.26431
860.13        68.58669
860.54        68.87378
860.94        69.09512
861.34        69.26665
861.75        69.38052
862.15        69.50119
862.55        69.60021
862.96        69.62608
863.36        69.57867
863.76        69.42458
864.17         69.1683
864.57        68.87222
864.97        68.56817
865.38        68.28642
865.78        68.09013
866.18        67.96014
866.58        67.95524
866.99        68.14022
867.39        68.53406
867.79        69.07736
868.19        69.59789
868.60        69.77169
869.00        69.61607
869.40        69.35818
869.80        69.07688
870.21        68.76157
870.61         68.5373
871.01        68.46099
871.41        68.45049
871.81        68.29575
872.22        67.98225
872.62        67.59263
873.02        67.24448
873.42        67.30049
873.82        67.63858
874.22        67.69742
874.63        67.62782
875.03           67.77
875.43        68.11793
875.83        69.33048
876.23        68.96807
876.63        68.33775
877.03        67.19961
877.44        65.02271
877.84        162.9421
878.24        65.42664
878.64        66.18098
879.04        67.76318
879.44        68.48698
879.84        65.71597
880.24        70.25043
880.64        70.41231
881.04        68.25842
881.44        66.70348
881.84         66.2862
882.24         67.0573
882.65        68.31963
883.05        68.65601
883.45        67.79231
883.85         66.5583
884.25        65.50383
884.65        65.14265
885.05          65.624
885.45        66.66959
885.85        67.84233
886.25        68.53974
886.65        68.61073
887.05        68.26997
887.45        67.66599
887.85        67.04819
888.25        66.55119
888.65        66.08885
889.04        65.80418
889.44        65.94441
889.84        66.50249
890.24        67.39236
890.64        68.30209
891.04        68.75773
891.44        68.66904
891.84        68.17007
892.24        67.48866
892.64        67.03928
893.04        66.96413
893.44         67.1442
893.83        67.48308
894.23        67.80212
894.63        68.05182
895.03        68.30406
895.43        68.55434
895.83        68.77357
896.23         68.9547
896.63        69.06609
897.02        69.13159
897.42        69.27696
897.82        69.48132
898.22        69.70675
898.62        69.87006
899.01        69.84047
899.41        69.57948
899.81        69.17673
900.21        68.70341
900.61        68.26974
901.00        67.92523
901.40        67.71203
901.80        67.69527
902.20        67.85175
902.59         68.1424
902.99        68.76751
903.39        69.67844
903.79        69.38142
904.18        70.04942
904.58        69.94393
904.98        69.70245
905.38        69.24362
905.77        68.60339
906.17        67.83049
906.57        67.10966
906.96        66.83647
907.36        67.08392
907.76        67.77724
908.15        68.65226
908.55        69.09807
908.95        69.00262
909.34        68.46088
909.74        67.82196
910.14        67.61991
910.53        67.97189
910.93        68.69521
911.33        69.40755
911.72        69.50827
912.12        68.89935
912.52        67.81515
912.91         66.6543
913.31        66.11188
913.70        66.32939
914.10        67.08549
914.49        68.08382
914.89        68.73556
915.29        68.87624
915.68        68.66072
916.08        68.28953
916.47        68.02979
916.87         68.0056
917.26        68.11612
917.66        68.28147
918.05        68.41347
918.45         68.4572
918.84        68.45953
919.24         68.4772
919.64        68.64358
920.03        68.97414
920.42        69.40155
920.82        69.74575
921.21         69.7454
921.61        69.38666
922.00        68.82418
922.40        68.34419
922.79        68.28213
923.19        68.38503
923.58        69.29766
923.98        71.12156
924.37        71.46577
924.77        69.10342
925.16        75.76167
925.55         70.3432
925.95        70.52422
926.34        70.33783
926.74        69.61618
927.13         68.3573
927.52        67.62248
927.92        67.85687
928.31        68.47379
928.70        69.32387
929.10        70.11701
929.49        70.77669
929.89        71.39021
930.28        71.82178
930.67        71.73598
931.07        71.11603
931.46        69.95939
931.85         68.7198
932.24        68.56781
932.64        69.68811
933.03        71.23041
933.42        72.30082
933.82        74.38286
934.21        72.87405
934.60        71.41319
934.99        69.85645
935.39         69.3533
935.78        70.01406
936.17        72.04218
936.56        77.77257
936.96        71.97141
937.35        75.09042
937.74        72.04691
938.13        69.69075
938.53        67.84999
938.92        67.26868
939.31        68.33982
939.70        69.90422
940.09        70.80096
940.49        70.75364
940.88        70.18032
941.27        69.42049
941.66        69.08643
942.05        69.39758
942.44        70.07522
942.84        70.78108
943.23        71.15765
943.62        71.09407
944.01        70.70024
944.40         70.2556
944.79        70.20859
945.18        70.66042
945.57        71.47512
945.97        72.22189
946.36        72.34549
946.75         71.6918
947.14        70.43898
947.53        69.10095
947.92        68.56026
948.31        69.03751
948.70        70.24767
949.09        71.61745
949.48        72.26378
949.87         71.9828
950.26        71.05801
950.65        69.92379
951.04        69.29305
951.43        69.37402
951.82        69.92057
952.21        70.65832
952.60        71.12618
952.99        71.16116
953.38        70.94599
953.77        70.58958
954.16        70.21708
954.55        69.89308
954.94        69.56681
955.33        69.29692
955.72        69.22269
956.11        69.36302
956.50        69.66753
956.89         70.0522
957.28        70.35559
957.66        70.56137
958.05         70.6708
958.44        70.64406
958.83        70.41196
959.22        69.97346
959.61        69.28849
960.00        68.61382
960.39        68.43995
960.78        68.87312
961.16        69.81895
961.55        70.70868
961.94        70.83794
962.33        70.10705
962.72        68.68207
963.11        67.14999
963.49        66.72589
963.88        67.73382
964.27        69.69882
964.66        71.80766
965.04        72.96525
965.43        72.89466
965.82        71.99616
966.21          70.655
966.60        69.56867
966.98        69.02321
967.37        68.76845
967.76        68.79102
968.15        69.06983
968.53        69.55241
968.92        70.29308
969.31        70.99589
969.69        71.11597
970.08        70.52734
970.47        69.34443
970.86        68.08218
971.24        67.67219
971.63        68.30508
972.02        69.67872
972.40        71.21062
972.79        71.95714
973.17        71.77116
973.56        70.93658
973.95        69.89446
974.33        69.42852
974.72        69.76616
975.11        70.60238
975.49        71.71358
975.88        72.66862
976.26        73.36576
976.65        73.89388
977.04        74.17072
977.42        74.01273
977.81        73.38644
978.19        72.26033
978.58        71.19274
978.96        71.18614
979.35        72.38258
979.74        74.35037
980.12        76.29675
980.51        77.07774
980.89          76.653
981.28        75.24196
981.66         73.2931
982.05        71.96753
982.43        71.77454
982.82        72.41685
983.20        73.47742
983.59        74.25914
983.97        74.58168
984.35        74.62982
984.74        74.43184
985.12         74.1106
985.51        73.71895
985.89        73.28812
986.28        72.84414
986.66        72.49599
987.04        72.30589
987.43        72.15832
987.81         71.9435
988.20         72.7298
988.58        74.60841
988.96        75.18932
989.35        73.70912
989.73        78.64559
990.12        75.24311
990.50        74.86893
990.88        73.82306
991.27        73.20085
991.65        73.13343
992.03        73.64124
992.42        74.53171
992.80        74.93665
993.18        74.64854
993.56        73.96461
993.95        73.13828
994.33        72.55275
994.71        72.36653
995.10        72.39631
995.48        72.70264
995.86         73.3873
996.24          74.366
996.63        75.50551
997.01        76.54037
997.39        76.84059
997.77        76.28703
998.15        75.06345
998.54        73.57608
998.92        72.37282
999.30        71.69604
999.68        71.48898
1000.06         71.6164
1000.45        71.72289
1000.83        71.78851
1001.21         71.8987
1001.59        72.27912
1001.97        73.22544
1002.35        74.65899
1002.73        76.30827
1003.12        77.80469
1003.50        78.78496
1003.88        79.19856
1004.26        79.16768
1004.64        78.87222
1005.02        78.67727
1005.40        78.71475
1005.78        78.86473
1006.16         78.9899
1006.54        78.84147
1006.92        78.38071
1007.30        77.80331
1007.69         77.1538
1008.07        76.53217
1008.45        75.95824
1008.83        75.37443
1009.21        75.05059
1009.59        75.53374
1009.97        76.77738
1010.35        78.35904
1010.73        79.74822
1011.11        80.60019
1011.49        81.00626
1011.86        80.87007
1012.24        80.01665
1012.62        80.98375
1013.00          81.373
1013.38        80.96754
1013.76         78.7077
1014.14        82.48338
1014.52        88.23676
1014.90        82.67632
1015.28        84.67785
1015.66        86.32269
1016.04        83.69992
1016.41         83.3922
1016.79        81.83689
1017.17        80.41847
1017.55        78.79185
1017.93        77.14968
1018.31         76.1514
1018.69        76.32561
1019.06        77.77814
1019.44        80.16746
1019.82        82.55647
1020.20        83.74612
1020.58        83.52285
1020.95        81.91158
1021.33         79.5289
1021.71        78.36782
1022.09        79.40237
1022.46         81.6926
1022.84        83.90256
1023.22        85.05379
1023.60        85.21063
1023.97        84.78642
1024.35        84.17318
1024.73        84.09342
