SpectraSmart Spectrum 2.9.0.0
--------- Device Information -----------
Spectrum Name :  反射率_0
Saving Time :  2024/04/21 00:00:39
Spectro-Module Model Name : SE2030-DUVN
Spectro-Module Serial Number : OS361AC55029948
Wavelength Start : 200
Wavelength End : 1025
Wavelength Unit : Wavelength(nm)
Spectrum Unit : Reflectance(%)
-----------Spectrum Setting ------------
Integration Time : 20ms
Average : 10
Boxcar : 0
Background removal :  enabled
linearity correction :  enabled
SC :  disabled
Intensity correction :  disabled
DWT denoise :  enabled
savitzky-golay :  disabled
FFT :  disabled
Running average :  disabled
Kalman :  disabled
High pass :  disabled
---------------BEGIN--------------------
Wavelength(nm)             Reflectance(%)
200.29               0
200.75       -71.16003
201.21       -37.86868
201.67       -16.80711
202.13       -2.176805
202.58         10.7622
203.04        26.25357
203.50         41.7752
203.96        46.61571
204.42        35.87336
204.88        12.52364
205.34       -13.49414
205.80       -30.09681
206.26       -34.20925
206.72       -22.77658
207.18       -4.198749
207.64       -3.320248
208.10       -28.88563
208.55       -73.13934
209.01       -99.16516
209.47       -65.56488
209.93       -12.17381
210.39        31.03781
210.85        58.10352
211.31        68.75639
211.77        67.00571
212.23         53.7856
212.69        23.81393
213.14       -26.29773
213.60       -101.7281
214.06       -285.1221
214.52       -633.5455
214.98       -249.3065
215.44       -55.72509
215.90        6.107756
216.36        24.86506
216.81        22.97266
217.27       0.7399009
217.73       -107.7287
218.19        1186.529
218.65        490.3713
219.11       -1051.874
219.57       -41.87004
220.02        21.64343
220.48        32.22004
220.94        24.74401
221.40        -3.26162
221.86       -70.86765
222.32       -116.7769
222.77       -58.31582
223.23       -5.971662
223.69        20.42587
224.15        28.71699
224.61        27.43482
225.06         21.7699
225.52        13.70209
225.98        5.947776
226.44       0.1645345
226.90       -5.682744
227.36       -7.721529
227.81      0.02179256
228.27        12.50694
228.73        24.57214
229.19        32.10312
229.65        33.04077
230.10        28.48042
230.56        19.95953
231.02          8.9544
231.48        1.639733
231.93        2.478498
232.39        9.087131
232.85        16.78683
233.31        21.69879
233.77         24.0109
234.22         25.4393
234.68        26.15234
235.14        26.23527
235.60         26.0766
236.05        24.78573
236.51        22.68202
236.97        26.37597
237.43        36.45047
237.88        42.78963
238.34        41.47977
238.80        62.51754
239.26        53.01352
239.71        51.84143
240.17        45.07874
240.63        37.80788
241.08        33.17813
241.54         33.6422
242.00        39.86699
242.46        43.17541
242.91        41.30059
243.37        35.42548
243.83        26.60626
244.28        20.12276
244.74        20.08748
245.20        23.07332
245.66        26.79912
246.11        29.75719
246.57        31.40968
247.03        32.81159
247.48        32.81044
247.94        29.39644
248.40        19.06214
248.85       -12.86803
249.31       -122.1488
249.77       -235.3439
250.22       -76.02854
250.68       -2.110036
251.14        22.96258
251.59        29.99009
252.05        29.47872
252.51        24.84976
252.96        17.01988
253.42         12.6564
253.88        16.55133
254.33        25.20404
254.79        35.96317
255.25        45.24783
255.70         51.6716
256.16        56.25053
256.62        59.31659
257.07        61.15156
257.53        62.60849
257.99        63.64628
258.44         64.1515
258.90        64.75694
259.35        64.92765
259.81        65.02302
260.27        64.82754
260.72        64.20448
261.18        63.58265
261.63        62.74125
262.09        61.88073
262.55         60.6827
263.00        59.11691
263.46        57.52962
263.91        55.98808
264.37        55.06139
264.83        54.65281
265.28        54.49439
265.74        54.43507
266.19        54.03802
266.65        53.30228
267.11        52.28878
267.56        51.05601
268.02        49.79603
268.47        48.52728
268.93        47.26517
269.38        45.97781
269.84        44.69309
270.30        43.42014
270.75        42.17942
271.21        41.07844
271.66        40.19076
272.12        39.53936
272.57        39.05022
273.03        38.60876
273.48        37.99029
273.94        37.18983
274.39         36.2523
274.85        35.32096
275.31        34.53717
275.76        33.93203
276.22         33.4826
276.67        33.13554
277.13        32.91126
277.58        32.72598
278.04        32.58889
278.49         32.3822
278.95        32.03465
279.40        31.49174
279.86        30.84123
280.31         30.0936
280.77        29.36709
281.22        28.67264
281.68        28.06191
282.13        27.53341
282.59        27.16507
283.04        26.92824
283.50        26.82167
283.95        26.80924
284.41        26.86777
284.86        26.96074
285.32        27.10534
285.77        27.22815
286.22        27.25481
286.68        27.20007
287.13        27.04153
287.59        26.92821
288.04        26.97715
288.50        27.18444
288.95        27.61349
289.41        28.16261
289.86        28.20853
290.32          27.664
290.77        28.42271
291.22        27.54974
291.68        27.72065
292.13        28.08794
292.59        28.68934
293.04        29.48027
293.50        30.46074
293.95        31.61789
294.40        32.92277
294.86        34.32379
295.31          35.725
295.77        37.09491
296.22        38.42754
296.68        39.75518
297.13        41.12811
297.58        42.58211
298.04        44.10809
298.49         45.7043
298.95        47.38968
299.40        49.13482
299.85        50.93714
300.31        52.76159
300.76        54.51917
301.21        56.20869
301.67        57.88675
302.12        59.56266
302.58        61.36947
303.03        63.29906
303.48        65.35716
303.94        67.53177
304.39        69.74341
304.84        71.95869
305.30        74.18801
305.75        76.34403
306.20         78.4203
306.66        80.41111
307.11        82.25861
307.57        84.00269
308.02        85.61668
308.47        87.14201
308.93        88.63794
309.38        90.06739
309.83        91.44907
310.29        92.82912
310.74        94.14573
311.19        95.46426
311.65        96.85336
312.10        98.28951
312.55        99.75084
313.00        101.1148
313.46        102.1923
313.91        102.9371
314.36        103.4264
314.82        103.8203
315.27        104.3614
315.72        105.1208
316.18         106.024
316.63        106.9653
317.08         107.771
317.53        108.3801
317.99        108.8443
318.44        109.2011
318.89        109.4921
319.35         109.743
319.80        109.9487
320.25         110.131
320.70         110.339
321.16        110.5752
321.61        110.8504
322.06        111.1472
322.51        111.4368
322.97        111.6911
323.42        111.9577
323.87         112.203
324.32        112.3927
324.78        112.5084
325.23        112.6012
325.68        112.7078
326.13        112.9254
326.59        113.2441
327.04        113.6842
327.49        114.1597
327.94        114.5618
328.39        114.8536
328.85        115.0344
329.30          115.19
329.75         115.323
330.20         115.458
330.66        115.5506
331.11        115.7114
331.56        115.9759
332.01        116.3589
332.46        116.8497
332.92        117.3426
333.37         117.804
333.82        118.1547
334.27        118.4229
334.72        118.6669
335.17        118.9903
335.63        119.3938
336.08        119.9129
336.53        120.4804
336.98         121.038
337.43        121.5599
337.88        122.0549
338.34        122.5172
338.79        123.0012
339.24        123.4844
339.69        123.9568
340.14         124.385
340.59        124.7277
341.05        124.9864
341.50        125.1886
341.95        125.4016
342.40        125.7361
342.85        126.2133
343.30         126.799
343.75        127.3967
344.20        127.8582
344.66        128.1483
345.11        128.2755
345.56        128.3302
346.01        128.4568
346.46        128.6997
346.91        129.0055
347.36        129.2515
347.81         129.343
348.26         129.279
348.72        128.7752
349.17        128.6171
349.62        128.6147
350.07         128.995
350.52        129.6303
350.97        130.2816
351.42        130.5495
351.87        130.3247
352.32        129.7396
352.77        128.9876
353.22        128.3651
353.67        127.9622
354.13        127.7106
354.58        127.4987
355.03        127.2065
355.48        126.7954
355.93        126.3145
356.38        125.8207
356.83        125.3863
357.28        125.0092
357.73        124.6373
358.18        124.1871
358.63        123.5426
359.08        122.6924
359.53        121.7012
359.98          120.65
360.43        119.6504
360.88        118.7419
361.33        117.8975
361.78        117.1202
362.23        116.4129
362.68        115.7603
363.13        115.1548
363.58         114.539
364.03        113.8187
364.48        112.9685
364.93        112.0083
365.38        110.9831
365.83        109.9777
366.28        109.0252
366.73        108.1088
367.18        107.2268
367.63        106.3717
368.08        105.5444
368.53        104.7651
368.98        104.0127
369.43         103.236
369.88        102.4192
370.33        101.5615
370.78        100.7081
371.23        99.96023
371.68        99.34363
372.13        98.82208
372.58        98.33037
373.03        97.75354
373.48        97.05473
373.93        96.27237
374.38        95.43294
374.83        94.59378
375.28        93.79533
375.72        93.00988
376.17        92.30395
376.62        91.68863
377.07        91.14426
377.52        90.65096
377.97        90.15467
378.42        89.57906
378.87        88.92409
379.32        88.23062
379.77        87.53836
380.22        86.89045
380.67        86.28439
381.11        85.69718
381.56        85.12762
382.01        84.60139
382.46        84.13477
382.91        83.74595
383.36        83.37432
383.81        82.91918
384.26        82.36539
384.71        81.73051
385.15        81.12208
385.60        80.77753
386.05        80.69536
386.50        80.79792
386.95        80.88836
387.40        80.66363
387.85        80.08456
388.29        79.23244
388.74        78.40494
389.19        77.80204
389.64        77.46297
390.09        77.28959
390.54        77.19256
390.98        77.02372
391.43        76.77851
391.88        76.47993
392.33        76.14359
392.78        75.82317
393.23        75.51046
393.67        75.08087
394.12        74.67414
394.57        74.36736
395.02        74.18053
395.47        74.10539
395.91        74.09795
396.36        74.01738
396.81        73.84789
397.26        73.66875
397.71        73.47023
398.15        73.17164
398.60        72.86027
399.05        72.50799
399.50        72.19476
399.95        71.99363
400.39        71.91731
400.84        72.01061
401.29        72.16145
401.74        71.88559
402.18        71.27254
402.63        70.99781
403.08         71.0434
403.53        70.81638
403.97        70.31337
404.42        69.91897
404.87          69.671
405.32        69.49783
405.76        69.39607
406.21        69.34938
406.66        69.31739
407.11        69.32919
407.55        69.33105
408.00        69.11803
408.45        68.74937
408.90         68.3799
409.34        68.11813
409.79        68.15793
410.24        68.39178
410.68        68.44369
411.13        68.27628
411.58        68.09496
412.03        67.95226
412.47        67.86146
412.92        67.82235
413.37        67.84623
413.81        67.88269
414.26        67.91146
414.71        67.90282
415.15        67.87775
415.60         67.8319
416.05        67.81834
416.49        67.84644
416.94        67.88799
417.39        67.90412
417.83        67.83173
418.28        67.66228
418.73        67.40966
419.17        67.12686
419.62         66.9121
420.07        66.79395
420.51        66.74665
420.96        66.73907
421.41        66.67701
421.85        66.52473
422.30        66.33869
422.74        66.15944
423.19        66.20302
423.64        66.44092
424.08         66.7138
424.53        66.90091
424.98        67.07499
425.42        67.21571
425.87        67.16264
426.31        66.99354
426.76        67.00021
427.21         67.1604
427.65        67.18294
428.10        67.02878
428.54         66.9418
428.99        66.96755
429.44        66.91232
429.88         66.7814
430.33        66.85664
430.77        67.00997
431.22        67.00278
431.66        66.84402
432.11        66.88128
432.56        67.17695
433.00        67.18955
433.45        66.74194
433.89        66.86369
434.34        67.66095
434.78        66.19021
435.23        66.52995
435.67        66.76445
436.12        67.04398
436.57        67.13852
437.01        66.86944
437.46        66.71024
437.90        67.37914
438.35        67.23523
438.79        67.60066
439.24        67.58391
439.68        67.52784
440.13        67.41753
440.57          67.291
441.02        67.20409
441.46           67.17
441.91        67.24487
442.35        67.33525
442.80        67.61503
443.24        67.94987
443.69        68.00358
444.13        67.78146
444.58        67.57087
445.02         67.4366
445.47        67.50633
445.91        67.68829
446.36        67.70824
446.80        67.53848
447.24        67.28966
447.69         67.0766
448.13        67.20418
448.58         67.4471
449.02        67.59487
449.47        67.55725
449.91         67.5635
450.36        67.62007
450.80        67.48496
451.25        67.25218
451.69        67.23339
452.13        67.40415
452.58        67.40823
453.02        67.22205
453.47        67.10826
453.91        67.04672
454.36        66.88776
454.80        66.68907
455.24        66.53633
455.69        66.44279
456.13        66.57004
456.58        66.84876
457.02        66.43369
457.46        65.94157
457.91        65.96713
458.35        66.45193
458.79         66.5523
459.24        66.24421
459.68        65.99605
460.13        65.87498
460.57        65.70699
461.01        65.53679
461.46        65.49665
461.90        65.10413
462.34        65.33974
462.79        64.92017
463.23        64.72659
463.68        65.28051
464.12        65.11253
464.56        64.60824
465.01        64.53993
465.45        64.80865
465.89        64.97705
466.34        65.00755
466.78        64.86748
467.22        64.54176
467.67        64.71526
468.11        64.03253
468.55        63.95359
468.99        64.01536
469.44        63.92624
469.88         63.6664
470.32        63.44699
470.77        63.32845
471.21        63.25856
471.65        63.24441
472.10        63.30284
472.54        63.36459
472.98        63.35503
473.42        63.27758
473.87        63.10358
474.31        62.85378
474.75        62.85525
475.20        63.11755
475.64        62.83332
476.08         63.0177
476.52        62.96633
476.97        62.96708
477.41        62.94139
477.85        62.84268
478.29        62.83533
478.74        62.35455
479.18        62.40452
479.62        62.59054
480.06        62.71447
480.50        62.69526
480.95        62.78804
481.39        62.92826
481.83         62.9665
482.27        63.04054
482.72        62.89907
483.16        62.65186
483.60        62.87877
484.04        62.92962
484.48        62.64565
484.93        62.46433
485.37        62.79944
485.81        62.92372
486.25        62.37036
486.69        64.05218
487.14        64.04026
487.58        62.86167
488.02        62.85622
488.46        62.19992
488.90        62.42599
489.34        61.99924
489.79        62.14706
490.23        62.17561
490.67        62.25365
491.11        62.25777
491.55        62.13076
491.99        61.92682
492.43        61.77005
492.88        61.69399
493.32        61.66809
493.76        61.63549
494.20        61.64208
494.64        61.70066
495.08         61.4105
495.52        61.37371
495.96        61.54655
496.41        61.94666
496.85        61.99957
497.29         61.6603
497.73        61.45354
498.17         61.1389
498.61        61.14467
499.05        61.31456
499.49        61.23713
499.93        60.96485
500.37        60.91206
500.82        61.08861
501.26        61.21535
501.70        61.59409
502.14        61.22591
502.58        60.83579
503.02        60.60759
503.46        60.68108
503.90        60.75883
504.34        60.76674
504.78        60.77703
505.22        60.78759
505.66        60.73087
506.10        60.63207
506.54        60.63717
506.98        60.77192
507.42        60.28649
507.86        61.03662
508.30        60.28614
508.74        60.87004
509.18        60.89437
509.62        60.98975
510.06        60.93383
510.50        60.72206
510.94        60.46437
511.38        60.21619
511.82        60.06497
512.26        60.03474
512.70         60.1238
513.14        60.26949
513.58        60.34377
514.02        60.31564
514.46        60.23122
514.90        60.10941
515.34        60.01973
515.78        59.98785
516.22        59.95213
516.66        59.77884
517.10        60.10487
517.54        60.02024
517.98        60.21943
518.42        60.37978
518.86        60.43179
519.30        60.35649
519.74        60.15115
520.18        59.91053
520.62        59.85551
521.06        59.97233
521.50        60.00761
521.93        59.94403
522.37        59.94255
522.81        59.99635
523.25        60.00156
523.69        59.95329
524.13        59.89791
524.57        59.84113
525.01        59.76882
525.45        59.70237
525.89        59.67928
526.32        59.70216
526.76        59.76477
527.20        59.84015
527.64        59.88447
528.08        59.88601
528.52        59.86279
528.96        59.82516
529.40        59.78258
529.83        59.74065
530.27        59.72234
530.71        59.72475
531.15         59.7424
531.59        59.77295
532.03        59.82131
532.46        59.86697
532.90        59.88922
533.34        59.87877
533.78        59.84431
534.22        59.79633
534.66         59.7528
535.09        59.71115
535.53         59.6842
535.97        59.66293
536.41        59.64959
536.85        59.64277
537.28        59.64423
537.72        59.64437
538.16        59.62746
538.60        59.59177
539.04         59.5453
539.47        59.48958
539.91        59.47676
540.35        59.49724
540.79        59.54163
541.22        59.59296
541.66        59.63882
542.10        59.66469
542.54        59.66799
542.97        59.64722
543.41        59.63155
543.85        59.62361
544.29        59.63473
544.72        59.63054
545.16        59.61181
545.60        59.56832
546.04        59.43011
546.47        59.28482
546.91        59.41733
547.35        59.75463
547.79        59.95077
548.22        59.92178
548.66        59.76833
549.10        59.55548
549.53        59.40825
549.97        59.36833
550.41        59.31949
550.84        59.27196
551.28        59.34639
551.72        59.49589
552.15        59.56308
552.59        59.53848
553.03        59.46553
553.46        59.36916
553.90        59.29545
554.34        59.25222
554.77        59.21904
555.21        59.22233
555.65        59.29319
556.08        59.41898
556.52        59.58728
556.96        59.74052
557.39        59.84153
557.83         59.8644
558.27        59.71864
558.70        59.47302
559.14        59.31627
559.57        59.26543
560.01        59.34655
560.45        59.47043
560.88        59.36916
561.32        59.15674
561.75        59.13142
562.19         59.3157
562.63        59.53991
563.06        59.68069
563.50        59.50591
563.93        59.09901
564.37        58.87524
564.80        58.88706
565.24        59.08324
565.68        59.37049
566.11        59.52478
566.55        59.52387
566.98        59.53963
567.42        59.59752
567.85        59.47922
568.29        59.30328
568.72        59.37573
569.16        59.70747
569.60        59.82568
570.03        59.87029
570.47        59.96939
570.90         60.1599
571.34        60.04522
571.77        60.37506
572.21        60.26369
572.64        60.23117
573.08        59.98345
573.51        60.05018
573.95        60.47626
574.38        60.43378
574.82        60.54882
575.25         60.8597
575.69        60.48449
576.12        60.14338
576.56        60.00393
576.99        60.40424
577.42        60.34716
577.86        60.56643
578.29        60.81872
578.73        61.46902
579.16          61.043
579.60        60.34983
580.03        60.39532
580.47        60.60268
580.90        60.69145
581.33        60.50223
581.77        60.93168
582.20        61.50154
582.64        61.57957
583.07        61.14616
583.51        60.68635
583.94        60.06985
584.37        60.19806
584.81        59.78584
585.24        59.94342
585.68        60.60775
586.11        60.32774
586.54        60.44225
586.98        60.56423
587.41        60.32596
587.85        60.46096
588.28        60.54165
588.71        60.40123
589.15        60.46216
589.58        59.87365
590.01        59.63756
590.45        59.90863
590.88        60.16949
591.31        59.94351
591.75        59.76997
592.18        59.59467
592.61        59.60374
593.05        60.26044
593.48        60.44837
593.91        60.30538
594.35        60.21365
594.78        60.19829
595.21        60.04406
595.65        60.12153
596.08         60.2746
596.51        60.16571
596.94        59.82398
597.38        59.77403
597.81        60.15711
598.24        59.77647
598.68         59.9144
599.11        60.26995
599.54        60.22292
599.97        60.09611
600.41        59.88779
600.84        60.22521
601.27        60.00962
601.70        60.17365
602.14         59.8821
602.57        59.79727
603.00        59.82005
603.43         59.8144
603.87        60.29896
604.30        60.09966
604.73        59.91023
605.16        59.48902
605.60        59.84269
606.03        59.91432
606.46         59.8405
606.89        59.97724
607.32        59.41327
607.76        59.67675
608.19        59.89221
608.62        59.61583
609.05        60.36678
609.48        59.84823
609.92        59.98555
610.35         59.6439
610.78        59.74816
611.21        59.98904
611.64        59.75781
612.07        59.67109
612.50        59.76552
612.94        59.84242
613.37        59.64719
613.80        59.77478
614.23        59.69869
614.66        59.59311
615.09        59.40055
615.52        59.45049
615.96        59.68084
616.39        59.75747
616.82        59.66501
617.25        59.42045
617.68        59.39801
618.11        59.25207
618.54        59.27011
618.97        59.28514
619.40        59.27708
619.84         59.2963
620.27        58.89419
620.70        58.90394
621.13        59.15609
621.56        59.14492
621.99        59.17186
622.42        59.24737
622.85        59.37762
623.28        59.56627
623.71        59.43865
624.14        59.27863
624.57        59.38889
625.00        59.61012
625.43        59.13732
625.86        59.16385
626.29        59.45933
626.72        59.01817
627.15        59.19015
627.58        59.10002
628.01        59.22068
628.44        58.93981
628.87         58.9169
629.30        59.24696
629.73        59.16483
630.16        59.00494
630.59        58.99594
631.02        59.22846
631.45         58.9986
631.88        59.01612
632.31        59.05409
632.74        58.85817
633.17        58.91816
633.60        58.79329
634.03        58.64606
634.46        58.52491
634.89         58.3878
635.32        58.38825
635.75        58.50159
636.18        58.70488
636.61        58.92721
637.04        59.05745
637.47        59.06557
637.89        58.98663
638.32        58.85385
638.75        58.75022
639.18        58.70364
639.61        58.69342
640.04        58.70536
640.47        58.71699
640.90        58.71947
641.33        58.72328
641.76        58.73434
642.18        58.76335
642.61        58.79723
643.04        58.83718
643.47        58.86874
643.90        58.87696
644.33        58.85867
644.76        58.80452
645.18        58.74083
645.61        58.73151
646.04        58.77429
646.47        58.80092
646.90        58.79494
647.33        58.79075
647.75        58.77257
648.18        58.71247
648.61        58.66504
649.04        58.67654
649.47        58.71856
649.89        59.07489
650.32        59.03606
650.75        59.03342
651.18         58.9069
651.61        58.73828
652.03        58.60903
652.46        58.70586
652.89        58.96824
653.32        58.98345
653.74        58.83221
654.17        58.67704
654.60        58.79564
655.03        58.74677
655.46        58.88407
655.88        58.95568
656.31        60.50591
656.74        64.81683
657.16        63.77289
657.59        61.60367
658.02        59.30754
658.45        59.31206
658.87        58.88429
659.30        59.12891
659.73          58.972
660.15         58.4577
660.58        58.90295
661.01        59.17686
661.44         59.5173
661.86        59.40937
662.29        58.92208
662.72        58.61139
663.14        58.56694
663.57        58.60186
664.00        58.67089
664.42        58.72061
664.85        58.73925
665.27        58.68253
665.70        58.74648
666.13        58.75473
666.55         58.7681
666.98        58.77877
667.41        58.77955
667.83        58.76905
668.26        58.75523
668.69        58.68774
669.11        58.57636
669.54        58.62858
669.96        58.89307
670.39        58.57484
670.82        59.04453
671.24        58.98375
671.67        58.84015
672.09        58.86095
672.52        59.04488
672.94        59.06758
673.37        58.93102
673.80        58.85693
674.22        58.87428
674.65        58.86898
675.07        58.86259
675.50        58.89352
675.92        58.95221
676.35        58.98674
676.77        58.98648
677.20        58.98036
677.62        59.00295
678.05        59.01186
678.47         58.9947
678.90        59.26321
679.32         59.2772
679.75        59.29704
680.17        59.36944
680.60        59.34507
681.02        59.30151
681.45        59.25953
681.87        59.23788
682.30        59.21869
682.72        59.20777
683.15        59.17936
683.57        59.11279
684.00          59.145
684.42        58.93542
684.85        58.92224
685.27        58.99168
685.70        59.09452
686.12        59.17764
686.54        59.21369
686.97         59.1861
687.39        59.13673
687.82        59.07547
688.24        59.00546
688.66         58.9216
689.09        59.01296
689.51        58.86875
689.94        59.02758
690.36        59.29818
690.78        59.41029
691.21        59.35098
691.63        59.28494
692.06        59.26082
692.48        59.26579
692.90        59.31274
693.33        59.36398
693.75        59.43271
694.17        59.55209
694.60        59.66396
695.02        59.81685
695.44        59.75537
695.87        59.62391
696.29        59.43954
696.71        59.50285
697.14         59.7553
697.56        59.80795
697.98        59.64935
698.41         59.6166
698.83        59.65983
699.25        59.63283
699.68        59.52758
700.10        59.46384
700.52        59.45085
700.94        59.45915
701.37        59.46478
701.79        59.47002
702.21         59.4534
702.64         59.4286
703.06        59.41076
703.48        59.42751
703.90        59.48467
704.33        59.56633
704.75        59.64894
705.17        59.67529
705.59        59.63553
706.01        59.54728
706.44        59.44916
706.86        59.42281
707.28          59.475
707.70        59.58161
708.12        59.71327
708.55        59.81513
708.97        59.86433
709.39         59.8866
709.81        59.88571
710.23        59.87222
710.66         59.8556
711.08        59.84023
711.50        59.82374
711.92        59.82083
712.34        59.83456
712.76        59.86217
713.19        59.88913
713.61        59.93298
714.03        59.96865
714.45         60.0086
714.87        60.05238
715.29        60.05894
715.71        60.01882
716.13        60.09398
716.56        59.99606
716.98        60.00359
717.40         60.0235
717.82        60.06054
718.24        60.09887
718.66        60.11584
719.08        60.11154
719.50        60.09178
719.92        60.08221
720.34        60.12184
720.76        60.21528
721.19        60.33768
721.61        60.47481
722.03        60.57461
722.45        60.62419
722.87        60.64117
723.29        60.63744
723.71        60.63412
724.13        60.64038
724.55        60.64427
724.97        60.66855
725.39        60.73438
725.81        60.83685
726.23        60.99905
726.65        61.17295
727.07        61.11911
727.49        61.09187
727.91        60.89325
728.33        60.67438
728.75        60.58684
729.17        60.65211
729.59        60.74852
730.01        60.83582
730.43        60.96261
730.85        61.11198
731.27        61.16473
731.69        61.11387
732.10        61.29716
732.52        61.30548
732.94        61.21273
733.36        60.95913
733.78        60.83337
734.20        60.86954
734.62        60.93118
735.04        60.98965
735.46        61.06454
735.88        61.14809
736.30        61.17613
736.72        61.15736
737.13        61.29067
737.55        61.47574
737.97        61.32271
738.39        60.92523
738.81        60.84805
739.23         61.0872
739.65        61.18138
740.06        61.06474
740.48         61.0334
740.90        61.05048
741.32        60.99135
741.74        60.88032
742.16         60.8218
742.57        60.84325
742.99        60.91224
743.41        61.01758
743.83        61.08374
744.25        61.11204
744.67        61.19012
745.08        61.32376
745.50        61.40131
745.92        61.42813
746.34        61.46424
746.75        61.48578
747.17        61.42796
747.59        61.29586
748.01         61.0818
748.42        60.88322
748.84        60.88684
749.26        61.08338
749.68        61.35002
750.09         61.5817
750.51        61.58318
750.93        61.40089
751.35        61.37339
751.76          61.498
752.18        61.47862
752.60         61.3191
753.01         61.2274
753.43        61.18842
753.85        61.12856
754.27        61.04942
754.68        60.97406
755.10        60.92929
755.52        60.93084
755.93        60.98375
756.35        61.08198
756.77        61.18613
757.18        61.27624
757.60        61.34359
758.02        61.30914
758.43         61.2238
758.85        61.42857
759.26        61.60038
759.68        61.85317
760.10        61.38332
760.51        61.15578
760.93        61.67892
761.34        61.63016
761.76        61.62239
762.18        61.57205
762.59        61.59429
763.01        61.75835
763.42        61.34936
763.84        61.48223
764.26        61.55758
764.67        61.70617
765.09        61.80388
765.50        62.05488
765.92        62.37128
766.33        62.27141
766.75        61.82758
767.16        61.68729
767.58        61.85509
768.00         62.1099
768.41         62.3638
768.83        62.26763
769.24        61.85499
769.66        62.05153
770.07        61.90849
770.49        61.98494
770.90         61.9655
771.32        61.84327
771.73        61.67719
772.15        61.65311
772.56        61.80603
772.97        62.00999
773.39        62.18562
773.80        62.33202
774.22        62.39092
774.63        62.37761
775.05        62.30884
775.46        62.26547
775.88        62.24734
776.29         62.2627
776.70        62.26069
777.12        62.16833
777.53        62.00006
777.95        61.78934
778.36        61.60508
778.77        61.54381
779.19        61.62211
779.60        61.80598
780.02        62.04718
780.43        62.26685
780.84        62.42626
781.26        62.58382
781.67        62.73715
782.09        62.67082
782.50        62.45684
782.91        62.46199
783.33        62.63763
783.74        62.66731
784.15        62.50225
784.57        62.38205
784.98        62.35696
785.39        62.35197
785.81        62.39034
786.22        62.54885
786.63        62.77214
787.04        62.90918
787.46        62.94813
787.87        62.92847
788.28        62.89116
788.70        62.87547
789.11         62.8787
789.52        62.89703
789.93         62.9277
790.35        62.95793
790.76        62.99416
791.17        63.04716
791.58        63.10441
792.00        63.11175
792.41        63.09404
792.82        63.09714
793.23        63.16972
793.65         63.2306
794.06        63.32328
794.47        63.72577
794.88        64.35501
795.29         64.3343
795.71        64.60349
796.12        64.57053
796.53        64.51247
796.94         64.2835
797.35         63.9354
797.76        63.64437
798.18        63.45744
798.59        63.31644
799.00        63.23268
799.41           63.29
799.82        63.43766
800.23        63.53249
800.64         63.5411
801.06        63.47863
801.47        63.41238
801.88        63.38681
802.29        63.41876
802.70        63.47884
803.11        63.55431
803.52        63.63087
803.93        63.70686
804.34        63.79315
804.75          63.879
805.17        63.97683
805.58        64.11771
805.99        64.15023
806.40         64.1132
806.81        64.38863
807.22        64.82678
807.63        64.70571
808.04        64.13651
808.45        63.94807
808.86         64.2112
809.27        64.46229
809.68        64.60728
810.09        64.69337
810.50        64.68469
810.91         64.5777
811.32        64.41059
811.73        64.24664
812.14        64.11303
812.55        63.99541
812.96          63.917
813.37        63.91112
813.78        63.97905
814.19        64.11953
814.60        64.26987
815.01        64.32739
815.42        64.27089
815.83        64.11861
816.24        63.94387
816.65        63.88847
817.05        63.99862
817.46        64.20815
817.87        64.45103
818.28         64.5853
818.69        64.58365
819.10        64.49255
819.51        64.39503
819.92        64.43583
820.33        64.64626
820.74        64.95502
821.14        65.28148
821.55        65.53136
821.96        65.65642
822.37        65.68783
822.78         65.6151
823.19         65.4237
823.60         65.1309
824.00        64.76039
824.41        64.36381
824.82        64.09309
825.23         63.9923
825.64        64.04837
826.04        64.20571
826.45        64.32143
826.86        64.36985
827.27        64.38277
827.68        64.40793
828.08        64.55294
828.49        64.76397
828.90        65.03556
829.31        65.32301
829.72        65.46822
830.12        65.44309
830.53        65.66139
830.94        65.39279
831.35        65.19949
831.75        64.90273
832.16        64.51941
832.57        64.18015
832.97        64.09275
833.38        64.29447
833.79        64.71307
834.20        65.22223
834.60        65.62888
835.01        65.87206
835.42        65.99686
835.82        66.03888
836.23        66.02355
836.64        65.98414
837.04        65.90411
837.45        65.78671
837.86        65.70306
838.26        65.67936
838.67        65.71046
839.08        65.75182
839.48        65.70366
839.89        65.54792
840.29        65.31934
840.70         65.1284
841.11        65.15179
841.51         65.4384
841.92        65.89635
842.33        66.39646
842.73        66.72321
843.14        66.76717
843.54        66.61356
843.95        66.36476
844.35        66.21911
844.76        66.22409
845.17        66.32288
845.57        66.45639
845.98        66.49425
846.38        66.43253
846.79        66.30438
847.19        66.17861
847.60        66.07773
848.00        66.05243
848.41        66.05046
848.81        66.11761
849.22         66.2669
849.62        66.51757
850.03         66.8111
850.43         67.0984
850.84        67.20048
851.24        67.13264
851.65        66.87675
852.05        66.56209
852.46         66.3344
852.86        66.25757
853.27        66.33558
853.67        66.43472
854.07        66.49879
854.48        66.47792
854.88        66.41674
855.29        66.33813
855.69        66.44026
856.10        66.66249
856.50        67.02302
856.90        67.33112
857.31         67.3265
857.71        67.00695
858.12        66.40277
858.52        65.69819
858.92        65.14308
859.33        64.82187
859.73        64.73131
860.13        64.78876
860.54        64.84261
860.94        64.89823
861.34        64.95369
861.75        65.02029
862.15        65.18739
862.55        65.41804
862.96        65.64887
863.36        65.81475
863.76         65.7757
864.17        65.50974
864.57        65.10146
864.97        64.63219
865.38        64.22517
865.78        63.97427
866.18        63.84034
866.58        63.87712
866.99        64.13021
867.39        64.60226
867.79        65.24624
868.19        65.86711
868.60        66.10263
869.00        65.97195
869.40        65.72109
869.80        65.43926
870.21        65.12029
870.61        64.88641
871.01        64.80038
871.41        64.76064
871.81        64.51823
872.22        64.05848
872.62        63.48083
873.02        62.92085
873.42        62.79843
873.82        62.99959
874.22        62.89845
874.63        62.69955
875.03        62.84469
875.43        63.33646
875.83        64.90379
876.23        64.71963
876.63        64.24514
877.03        63.19242
877.44        60.97974
877.84        169.8898
878.24        61.71269
878.64        62.56021
879.04        64.23341
879.44        64.90667
879.84        61.68344
880.24        66.65408
880.64        66.76891
881.04          64.267
881.44        62.33571
881.84        61.57975
882.24        62.10791
882.65         63.2739
883.05        63.62249
883.45        62.86372
883.85        61.88464
884.25        61.14861
884.65        60.97301
885.05        61.46321
885.45        62.40237
885.85         63.3939
886.25        63.90175
886.65        63.80528
887.05        63.29097
887.45          62.562
887.85        61.96323
888.25         61.6356
888.65        61.46738
889.04        61.47507
889.44          61.693
889.84        62.06686
890.24        62.57926
890.64        63.05719
891.04        63.22869
891.44        63.06178
891.84        62.65315
892.24         62.1469
892.64        61.81346
893.04        61.75155
893.44        61.87118
893.83        62.18924
894.23         62.6959
894.63        63.35743
895.03        64.17849
895.43        64.94841
895.83        65.31071
896.23        65.20253
896.63        64.71658
897.02        64.13795
897.42        63.96531
897.82        64.26194
898.22        64.88197
898.62        65.54681
899.01         65.8036
899.41        65.52126
899.81        64.87754
900.21        64.09777
900.61        63.54647
901.00        63.32825
901.40        63.38591
901.80        63.63005
902.20        63.78569
902.59        63.76624
902.99        63.92516
903.39        64.37212
903.79        63.59931
904.18        64.26888
904.58        64.22233
904.98        64.19402
905.38        64.05103
905.77        63.78212
906.17        63.42949
906.57        63.06765
906.96        62.91654
907.36         63.0191
907.76        63.35003
908.15        63.77267
908.55        63.91072
908.95        63.73252
909.34        63.28099
909.74        62.85106
910.14        62.87442
910.53        63.42059
910.93        64.32932
911.33        65.20287
911.72        65.41307
912.12        64.85474
912.52        63.75833
912.91        62.53188
913.31        61.89642
913.70        62.00775
914.10        62.64772
914.49        63.54117
914.89        64.13467
915.29        64.27132
915.68         64.1021
916.08        63.80162
916.47        63.58903
916.87        63.57654
917.26        63.67653
917.66        63.82546
918.05        63.96387
918.45        64.04401
918.84          64.095
919.24        64.17021
919.64          64.399
920.03         64.7888
920.42         65.2729
920.82         65.6516
921.21        65.63114
921.61        65.19856
922.00        64.52517
922.40        63.93628
922.79        63.81397
923.19        63.87124
923.58        64.84851
923.98         66.8701
924.37        67.19177
924.77        64.39857
925.16         72.0163
925.55        65.71306
925.95        65.90796
926.34         65.7094
926.74        64.91626
927.13        63.51931
927.52        62.73435
927.92        63.05749
928.31        63.80782
928.70        64.79602
929.10        65.67137
929.49        66.34184
929.89        66.92062
930.28          67.261
930.67        67.01571
931.07        66.18806
931.46        64.77892
931.85        63.31375
932.24        63.14158
932.64        64.47768
933.03        66.31937
933.42        67.64708
933.82         70.2245
934.21        68.68861
934.60        67.26684
934.99        65.72511
935.39        65.27576
935.78        66.02145
936.17        68.22624
936.56        74.63567
936.96        67.95188
937.35        71.54015
937.74        68.13997
938.13        65.55725
938.53         63.5343
938.92        62.87719
939.31        64.05293
939.70        65.73228
940.09        66.56322
940.49        66.24195
940.88        65.25887
941.27        64.06707
941.66        63.50792
942.05        63.87432
942.44        64.77574
942.84        65.79252
943.23        66.46925
943.62        66.64642
944.01        66.47652
944.40        66.14629
944.79        65.94871
945.18        65.97887
945.57        66.14399
945.97        66.24664
946.36        66.09916
946.75        65.62707
947.14        64.92976
947.53        64.25592
947.92        64.01648
948.31        64.29901
948.70        64.94087
949.09         65.6553
949.48         66.0057
949.87        65.88429
950.26        65.44241
950.65        64.83189
951.04        64.29924
951.43        63.95881
951.82        63.74604
952.21        63.70219
952.60        63.90397
952.99        64.31445
953.38        64.87095
953.77        65.44711
954.16        65.85318
954.55        66.04468
954.94         66.0854
955.33        65.93269
955.72        65.54588
956.11        64.96498
956.50        64.19639
956.89        63.52361
957.28        63.38601
957.66        63.87995
958.05        64.82472
958.44        65.79237
958.83        66.10902
959.22        65.62605
959.61        64.47915
960.00         63.1255
960.39        62.46911
960.78        62.78415
961.16         63.8205
961.55        64.92978
961.94        65.33456
962.33        64.89558
962.72        63.84241
963.11        62.65585
963.49        62.30267
963.88        63.06179
964.27        64.52628
964.66        66.10664
965.04        67.04039
965.43        67.10075
965.82        66.58351
966.21        65.71674
966.60        64.90568
966.98        64.34333
967.37        63.90071
967.76        63.62101
968.15        63.57636
968.53        63.77236
968.92        64.21627
969.31        64.73267
969.69        64.98619
970.08        64.85844
970.47        64.38947
970.86         63.8176
971.24        63.59097
971.63        63.79758
972.02        64.31438
972.40        64.83436
972.79        64.80386
973.17        64.19259
973.56        63.19129
973.95        62.19463
974.33        61.89366
974.72        62.46787
975.11         63.6413
975.49        65.13678
975.88        66.42632
976.26        67.36121
976.65        67.99847
977.04        68.28645
977.42        68.11405
977.81        67.47745
978.19        66.35329
978.58        65.25639
978.96        65.08828
979.35        66.00853
979.74        67.64257
980.12        69.37451
980.51        70.25662
980.89        70.26228
981.28        69.55956
981.66         68.3777
982.05        67.38912
982.43         66.8936
982.82        66.77839
983.20        66.89156
983.59        66.93182
983.97        66.84907
984.35        66.71601
984.74        66.61767
985.12        66.73975
985.51        67.06831
985.89        67.58825
986.28        68.04897
986.66        68.18054
987.04        67.99745
987.43        67.47295
987.81        66.66145
988.20        67.24704
988.58        69.48451
988.96        70.33749
989.35        68.88393
989.73        75.04368
990.12        71.43961
990.50        71.41142
990.88        70.49366
991.27        69.62258
991.65        68.88016
992.03        68.38052
992.42         68.2403
992.80        68.01865
993.18        67.66265
993.56         67.3533
993.95        67.19352
994.33        67.27145
994.71        67.61987
995.10        68.15507
995.48        68.78503
995.86         69.3818
996.24        69.85938
996.63        70.10955
997.01        70.28082
997.39        70.42068
997.77          70.522
998.15        70.59364
998.54        70.49062
998.92        69.85528
999.30        68.70057
999.68        67.16977
1000.06        65.70236
1000.45        65.12779
1000.83        65.82658
1001.21        67.50216
1001.59        69.68857
1001.97        71.67255
1002.35        73.15293
1002.73        74.21523
1003.12        74.90804
1003.50         75.3958
1003.88        75.73121
1004.26        75.86089
1004.64        75.72755
1005.02        75.27209
1005.40        74.49813
1005.78        73.46954
1006.16        72.39047
1006.54        71.52415
1006.92        70.98933
1007.30        70.85835
1007.69        70.87356
1008.07        70.69565
1008.45        70.23586
1008.83        69.54275
1009.21        69.11021
1009.59        69.90905
1009.97         71.9175
1010.35        74.41436
1010.73        76.59745
1011.11        77.92005
1011.49        78.47485
1011.86        78.21166
1012.24        76.94669
1012.62        77.67779
1013.00         77.7276
1013.38        76.81222
1013.76        73.60526
1014.14          77.924
1014.52        84.92209
1014.90        77.43384
1015.28        79.72804
1015.66         81.6763
1016.04        78.05087
1016.41        77.64965
1016.79        75.83745
1017.17        74.67931
1017.55        73.73142
1017.93          73.201
1018.31        73.46737
1018.69        74.44771
1019.06        76.07837
1019.44        78.15264
1019.82        80.11898
1020.20        81.31561
1020.58         81.6713
1020.95        81.18459
1021.33        80.11245
1021.71        79.22673
1022.09        79.05691
1022.46        79.39027
1022.84        79.81808
1023.22        80.00859
1023.60        79.94273
1023.97        79.78536
1024.35        79.63361
1024.73        79.63654
