SpectraSmart Spectrum 2.9.0.0
--------- Device Information -----------
Spectrum Name :  反射率_0
Saving Time :  2024/04/21 00:56:06
Spectro-Module Model Name : SE2030-DUVN
Spectro-Module Serial Number : OS361AC55029948
Wavelength Start : 200
Wavelength End : 1025
Wavelength Unit : Wavelength(nm)
Spectrum Unit : Reflectance(%)
-----------Spectrum Setting ------------
Integration Time : 20ms
Average : 10
Boxcar : 0
Background removal :  enabled
linearity correction :  enabled
SC :  disabled
Intensity correction :  disabled
DWT denoise :  enabled
savitzky-golay :  disabled
FFT :  disabled
Running average :  disabled
Kalman :  disabled
High pass :  disabled
---------------BEGIN--------------------
Wavelength(nm)             Reflectance(%)
200.29               0
200.75        53.98344
201.21        51.51553
201.67        46.52251
202.13         41.5262
202.58          35.999
203.04        29.02902
203.50        21.56419
203.96        18.15033
204.42        20.63136
204.88        26.66412
205.34        34.33431
205.80         41.2144
206.26        47.10808
206.72        54.26354
207.18        58.51628
207.64        50.60353
208.10        28.91971
208.55       -2.709974
209.01       -23.04698
209.47       -6.782046
209.93        22.88406
210.39        47.76052
210.85        63.70814
211.31        70.14456
211.77        69.23915
212.23         61.5658
212.69        42.63892
213.14        5.091263
213.60       -66.72174
214.06       -271.5225
214.52       -738.7458
214.98       -331.4677
215.44       -83.96294
215.90      -0.6734719
216.36        28.04926
216.81        34.55232
217.27          26.562
217.73       -26.95537
218.19        636.5145
218.65        282.5325
219.11       -529.4625
219.57        2.516849
220.02        35.58455
220.48        39.89922
220.94          33.419
221.40        13.35822
221.86       -34.04118
222.32       -67.68729
222.77       -28.47388
223.23        7.702886
223.69         26.4057
224.15        32.91404
224.61        33.14497
225.06        30.64546
225.52        26.61517
225.98        22.41217
226.44        18.89797
226.90        14.70234
227.36        12.50091
227.81        16.74233
228.27        24.42442
228.73         32.0875
229.19        36.67464
229.65        36.27489
230.10        31.46416
230.56        23.52459
231.02        13.54499
231.48        6.513581
231.93        6.341283
232.39        11.20305
232.85        17.32819
233.31        21.45736
233.77        23.66187
234.22        25.48111
234.68        26.50875
235.14        25.79896
235.60        23.50363
236.05        18.94276
236.51        13.40086
236.97        16.25306
237.43        28.75627
237.88        38.75901
238.34        41.83334
238.80        65.08715
239.26        57.13261
239.71        54.85248
240.17        45.45319
240.63        35.44296
241.08        29.83663
241.54        31.46185
242.00        40.74418
242.46        47.80774
242.91        50.22441
243.37        49.79385
243.83        47.61791
244.28        46.82578
244.74        48.89096
245.20        51.07722
245.66        50.91574
246.11        46.16129
246.57        36.59312
247.03        23.47844
247.48        7.708588
247.94       -9.617172
248.40       -31.95592
248.85       -79.21908
249.31       -208.1632
249.77       -270.0132
250.22       -58.23914
250.68        17.77704
251.14        40.20705
251.59        47.14819
252.05         48.7207
252.51         46.9618
252.96        41.45955
253.42        34.44289
253.88        29.68555
254.33        28.49505
254.79        32.23423
255.25        39.12229
255.70        45.97485
256.16        51.46665
256.62        55.48132
257.07        58.13179
257.53         59.9917
257.99        61.08508
258.44        60.79668
258.90        59.22131
259.35        56.37088
259.81        53.24603
260.27        50.44431
260.72        48.70865
261.18        48.17073
261.63        48.07152
262.09        48.06829
262.55        47.49236
263.00        46.29227
263.46        44.92199
263.91        43.50365
264.37        42.56741
264.83        42.07261
265.28         41.7757
265.74        41.59336
266.19        41.25649
266.65        40.76001
267.11        40.13983
267.56        39.37093
268.02        38.49714
268.47        37.49958
268.93        36.40173
269.38        35.25365
269.84        34.19978
270.30        33.26886
270.75        32.45417
271.21        31.71244
271.66        30.89971
272.12        30.02707
272.57        29.12758
273.03        28.32529
273.48        27.76315
273.94        27.46583
274.39        27.33131
274.85        27.24507
275.31        26.97988
275.76        26.48615
276.22        25.87285
276.67        25.23425
277.13        24.77395
277.58        24.49207
278.04        24.33864
278.49        24.20354
278.95         24.0049
279.40        23.68311
279.86        23.30904
280.31          22.884
280.77        22.48055
281.22        22.09324
281.68        21.76057
282.13        21.44456
282.59        21.16364
283.04        20.89573
283.50        20.65003
283.95        20.46984
284.41         20.4412
284.86        20.55164
285.32        20.77937
285.77        20.98269
286.22        20.96813
286.68         20.7375
287.13        20.33127
287.59        19.96766
288.04        19.87202
288.50         20.0617
288.95        20.58115
289.41        21.29407
289.86        21.50221
290.32        21.07572
290.77        22.06343
291.22         21.2336
291.68        21.45627
292.13        21.79576
292.59        22.29778
293.04        22.89523
293.50        23.56084
293.95        24.29951
294.40        25.10399
294.86        26.00721
295.31         27.0438
295.77        28.21116
296.22        29.47566
296.68        30.78716
297.13         32.0663
297.58        33.31315
298.04        34.55747
298.49         35.8595
298.95        37.33224
299.40        38.97899
299.85        40.77001
300.31        42.62248
300.76        44.38836
301.21         46.0462
301.67        47.66068
302.12        49.29747
302.58         51.1562
303.03        53.23789
303.48        55.51414
303.94         57.8825
304.39        60.13659
304.84        62.22747
305.30        64.22075
305.75        66.15099
306.20        68.17524
306.66        70.32554
307.11        72.50813
307.57        74.66971
308.02        76.66179
308.47        78.48641
308.93        80.22884
309.38        81.92855
309.83        83.69957
310.29        85.62011
310.74        87.56406
311.19        89.47505
311.65        91.22928
312.10        92.77526
312.55        94.15948
313.00        95.41595
313.46         96.6052
313.91        97.73506
314.36        98.79325
314.82        99.80698
315.27        100.8131
315.72        101.8249
316.18        102.8386
316.63        103.8064
317.08        104.6458
317.53        105.3349
317.99        105.8947
318.44        106.3751
318.89        106.8425
319.35        107.3235
319.80        107.8195
320.25         108.315
320.70        108.7874
321.16        109.2241
321.61        109.6524
322.06        110.0969
322.51        110.6035
322.97        111.1586
323.42        111.7761
323.87         112.383
324.32        112.8809
324.78        113.2232
325.23         113.476
325.68        113.6767
326.13        113.9269
326.59        114.2281
327.04        114.6047
327.49        115.0002
327.94        115.3562
328.39        115.6543
328.85        115.8921
329.30        116.1413
329.75        116.3694
330.20        116.5899
330.66        116.7685
331.11        117.0232
331.56         117.402
332.01         117.922
332.46        118.5631
332.92         119.214
333.37        119.8369
333.82        120.3489
334.27        120.7817
334.72        121.1872
335.17        121.6607
335.63        122.1979
336.08        122.8268
336.53        123.4967
336.98        124.1823
337.43        124.8575
337.88        125.5213
338.34        126.1132
338.79        126.5977
339.24         126.944
339.69        127.1881
340.14        127.3799
340.59        127.6053
341.05        127.9013
341.50        128.2564
341.95        128.6987
342.40        129.2718
342.85        129.9568
343.30        130.7237
343.75        131.4546
344.20        131.9675
344.66        132.2316
345.11        132.2785
345.56        132.2165
346.01        132.2267
346.46        132.3754
346.91         132.591
347.36        132.8138
347.81        133.0507
348.26        133.2999
348.72        133.1961
349.17        133.4612
349.62        133.5837
350.07        133.7785
350.52        133.9866
350.97        134.1652
351.42        134.2402
351.87        134.1784
352.32        134.0083
352.77        133.7377
353.22        133.3752
353.67        132.9422
354.13        132.4684
354.58        131.9678
355.03        131.5189
355.48        131.1407
355.93        130.8108
356.38        130.5147
356.83        130.2236
357.28        129.9041
357.73        129.5419
358.18        129.0827
358.63        128.4505
359.08        127.6457
359.53        126.7121
359.98        125.7103
360.43        124.7281
360.88         123.799
361.33        122.9071
361.78        122.0758
362.23        121.3374
362.68        120.6857
363.13          120.11
363.58        119.5313
364.03        118.8203
364.48        117.9462
364.93        116.9382
365.38        115.8763
365.83        114.9005
366.28        114.0501
366.73        113.2837
367.18        112.5467
367.63        111.7515
368.08        110.8766
368.53        109.9627
368.98        109.0346
369.43        108.1114
369.88        107.2007
370.33        106.2949
370.78        105.4018
371.23        104.5593
371.68        103.7856
372.13        103.0686
372.58         102.423
373.03        101.8523
373.48        101.3351
373.93        100.8679
374.38        100.3595
374.83         99.6761
375.28        98.81453
375.72        97.80616
376.17        96.84155
376.62         96.1109
377.07          95.635
377.52        95.33782
377.97        95.07825
378.42        94.63331
378.87        93.96078
379.32        93.15439
379.77        92.32448
380.22        91.60949
380.67        91.03374
381.11        90.54913
381.56        90.10368
382.01        89.64659
382.46        89.16885
382.91        88.69935
383.36        88.24424
383.81         87.8036
384.26        87.37171
384.71        86.93423
385.15        86.47865
385.60        86.05936
386.05        85.65633
386.50        85.26934
386.95        84.87031
387.40        84.42591
387.85        83.94492
388.29        83.39348
388.74        82.93245
389.19        82.56042
389.64        82.27503
390.09        82.06261
390.54        81.85197
390.98         81.5163
391.43        81.07523
391.88        80.54639
392.33        80.04711
392.78        79.68719
393.23        79.46938
393.67        79.47188
394.12        79.59921
394.57        79.15774
395.02        78.27817
395.47        77.88441
395.91        77.99757
396.36        77.84441
396.81        77.43256
397.26        77.25667
397.71        77.27309
398.15        77.13194
398.60        76.89301
399.05        76.62059
399.50        76.39423
399.95        76.20854
400.39        76.10804
400.84        76.31053
401.29        76.64668
401.74         76.3205
402.18        75.44064
402.63        74.98579
403.08        74.96726
403.53        74.63425
403.97        74.00239
404.42        73.56091
404.87        73.34248
405.32        73.23373
405.76        73.21918
406.21        73.24423
406.66        73.26255
407.11        73.38668
407.55        73.51352
408.00        73.23158
408.45        72.62333
408.90        72.06133
409.34         71.7073
409.79        71.70905
410.24        71.94695
410.68        72.01026
411.13        71.85307
411.58        71.71625
412.03         71.6391
412.47        71.58491
412.92        71.53847
413.37        71.52202
413.81        71.49556
414.26         71.4578
414.71        71.38528
415.15        71.29932
415.60        71.18896
416.05        71.10207
416.49        71.05109
416.94        71.01196
417.39        70.96912
417.83        70.89043
418.28        70.77068
418.73        70.61668
419.17        70.43855
419.62        70.26357
420.07        70.10849
420.51        69.96733
420.96        69.86606
421.41        69.80283
421.85         69.7472
422.30        69.70405
422.74        69.66044
423.19        69.77457
423.64        69.99929
424.08        70.18829
424.53        70.22111
424.98        70.22379
425.42        70.21122
425.87        69.93688
426.31        69.57449
426.76        69.73739
427.21        70.32575
427.65        70.55125
428.10        70.31807
428.54        70.18046
428.99        70.16135
429.44        69.95185
429.88         69.5983
430.33          69.291
430.77        69.05007
431.22        69.20871
431.66        69.61654
432.11        69.59863
432.56        69.24339
433.00        69.26589
433.45        69.48153
433.89        69.61164
434.34        69.77547
434.78        68.74662
435.23         68.8653
435.67        69.73985
436.12        69.60483
436.57        69.74783
437.01        69.49991
437.46        69.37708
437.90        70.18909
438.35        69.27116
438.79        69.86801
439.24        69.63965
439.68        69.49818
440.13        69.25381
440.57        68.98704
441.02        69.02682
441.46        69.26986
441.91        69.28534
442.35        69.08183
442.80         69.3494
443.24        69.94936
443.69         70.2272
444.13         70.1143
444.58        69.96352
445.02        69.84683
445.47        69.93032
445.91        70.13742
446.36        70.15945
446.80        69.97742
447.24        69.74461
447.69        69.55929
448.13        69.68187
448.58        69.87105
449.02         69.9252
449.47        69.78689
449.91        69.74587
450.36        69.81849
450.80        69.74055
451.25        69.55173
451.69        69.49076
452.13        69.51483
452.58        69.27442
453.02        68.83319
453.47        68.59772
453.91        68.58547
454.36        68.60664
454.80        68.59203
455.24        68.53678
455.69         68.4446
456.13        68.22866
456.58        67.97764
457.02        67.99093
457.46        67.96126
457.91        67.93924
458.35        67.92051
458.79        67.85236
459.24        67.76373
459.68        67.63133
460.13        67.54945
460.57        67.35331
461.01        67.02474
461.46        67.30801
461.90        67.23305
462.34        66.69385
462.79        66.42918
463.23        66.39508
463.68        66.74679
464.12        66.53893
464.56        65.92309
465.01        65.97749
465.45        66.46931
465.89        66.68278
466.34        66.62324
466.78        66.28008
467.22        65.69067
467.67        66.35841
468.11        65.86552
468.55        65.72597
468.99        65.27747
469.44         65.0046
469.88        64.92004
470.32        64.82417
470.77          64.711
471.21        64.59934
471.65        64.48325
472.10        64.36238
472.54        64.25617
472.98        64.20858
473.42        64.22134
473.87        64.30532
474.31        64.39024
474.75        64.42043
475.20        64.38983
475.64        64.38128
476.08        64.39697
476.52        64.32362
476.97        64.14321
477.41        64.05677
477.85        64.12749
478.29        63.59794
478.74         64.0114
479.18         63.7501
479.62        63.88377
480.06        63.83224
480.50        63.75373
480.95        63.85445
481.39        64.15993
481.83        63.61683
482.27        64.12595
482.72        64.03485
483.16        64.33765
483.60        63.96494
484.04        64.43955
484.48        64.03256
484.93        63.89911
485.37        63.60711
485.81        64.21502
486.25        63.37577
486.69        65.55861
487.14        65.44154
487.58        64.59292
488.02        63.94026
488.46        64.16819
488.90        63.73347
489.34        63.75064
489.79         63.0671
490.23        63.09524
490.67        63.12842
491.11        63.38418
491.55        63.31224
491.99        62.95971
492.43        62.85396
492.88        63.00639
493.32        63.14444
493.76        63.17286
494.20        63.19465
494.64        63.22058
495.08        62.87132
495.52        62.73101
495.96        62.74913
496.41        62.96523
496.85        62.86868
497.29        62.47507
497.73        62.35187
498.17        62.21156
498.61        62.42492
499.05         62.7449
499.49        62.56903
499.93        62.05584
500.37        62.02092
500.82        62.43052
501.26        62.81648
501.70        63.02423
502.14        62.59768
502.58        62.17976
503.02        61.93465
503.46        62.01032
503.90        62.09619
504.34        62.11617
504.78        62.15255
505.22        62.20262
505.66         62.1702
506.10        62.06234
506.54        62.07889
506.98        62.26117
507.42        61.63454
507.86        62.29541
508.30        61.65715
508.74        62.02196
509.18        61.96263
509.62        61.96489
510.06        61.94673
510.50        61.87319
510.94        61.69086
511.38        61.44756
511.82        61.33591
512.26        61.37545
512.70        61.48633
513.14        61.61103
513.58         61.6748
514.02         61.6522
514.46        61.57082
514.90        61.45074
515.34        61.36293
515.78        61.33031
516.22        61.29901
516.66        61.12204
517.10        61.40047
517.54        61.25187
517.98         61.3595
518.42        61.42746
518.86        61.41625
519.30        61.31559
519.74        61.11035
520.18        60.88885
520.62        60.86332
521.06        61.01127
521.50        61.07769
521.93        61.02895
522.37        61.00418
522.81         60.9951
523.25        60.90457
523.69        60.75729
524.13        60.64652
524.57        60.58985
525.01        60.56335
525.45        60.56462
525.89         60.5908
526.32        60.63359
526.76        60.69698
527.20        60.77381
527.64        60.85282
528.08        60.92475
528.52         60.9888
528.96        61.03046
529.40        61.02301
529.83        60.96542
530.27        60.89933
530.71        60.83436
531.15        60.78414
531.59        60.75738
532.03        60.75321
532.46        60.76739
532.90        60.80534
533.34        60.85445
533.78        60.91045
534.22        60.94632
534.66        60.92067
535.09        60.82155
535.53        60.68679
535.97         60.5369
536.41        60.42159
536.85        60.35835
537.28        60.33633
537.72        60.35196
538.16        60.39791
538.60         60.4627
539.04        60.54379
539.47        60.60942
539.91        60.66318
540.35        60.68337
540.79        60.67284
541.22        60.63325
541.66        60.58533
542.10        60.53262
542.54        60.47244
542.97        60.40662
543.41        60.36955
543.85        60.36129
544.29        60.38523
544.72        60.41468
545.16        60.46052
545.60        60.51057
546.04        60.49276
546.47        60.44367
546.91         60.5905
547.35        60.85472
547.79        60.85292
548.22        60.60207
548.66        60.48204
549.10        60.51893
549.53        60.51788
549.97        60.47951
550.41        60.46228
550.84        60.47314
551.28        60.46933
551.72        60.43414
552.15        60.45296
552.59        60.56089
553.03        60.26979
553.46        60.43529
553.90        60.34306
554.34        60.23151
554.77        60.18038
555.21        60.12064
555.65        60.09232
556.08        60.25795
556.52        60.47065
556.96        60.68504
557.39        60.69837
557.83         60.5245
558.27        60.28778
558.70        60.07682
559.14        59.96344
559.57          59.967
560.01        60.14661
560.45         60.3839
560.88        60.42453
561.32        60.30968
561.75        60.14011
562.19        60.02489
562.63        60.07407
563.06        60.21755
563.50        60.18811
563.93        60.00602
564.37        59.78803
564.80        59.87101
565.24        59.98484
565.68        60.17656
566.11        60.27952
566.55        60.28839
566.98        60.36776
567.42         60.5073
567.85        60.37578
568.29        60.11543
568.72        60.20552
569.16        60.63425
569.60        60.74921
570.03         60.8161
570.47        60.84757
570.90        60.88747
571.34        61.03081
571.77        61.15749
572.21        61.10988
572.64        61.23721
573.08        61.28597
573.51        61.06603
573.95        61.45417
574.38        61.32257
574.82        62.14121
575.25        61.92587
575.69        61.84996
576.12        61.28192
576.56        61.29237
576.99        61.59775
577.42        61.52238
577.86        61.98162
578.29        62.24315
578.73        63.05037
579.16        62.34694
579.60         61.4433
580.03        61.86783
580.47        61.81622
580.90        61.96807
581.33        62.16153
581.77        62.10161
582.20        62.57699
582.64        62.90796
583.07        62.29365
583.51         61.9978
583.94        61.58826
584.37        61.31767
584.81        61.04278
585.24        61.13823
585.68        61.82379
586.11        61.68732
586.54        62.00255
586.98        61.45704
587.41         61.1829
587.85        61.55317
588.28        61.80006
588.71        61.98496
589.15        61.47459
589.58        61.40365
590.01        60.87989
590.45        60.92048
590.88        60.94432
591.31        60.71847
591.75        60.79462
592.18        60.65212
592.61        60.59514
593.05        61.05386
593.48        61.38217
593.91        61.99146
594.35        61.38608
594.78        61.29998
595.21        60.96891
595.65        61.07929
596.08        61.34332
596.51        61.46665
596.94        60.93186
597.38        60.68758
597.81        60.76161
598.24        60.91624
598.68        60.73543
599.11        60.66237
599.54        61.20893
599.97        61.15152
600.41        61.10299
600.84        61.27855
601.27         61.2998
601.70        61.03084
602.14        60.81142
602.57        60.55273
603.00        60.39155
603.43        60.94486
603.87        61.12804
604.30        61.11738
604.73        61.07651
605.16        60.77506
605.60        60.70898
606.03        60.81375
606.46        61.14417
606.89        60.94695
607.32        60.41568
607.76        61.14916
608.19        60.83838
608.62        60.90071
609.05        61.61259
609.48        60.90312
609.92         60.4946
610.35        60.29185
610.78        60.84382
611.21        60.80032
611.64        60.70814
612.07        60.66412
612.50        60.80892
612.94        60.80824
613.37        60.65894
613.80        60.66761
614.23        60.44441
614.66        60.35522
615.09        60.28676
615.52        60.28878
615.96        60.35369
616.39        60.33404
616.82        60.19584
617.25        60.45021
617.68        60.30011
618.11         60.2007
618.54        60.12352
618.97        60.03819
619.40        59.90721
619.84        59.98755
620.27        60.05853
620.70        59.94086
621.13        59.66281
621.56        59.67728
621.99        59.94591
622.42        60.06274
622.85        60.02361
623.28        59.76674
623.71        59.95868
624.14        60.12744
624.57        60.16881
625.00        60.37185
625.43        60.03388
625.86        59.96651
626.29        60.00533
626.72        59.81487
627.15        59.80371
627.58        59.68306
628.01        59.90582
628.44        59.61715
628.87        59.61443
629.30        59.79303
629.73        59.71838
630.16        59.52167
630.59        59.43763
631.02        59.67015
631.45        59.47089
631.88        59.52067
632.31        59.58418
632.74        59.37457
633.17        59.49055
633.60        59.41674
634.03        59.34299
634.46        59.31133
634.89          59.246
635.32        59.24979
635.75        59.29015
636.18        59.36288
636.61        59.44605
637.04        59.50745
637.47        59.53728
637.89        59.54979
638.32        59.53524
638.75        59.50459
639.18         59.4648
639.61        59.41521
640.04        59.37308
640.47        59.36689
640.90        59.40035
641.33        59.46428
641.76        59.53639
642.18         59.5851
642.61        59.58535
643.04        59.55292
643.47        59.49856
643.90        59.44539
644.33        59.40377
644.76        59.35806
645.18        59.31285
645.61        59.29825
646.04        59.30317
646.47        59.26581
646.90        59.20526
647.33        59.20883
647.75        59.27275
648.18        59.36473
648.61        59.47146
649.04        59.53049
649.47        59.50837
649.89        59.70168
650.32        59.47452
650.75        59.50578
651.18        59.57402
651.61        59.40741
652.03        59.06517
652.46        59.00149
652.89        59.24847
653.32        59.31645
653.74        59.16087
654.17        59.55401
654.60        59.04292
655.03        59.09475
655.46        59.07425
655.88         59.6227
656.31        61.59251
656.74        66.85787
657.16        65.55805
657.59        63.61211
658.02         61.0144
658.45        60.08475
658.87        60.08224
659.30        60.06669
659.73        59.22831
660.15        59.19373
660.58        59.50963
661.01        59.89899
661.44        60.08381
661.86        59.94884
662.29         59.5527
662.72        59.27323
663.14        59.21111
663.57        59.23652
664.00        59.30928
664.42        59.36261
664.85        59.38393
665.27        59.31941
665.70        59.37321
666.13        59.38702
666.55        59.42413
666.98         59.4682
667.41        59.49731
667.83        59.49242
668.26        59.45614
668.69        59.33542
669.11         59.1657
669.54        59.20873
669.96        59.53101
670.39         59.2925
670.82         59.8317
671.24        59.84752
671.67        59.75485
672.09        59.54168
672.52        59.34013
672.94        59.44841
673.37        59.76937
673.80         59.7532
674.22        59.43181
674.65         59.3033
675.07        59.40849
675.50        59.42334
675.92         59.3502
676.35        59.33188
676.77        59.36826
677.20        59.43134
677.62        59.52343
678.05        59.56449
678.47        59.53368
678.90        59.73891
679.32         59.6619
679.75         59.7086
680.17        59.72289
680.60        59.72193
681.02        59.72002
681.45        59.71908
681.87        59.73262
682.30        59.80884
682.72        59.92611
683.15        59.89273
683.57        59.72236
684.00        59.78804
684.42        59.73019
684.85        59.74514
685.27        59.72054
685.70        59.75156
686.12        59.80333
686.54        59.83696
686.97        59.84441
687.39        59.80743
687.82        59.76317
688.24        59.88018
688.66        60.08038
689.09        60.27826
689.51        60.03555
689.94        60.05237
690.36        60.18947
690.78        60.22794
691.21        60.16593
691.63        60.07569
692.06        60.01117
692.48         60.0649
692.90        60.19818
693.33        60.23276
693.75         60.1639
694.17        60.04136
694.60        59.90254
695.02        59.98833
695.44        60.03808
695.87        60.08813
696.29        60.06458
696.71        60.08422
697.14         60.1734
697.56        60.31644
697.98        60.42323
698.41        60.70698
698.83        60.48153
699.25        60.37958
699.68        60.24588
700.10        60.14503
700.52        60.09528
700.94        60.09341
701.37        60.12276
701.79        60.17481
702.21        60.22108
702.64         60.2731
703.06        60.31484
703.48         60.3272
703.90        60.31267
704.33        60.27317
704.75         60.2291
705.17        60.19805
705.59        60.18855
706.01        60.19069
706.44        60.21968
706.86        60.31481
707.28        60.46101
707.70        60.64713
708.12        60.82238
708.55        60.90044
708.97        60.85987
709.39        60.73108
709.81         60.5728
710.23        60.49544
710.66         60.5323
711.08         60.6614
711.50        60.80822
711.92        60.87157
712.34        60.82629
712.76        60.70184
713.19        60.54488
713.61        60.47789
714.03        60.50685
714.45        60.61339
714.87        60.74683
715.29        60.78816
715.71        60.71089
716.13        60.70834
716.56        60.53298
716.98        60.53597
717.40        60.64166
717.82        60.82674
718.24        61.03597
718.66        61.18678
719.08        61.25521
719.50         61.2577
719.92        61.23583
720.34         61.2553
720.76        61.33062
721.19        61.43199
721.61        61.53102
722.03        61.55398
722.45        61.48927
722.87        61.36785
723.29        61.24096
723.71        61.18921
724.13        61.23426
724.55        61.34578
724.97        61.49348
725.39        61.62735
725.81        61.72402
726.23        61.79638
726.65         61.8322
727.07        61.81737
727.49        61.75927
727.91        61.65171
728.33        61.53489
728.75        61.51397
729.17        61.59204
729.59        61.67112
730.01        61.74556
730.43        61.87044
730.85        62.02971
731.27        62.16563
731.69        62.26598
732.10        62.28241
732.52        62.40035
732.94        62.23946
733.36        61.93095
733.78        61.76864
734.20        61.79308
734.62        61.84311
735.04        61.90015
735.46        61.99599
735.88        62.12023
736.30        62.27857
736.72        62.39987
737.13        62.42486
737.55        62.31431
737.97        61.96613
738.39        61.54824
738.81        61.66074
739.23        62.20856
739.65        62.33786
740.06        62.00573
740.48        61.94073
740.90        62.11189
741.32         62.1071
741.74        61.94307
742.16        61.88204
742.57        61.95986
742.99        62.08408
743.41        62.21223
743.83        62.26134
744.25        62.21115
744.67        62.08674
745.08        61.97651
745.50        61.97807
745.92        62.12718
746.34        62.39201
746.75         62.6553
747.17        62.72425
747.59          62.564
748.01        62.20776
748.42        61.81629
748.84        61.67101
749.26         61.7982
749.68        62.07573
750.09        62.37654
750.51        62.40629
750.93        62.22672
751.35         62.3281
751.76        62.67647
752.18        62.78944
752.60        62.64919
753.01        62.55818
753.43        62.49897
753.85        62.35792
754.27        62.14965
754.68        61.92031
755.10        61.73968
755.52        61.68917
755.93        61.78748
756.35        62.00341
756.77        62.26379
757.18        62.49974
757.60        62.67747
758.02        62.70174
758.43        62.60965
758.85         62.8113
759.26        62.94763
759.68        63.02572
760.10        62.39428
760.51        62.14412
760.93        62.92923
761.34        62.36097
761.76        62.74383
762.18        62.88155
762.59         63.2544
763.01         63.4159
763.42        62.57989
763.84         62.5637
764.26        62.76107
764.67        63.02998
765.09         63.1703
765.50        63.25524
765.92        63.27316
766.33        63.12529
766.75         62.8567
767.16        62.72408
767.58        62.71719
768.00        62.81864
768.41         62.9988
768.83        63.01048
769.24        62.84719
769.66        63.12475
770.07        62.93475
770.49        63.16244
770.90        63.44049
771.32        63.32483
771.73        62.90441
772.15        62.75196
772.56        62.92593
772.97        63.10327
773.39        63.19859
773.80        63.28715
774.22        63.31445
774.63        63.29188
775.05        63.22312
775.46        63.16167
775.88        63.10267
776.29        63.05717
776.70        63.01138
777.12        62.95665
777.53        62.90978
777.95        62.87316
778.36        62.84708
778.77        62.82039
779.19        62.80003
779.60        62.80103
780.02        62.83064
780.43        62.95241
780.84        63.17364
781.26        63.34893
781.67         63.5034
782.09        63.86176
782.50        64.27233
782.91        64.22588
783.33        63.78044
783.74        63.57407
784.15        63.63734
784.57        63.67407
784.98        63.66011
785.39        63.60599
785.81        63.53994
786.22        63.60757
786.63        63.78852
787.04         63.9022
787.46        63.94626
787.87        63.99678
788.28        64.06373
788.70         64.1117
789.11         64.1213
789.52        64.10736
789.93        64.08824
790.35        64.08452
790.76        64.11594
791.17        64.18559
791.58        64.25466
792.00        64.24818
792.41        64.19118
792.82        64.07558
793.23        63.99485
793.65        64.12143
794.06        64.44936
794.47        64.82986
794.88        65.18923
795.29        65.27512
795.71        65.47821
796.12        65.49197
796.53        65.42439
796.94        65.17147
797.35        64.80815
797.76        64.62013
798.18        64.61643
798.59        64.54545
799.00        64.39857
799.41        64.35212
799.82        64.40419
800.23        64.45468
800.64        64.48899
801.06        64.51066
801.47        64.54317
801.88        64.55405
802.29        64.54303
802.70        64.50976
803.11         64.4782
803.52        64.49508
803.93        64.57282
804.34        64.69542
804.75        64.84303
805.17        64.98155
805.58        65.12128
805.99        65.22435
806.40        65.28756
806.81        65.37319
807.22        65.44582
807.63        65.35471
808.04        65.15488
808.45         65.0797
808.86        65.15583
809.27        65.26433
809.68        65.36356
810.09        65.42336
810.50        65.42271
810.91          65.381
811.32        65.30018
811.73        65.18234
812.14        65.04101
812.55        64.87456
812.96        64.74258
813.37        64.74628
813.78        64.89786
814.19        65.16113
814.60        65.43782
815.01         65.5752
815.42         65.5372
815.83        65.36417
816.24        65.12597
816.65         64.9606
817.05        64.93117
817.46        64.97951
817.87        65.09562
818.28        65.22034
818.69        65.33597
819.10        65.46331
819.51        65.61756
819.92        65.81531
820.33         66.0434
820.74        66.26608
821.14        66.44534
821.55         66.5561
821.96        66.58118
822.37         66.5392
822.78        66.43081
823.19        66.26062
823.60        66.04752
824.00        65.81171
824.41        65.58906
824.82        65.49993
825.23        65.56348
825.64        65.75518
826.04         65.9941
826.45        66.10639
826.86        66.06458
827.27        65.91438
827.68        65.72887
828.08        65.66679
828.49         65.7034
828.90        65.83208
829.31        66.03098
829.72        66.16758
830.12        66.21546
830.53        66.58047
830.94        66.49872
831.35        66.42278
831.75        66.15386
832.16         65.7172
832.57        65.30798
832.97        65.25351
833.38        65.60454
833.79        66.23117
834.20        66.91885
834.60         67.3455
835.01        67.42312
835.42         67.2505
835.82        66.91637
836.23        66.53381
836.64        66.19526
837.04        65.88748
837.45        65.64404
837.86        65.57549
838.26        65.70531
838.67         66.0042
839.08        66.39567
839.48        66.72478
839.89         66.9314
840.29        67.03831
840.70        67.08609
841.11         67.1555
841.51        67.28098
841.92        67.39458
842.33        67.47668
842.73         67.4959
843.14        67.41117
843.54        67.29601
843.95          67.172
844.35        67.09014
844.76         67.0601
845.17        67.05597
845.57        67.13176
845.98        67.33917
846.38        67.69234
846.79        68.14693
847.19        68.57131
847.60        68.67364
848.00        68.44169
848.41        67.92487
848.81        67.38515
849.22        67.20827
849.62        67.52877
850.03        68.17479
850.43        68.95036
850.84        69.44202
851.24        69.58556
851.65         69.4334
852.05        69.13116
852.46        68.84612
852.86        68.66795
853.27        68.58072
853.67        68.50069
854.07        68.45602
854.48        68.40707
854.88         68.3925
855.29        68.38283
855.69        68.47359
856.10        68.57782
856.50        68.75333
856.90        68.87431
857.31        68.78989
857.71        68.53216
858.12        68.09349
858.52         67.6151
858.92        67.27236
859.33        67.10937
859.73        67.13073
860.13        67.24986
860.54         67.3117
860.94        67.32992
861.34          67.311
861.75        67.26464
862.15         67.2852
862.55        67.35124
862.96         67.4043
863.36        67.44505
863.76         67.4338
864.17        67.35416
864.57        67.25435
864.97        67.09751
865.38        66.80354
865.78        66.41822
866.18        65.96574
866.58        65.59595
866.99        65.54877
867.39        65.90428
867.79        66.54633
868.19        67.27149
868.60         67.7116
869.00        67.86604
869.40        67.99744
869.80        68.07682
870.21        67.87367
870.61        67.46275
871.01        66.96319
871.41        66.49487
871.81        66.14713
872.22        65.96915
872.62        65.96489
873.02        66.09174
873.42        66.41376
873.82        66.71061
874.22         66.5118
874.63        66.09512
875.03        66.02207
875.43        66.35883
875.83        67.72232
876.23        67.49844
876.63        67.01194
877.03        65.98849
877.44        63.91677
877.84        164.6411
878.24        64.56461
878.64        65.30654
879.04        66.80319
879.44        67.39154
879.84        64.42809
880.24        69.13403
880.64        69.37019
881.04         67.2051
881.44        65.52108
881.84        64.83464
882.24        65.24862
882.65        66.19081
883.05        66.36727
883.45        65.51847
883.85        64.46909
884.25        63.64165
884.65        63.31277
885.05        63.59237
885.45        64.29797
885.85        65.11633
886.25        65.62622
886.65        65.71777
887.05        65.53074
887.45        65.17152
887.85        64.82114
888.25        64.56912
888.65        64.34926
889.04        64.23756
889.44        64.37164
889.84        64.73959
890.24        65.29214
890.64        65.84322
891.04         66.1114
891.44        66.04237
891.84        65.71358
892.24        65.26119
892.64        64.93317
893.04        64.82173
893.44        64.87106
893.83        65.02907
894.23        65.17971
894.63        65.30341
895.03        65.44674
895.43        65.63706
895.83        65.90361
896.23        66.23386
896.63        66.57069
897.02        66.86627
897.42        67.13126
897.82        67.32954
898.22        67.46751
898.62        67.50383
899.01        67.38339
899.41        67.09135
899.81        66.67274
900.21        66.22516
900.61        65.90398
901.00        65.74194
901.40        65.76971
901.80        65.92072
902.20        65.95155
902.59        65.79986
902.99        65.77277
903.39        66.03982
903.79        65.27864
904.18        66.03866
904.58        66.22907
904.98        66.44078
905.38        66.37234
905.77        65.98824
906.17        65.40218
906.57        64.78256
906.96        64.50317
907.36        64.64815
907.76        65.12177
908.15        65.76658
908.55        66.17058
908.95        66.25826
909.34        66.08004
909.74         65.8178
910.14        65.72208
910.53        65.85946
910.93        66.15123
911.33        66.39257
911.72        66.26521
912.12        65.73616
912.52        64.93085
912.91        64.13946
913.31        63.88942
913.70        64.26022
914.10        65.08952
914.49         66.0631
914.89        66.56451
915.29        66.44513
915.68        65.85806
916.08        65.11603
916.47         64.6721
916.87        64.68296
917.26        65.00533
917.66        65.42439
918.05        65.61617
918.45         65.4819
918.84        65.15994
919.24        64.83256
919.64        64.83965
920.03        65.25252
920.42        65.91196
920.82        66.59424
921.21        66.97701
921.61        66.99189
922.00        66.79946
922.40        66.58189
922.79        66.50004
923.19        66.27198
923.58           66.67
923.98        68.01265
924.37        67.93524
924.77        65.09509
925.16        72.66477
925.55        66.80157
925.95        67.34555
926.34        67.50558
926.74        67.10978
927.13         66.0881
927.52         65.4409
927.92        65.59344
928.31        65.95541
928.70         66.4418
929.10        66.85274
929.49        67.14848
929.89        67.42273
930.28         67.5629
930.67        67.27015
931.07        66.55296
931.46        65.40438
931.85        64.28837
932.24        64.42061
932.64        65.95462
933.03        67.92229
933.42         69.3378
933.82        71.85529
934.21        70.40341
934.60        68.97018
934.99        67.36996
935.39        66.82835
935.78        67.47018
936.17        69.54919
936.56        75.66492
936.96        69.14628
937.35        72.44344
937.74        68.94689
938.13        66.24577
938.53        64.21127
938.92        63.68092
939.31        65.05947
939.70        66.98683
940.09        68.09196
940.49        68.06395
940.88        67.39312
941.27        66.46838
941.66        66.00109
942.05        66.26295
942.44        66.93278
942.84        67.69383
943.23        68.23646
943.62        68.43578
944.01        68.38292
944.40        68.26333
944.79        68.35734
945.18        68.71717
945.57        69.24961
945.97        69.61022
946.36        69.38343
946.75        68.46632
947.14        67.01967
947.53        65.53448
947.92        64.84721
948.31        65.17633
948.70        66.26636
949.09        67.58658
949.48        68.31179
949.87        68.22965
950.26        67.57317
950.65        66.70421
951.04        66.22399
951.43         66.3071
951.82        66.74895
952.21         67.2821
952.60        67.47359
952.99        67.19888
953.38        66.63709
953.77        66.00886
954.16        65.59254
954.55        65.47279
954.94        65.58966
955.33        65.81808
955.72        65.94473
956.11        65.90546
956.50        65.74726
956.89        65.66965
957.28        65.98114
957.66        66.73765
958.05        67.73074
958.44        68.63267
958.83        68.96163
959.22        68.61121
959.61        67.68904
960.00        66.52006
960.39        65.75197
960.78        65.62935
961.16        66.03934
961.55        66.55535
961.94        66.66307
962.33        66.26191
962.72        65.49644
963.11        64.73456
963.49        64.69802
963.88        65.55608
964.27        66.98931
964.66        68.44239
965.04        69.20702
965.43        69.08682
965.82        68.32883
966.21        67.27035
966.60        66.51659
966.98        66.29415
967.37        66.44411
967.76        66.77174
968.15        66.94282
968.53        66.88765
968.92        66.72824
969.31        66.61584
969.69         66.7605
970.08        67.17135
970.47        67.71241
970.86         68.2954
971.24        68.80063
971.63        69.13182
972.02        69.34105
972.40        69.33869
972.79        68.89577
973.17        68.07851
973.56        66.97173
973.95        65.90827
974.33        65.48698
974.72        65.85446
975.11        66.80184
975.49        68.08913
975.88        69.21456
976.26        70.04901
976.65        70.64675
977.04        70.92632
977.42        70.74338
977.81        70.07541
978.19        68.87531
978.58        67.71624
978.96        67.62437
979.35        68.75558
979.74        70.68194
980.12        72.60458
980.51        73.34505
980.89        72.86295
981.28        71.40073
981.66        69.40326
982.05        68.04801
982.43        67.85757
982.82        68.54591
983.20        69.74179
983.59        70.83175
983.97        71.63417
984.35         72.2785
984.74        72.69705
985.12        72.83689
985.51        72.67334
985.89        72.28231
986.28        71.72511
986.66        71.15958
987.04        70.70297
987.43        70.26859
987.81        69.79633
988.20        70.55662
988.58        72.67957
988.96        73.51873
989.35        72.33759
989.73        78.03504
990.12        75.26806
990.50        75.72703
990.88        75.42547
991.27        75.03424
991.65        74.57573
992.03         74.1689
992.42        73.95039
992.80        73.67741
993.18        73.33443
993.56        73.02673
993.95        72.83706
994.33        72.83698
994.71        73.03233
995.10        73.35903
995.48        73.68622
995.86        73.79394
996.24        73.63614
996.63        73.21891
997.01        72.78411
997.39        72.51913
997.77        72.46883
998.15        72.56676
998.54        72.76307
998.92        72.86896
999.30        72.88477
999.68          72.905
1000.06        72.93987
1000.45        72.95649
1000.83        73.07337
1001.21        73.25101
1001.59        73.61755
1001.97        74.36742
1002.35         75.4369
1002.73        76.64662
1003.12        77.78278
1003.50         78.6554
1003.88        79.21454
1004.26         79.5182
1004.64        79.54418
1005.02         79.2531
1005.40        78.65753
1005.78        77.79128
1006.16        76.78297
1006.54        75.82504
1006.92        75.04674
1007.30        74.53937
1007.69        74.27271
1008.07          74.242
1008.45        74.39092
1008.83        74.68105
1009.21        75.25119
1009.59        76.29611
1009.97        77.66296
1010.35         79.0838
1010.73        80.17934
1011.11        80.79623
1011.49        81.07483
1011.86        80.80081
1012.24        79.99977
1012.62        81.56873
1013.00        82.99878
1013.38        83.96082
1013.76        83.20461
1014.14        86.20029
1014.52        90.03716
1014.90        83.27364
1015.28        82.72742
1015.66        82.93107
1016.04        79.36417
1016.41        79.96788
1016.79        79.92668
1017.17        80.29284
1017.55        80.40941
1017.93        80.64693
1018.31        81.20731
1018.69        81.89852
1019.06         82.7123
1019.44          83.521
1019.82        84.15011
1020.20        84.40002
1020.58        84.27322
1020.95        83.74536
1021.33        83.08395
1021.71        82.86483
1022.09        83.34023
1022.46        84.18694
1022.84        85.01791
1023.22        85.60913
1023.60        85.97583
1023.97        86.23357
1024.35        86.32749
1024.73        86.12959
