SpectraSmart Spectrum 2.9.0.0
--------- Device Information -----------
Spectrum Name :  反射率_0
Saving Time :  2024/04/21 00:23:24
Spectro-Module Model Name : SE2030-DUVN
Spectro-Module Serial Number : OS361AC55029948
Wavelength Start : 200
Wavelength End : 1025
Wavelength Unit : Wavelength(nm)
Spectrum Unit : Reflectance(%)
-----------Spectrum Setting ------------
Integration Time : 20ms
Average : 10
Boxcar : 0
Background removal :  enabled
linearity correction :  enabled
SC :  disabled
Intensity correction :  disabled
DWT denoise :  enabled
savitzky-golay :  disabled
FFT :  disabled
Running average :  disabled
Kalman :  disabled
High pass :  disabled
---------------BEGIN--------------------
Wavelength(nm)             Reflectance(%)
200.29               0
200.75       -50.97432
201.21       -8.566326
201.67         15.0875
202.13        24.92612
202.58         26.8781
203.04        24.99031
203.50        20.94341
203.96        17.99766
204.42        17.75244
204.88        18.45739
205.34        18.81976
205.80        16.87205
206.26        11.83928
206.72        5.385103
207.18       -3.008228
207.64       -14.24299
208.10       -25.54442
208.55       -35.74162
209.01       -33.93458
209.47        -11.6979
209.93        12.55672
210.39        30.10747
210.85        40.76555
211.31        45.58252
211.77        46.53837
212.23        44.72265
212.69        38.01908
213.14        21.48409
213.60       -17.05404
214.06       -144.2243
214.52       -456.8347
214.98       -196.3181
215.44        -30.9475
215.90        24.86161
216.36        43.21743
216.81        44.63657
217.27        31.89534
217.73       -33.47438
218.19        754.6982
218.65           336.3
219.11       -651.1698
219.57       -2.468574
220.02        39.06049
220.48        47.31831
220.94        45.32431
221.40        33.39036
221.86        3.759254
222.32       -14.43164
222.77        13.56732
223.23        37.36524
223.69        48.64777
224.15        51.05936
224.61        48.52682
225.06        43.36479
225.52        37.20089
225.98        32.48055
226.44        30.38467
226.90        29.56888
227.36        31.19085
227.81        36.14004
228.27        41.80779
228.73        46.80556
229.19        49.67924
229.65        49.51717
230.10        46.75998
230.56        42.26531
231.02        36.85234
231.48        33.56791
231.93        34.45578
232.39        38.42966
232.85        42.60588
233.31         44.4941
233.77        44.29001
234.22        43.13273
234.68        41.47365
235.14        40.23297
235.60        40.04546
236.05        40.01207
236.51        40.13271
236.97        44.81797
237.43        53.82097
237.88        59.87646
238.34         60.1021
238.80        74.35555
239.26        66.23166
239.71        62.03603
240.17        51.90932
240.63        41.62127
241.08        36.02237
241.54        38.66146
242.00        49.34888
242.46         57.1598
242.91        59.23577
243.37        56.69389
243.83        50.53253
244.28        46.01607
244.74        46.59525
245.20         48.8794
245.66         50.1147
246.11        47.92011
246.57        41.70742
247.03        32.67415
247.48        20.89491
247.94         5.67695
248.40       -17.77363
248.85       -72.24233
249.31       -239.9081
249.77       -391.3834
250.22       -141.5981
250.68       -32.66636
251.14        5.343601
251.59        21.24736
252.05        30.92554
252.51        40.86475
252.96        50.29412
253.42        53.19802
253.88        46.59791
254.33        34.90665
254.79        29.90314
255.25        37.50762
255.70        50.49996
256.16        62.84002
256.62        71.03479
257.07        73.35031
257.53        72.23546
257.99        69.60297
258.44        66.85897
258.90        65.93609
259.35         66.0578
259.81        66.79916
260.27        67.27294
260.72        66.70911
261.18        65.63828
261.63        64.19479
262.09        62.90234
262.55        61.71633
263.00           60.55
263.46        59.56574
263.91        58.62147
264.37        58.04061
264.83        57.69743
265.28        57.43825
265.74        57.25211
266.19        56.85674
266.65        56.29323
267.11         55.5735
267.56         54.6763
268.02        53.68948
268.47        52.59091
268.93         51.3995
269.38        50.17866
269.84        49.10353
270.30        48.19266
270.75        47.42891
271.21        46.69783
271.66        45.73095
272.12        44.53876
272.57        43.18783
273.03        41.92725
273.48        41.05509
273.94        40.63086
274.39          40.479
274.85        40.39414
275.31        39.99055
275.76        39.18563
276.22        38.16826
276.67        37.08854
277.13         36.2615
277.58        35.69694
278.04         35.3251
278.49        35.00221
278.95        34.63797
279.40        34.14573
279.86        33.61788
280.31        33.03041
280.77        32.44699
281.22         31.8497
281.68        31.29245
282.13        30.74484
282.59        30.26398
283.04        29.82297
283.50        29.43143
283.95        29.10966
284.41        28.92817
284.86        28.86443
285.32        28.91459
285.77        28.94177
286.22          28.774
286.68        28.41594
287.13         27.8906
287.59        27.40998
288.04        27.18476
288.50        27.23454
288.95        27.58395
289.41        28.10092
289.86        28.11841
290.32        27.52286
290.77        28.21463
291.22        27.22887
291.68        27.21658
292.13        27.32039
292.59        27.57961
293.04        27.96943
293.50        28.52894
293.95        29.25923
294.40        30.12389
294.86        31.06355
295.31        31.96915
295.77        32.80794
296.22        33.58625
296.68        34.34312
297.13         35.1349
297.58         35.9962
298.04        36.91706
298.49        37.89296
298.95        38.93862
299.40        40.03423
299.85        41.18436
300.31        42.36723
300.76         43.5235
301.21        44.64825
301.67        45.77639
302.12        46.90968
302.58        48.14619
303.03        49.47898
303.48        50.92975
303.94         52.4732
304.39        54.02507
304.84        55.56977
305.30        57.13195
305.75        58.71737
306.20        60.42735
306.66        62.26675
307.11        64.16315
307.57        66.03773
308.02        67.71613
308.47        69.19259
308.93        70.55436
309.38         71.8846
309.83        73.34354
310.29        75.05714
310.74        76.86779
311.19        78.68243
311.65        80.30151
312.10        81.66256
312.55        82.83307
313.00        83.91262
313.46        85.06389
313.91        86.31145
314.36         87.6031
314.82        88.87598
315.27        90.03397
315.72        91.05862
316.18        91.98732
316.63        92.85155
317.08        93.69888
317.53        94.54007
317.99        95.35183
318.44        96.11702
318.89        96.79833
319.35        97.39084
319.80          97.924
320.25        98.42137
320.70        98.92234
321.16        99.43016
321.61        99.94382
322.06        100.4581
322.51         100.975
322.97        101.4721
323.42        101.9806
323.87        102.4508
324.32        102.8178
324.78        103.0529
325.23        103.2155
325.68        103.3471
326.13        103.5479
326.59        103.8251
327.04        104.2101
327.49        104.6454
327.94        105.0632
328.39        105.4406
328.85        105.7682
329.30        106.1263
329.75        106.5158
330.20        106.9426
330.66        107.3517
331.11        107.7925
331.56        108.2165
332.01        108.6158
332.46         108.997
332.92        109.3146
333.37        109.6353
333.82        109.9236
334.27        110.1928
334.72        110.4734
335.17         110.814
335.63        111.2002
336.08        111.6808
336.53        112.2176
336.98        112.7908
337.43        113.3817
337.88        113.9838
338.34        114.5454
338.79        115.0446
339.24        115.4468
339.69        115.7647
340.14        116.0322
340.59        116.3138
341.05        116.6339
341.50        116.9871
341.95        117.3718
342.40        117.7844
342.85        118.2176
343.30        118.6765
343.75        119.1261
344.20        119.5129
344.66        119.8325
345.11          120.07
345.56        120.2767
346.01        120.5369
346.46        120.8697
346.91        121.2338
347.36        121.5454
347.81         121.743
348.26        121.8275
348.72         121.591
349.17        121.5789
349.62        121.5992
350.07        121.8202
350.52        122.1608
350.97        122.5197
351.42        122.7243
351.87          122.71
352.32        122.5287
352.77        122.2179
353.22         121.833
353.67        121.4104
354.13        120.9653
354.58         120.495
355.03        120.0538
355.48        119.6596
355.93        119.3046
356.38        119.0051
356.83         118.775
357.28        118.5878
357.73        118.4144
358.18        118.1639
358.63        117.6993
359.08        117.0034
359.53        116.1347
359.98        115.1841
360.43        114.2901
360.88        113.4965
361.33        112.7658
361.78        112.0974
362.23        111.4851
362.68        110.9146
363.13        110.3965
363.58        109.8621
364.03        109.1954
364.48        108.3769
364.93        107.4321
365.38         106.462
365.83        105.6423
366.28        105.0088
366.73        104.5008
367.18        104.0202
367.63        103.4089
368.08          102.63
368.53        101.7516
368.98        100.8216
369.43        99.89877
369.88         99.0094
370.33        98.13132
370.78        97.30335
371.23        96.61092
371.68        96.07263
372.13        95.66544
372.58        95.32212
373.03        94.91791
373.48        94.40941
373.93         93.8271
374.38        93.18221
374.83        92.51196
375.28        91.84897
375.72        91.16728
376.17        90.54749
376.62        90.02969
377.07        89.60162
377.52        89.23571
377.97         88.8643
378.42        88.38428
378.87        87.78716
379.32        87.12554
379.77        86.44961
380.22        85.81609
380.67        85.23226
381.11        84.67616
381.56        84.14994
382.01        83.68507
382.46        83.29214
382.91        82.97512
383.36        82.67553
383.81        82.29639
384.26        81.81821
384.71        81.26244
385.15        80.69508
385.60        80.28917
386.05        80.04591
386.50        79.91716
386.95        79.80047
387.40        79.54076
387.85        79.11998
388.29        78.55901
388.74        78.05119
389.19        77.66023
389.64        77.39587
390.09        77.19953
390.54        77.03864
390.98        76.85162
391.43        76.66549
391.88        76.49469
392.33        76.30622
392.78        76.08193
393.23        75.83262
393.67        75.43054
394.12        75.05114
394.57        74.99767
395.02        75.16985
395.47         75.0041
395.91         74.5351
396.36         74.2654
396.81        74.23502
397.26         74.1751
397.71         74.0122
398.15        73.76271
398.60        73.50648
399.05        73.07374
399.50        72.62795
399.95        72.62666
400.39        72.97288
400.84        73.06632
401.29        72.82399
401.74        72.41103
402.18        71.94854
402.63        71.69543
403.08        71.65196
403.53        71.47464
403.97        71.16454
404.42        71.01711
404.87        70.99973
405.32        70.94904
405.76        70.84064
406.21         70.6731
406.66        70.48126
407.11        70.45152
407.55        70.53714
408.00        70.41308
408.45         70.1036
408.90        69.75043
409.34        69.47256
409.79        69.54636
410.24         69.8541
410.68        69.92605
411.13        69.72634
411.58        69.52181
412.03        69.37888
412.47        69.30616
412.92        69.30248
413.37        69.37156
413.81        69.45593
414.26        69.52551
414.71        69.54468
415.15        69.54317
415.60        69.48576
416.05        69.37683
416.49        69.23026
416.94        69.04327
417.39        68.85838
417.83        68.73251
418.28        68.67976
418.73         68.6797
419.17        68.70224
419.62        68.70499
420.07        68.67308
420.51        68.61306
420.96        68.55122
421.41        68.48935
421.85        68.40908
422.30        68.31863
422.74        68.21714
423.19        68.28399
423.64        68.45874
424.08        68.59731
424.53        68.63213
424.98        68.64598
425.42        68.62377
425.87         68.8596
426.31        68.57047
426.76        68.74034
427.21        69.07113
427.65        69.24127
428.10        69.16756
428.54        69.07712
428.99        69.01313
429.44        68.84438
429.88        68.61172
430.33        68.46612
430.77         68.4015
431.22        68.60167
431.66        68.95175
432.11        69.13148
432.56        69.11963
433.00        68.97596
433.45        68.65714
433.89        68.55519
434.34        69.21675
434.78         68.6218
435.23        68.14698
435.67        69.12906
436.12        68.99014
436.57        69.52336
437.01        68.95689
437.46        68.71957
437.90        69.21422
438.35         69.6238
438.79        69.64387
439.24        69.68018
439.68        69.60794
440.13        69.45707
440.57          69.266
441.02        69.15011
441.46        69.15902
441.91        69.22514
442.35        69.28201
442.80        69.78086
443.24        70.48322
443.69        70.44011
444.13         69.7525
444.58        69.44759
445.02        69.58183
445.47        69.75337
445.91        69.86568
446.36         69.9532
446.80        69.98112
447.24        69.91542
447.69        69.82724
448.13          70.009
448.58         70.2156
449.02        70.24538
449.47        70.05687
449.91        69.97003
450.36        70.01591
450.80        69.92327
451.25        69.76195
451.69        69.81232
452.13        70.02804
452.58        70.04198
453.02        69.83797
453.47        69.70257
453.91        69.62882
454.36        69.46566
454.80        69.23894
455.24        69.05054
455.69        68.92181
456.13        68.86587
456.58        68.92019
457.02        68.78006
457.46        68.67504
457.91        68.88846
458.35        68.79118
458.79        68.77676
459.24        68.67395
459.68        68.52341
460.13        68.36932
460.57        68.22932
461.01        68.15085
461.46        68.03758
461.90        67.82414
462.34        67.98821
462.79        67.69681
463.23        67.65871
463.68        67.97027
464.12        67.70547
464.56        67.14865
465.01        67.29337
465.45        67.91721
465.89        68.06733
466.34        67.74618
466.78        67.46207
467.22        67.31336
467.67          67.159
468.11        67.00383
468.55        66.86051
468.99        66.71731
469.44        66.58485
469.88        66.46259
470.32        66.32895
470.77        66.20487
471.21        66.13481
471.65        66.11662
472.10        66.13469
472.54         66.1535
472.98        66.12577
473.42         66.0532
473.87        65.99662
474.31        65.91393
474.75        65.81203
475.20        65.76083
475.64        65.57432
476.08        65.98503
476.52         66.0188
476.97        65.85139
477.41        65.94542
477.85        66.16443
478.29        65.59415
478.74        65.49605
479.18        65.29246
479.62        65.85236
480.06        65.98208
480.50        65.84116
480.95        65.75961
481.39        65.71846
481.83        65.84792
482.27        65.82672
482.72        65.75639
483.16        65.90517
483.60        65.82645
484.04        66.03548
484.48        65.79046
484.93        65.59641
485.37        65.53033
485.81         65.9482
486.25        65.47243
486.69        66.88644
487.14        67.11169
487.58        66.26415
488.02        65.48547
488.46        65.45944
488.90        65.80883
489.34        65.36955
489.79        65.04287
490.23        65.08804
490.67        65.14626
491.11        65.32465
491.55        65.23103
491.99        64.93764
492.43        64.83246
492.88        64.93843
493.32        65.07594
493.76         65.1372
494.20        65.15558
494.64        65.13961
495.08        64.74305
495.52        64.57582
495.96        64.68284
496.41        65.10534
496.85        65.30179
497.29         65.1828
497.73        65.19151
498.17        65.00924
498.61        65.08262
499.05        65.22718
499.49        64.89614
499.93         64.2847
500.37        64.27155
500.82        64.77988
501.26        65.12282
501.70        65.19558
502.14        64.80857
502.58        64.59219
503.02        64.40971
503.46        64.39968
503.90        64.40596
504.34        64.37641
504.78        64.36984
505.22        64.39441
505.66        64.35799
506.10        64.28168
506.54        64.35482
506.98        64.60947
507.42        64.10232
507.86        64.99226
508.30        64.19694
508.74        64.67603
509.18        64.49299
509.62        64.37766
510.06        64.32169
510.50        64.31218
510.94        64.26121
511.38        64.14779
511.82        64.07612
512.26        64.04449
512.70        64.00419
513.14         63.9597
513.58        63.93615
514.02        63.93367
514.46        63.94746
514.90        63.95065
515.34        63.93387
515.78        63.89729
516.22        63.82568
516.66        63.59601
517.10        63.82467
517.54        63.69592
517.98        63.83554
518.42         63.9573
518.86        64.01392
519.30        63.98788
519.74         63.8606
520.18        63.71326
520.62        63.75266
521.06        63.95049
521.50        64.04236
521.93        63.99261
522.37        63.94923
522.81        63.90927
523.25        63.77454
523.69        63.58519
524.13        63.46054
524.57        63.42178
525.01        63.43536
525.45        63.48741
525.89        63.55428
526.32        63.62114
526.76        63.70181
527.20         63.7827
527.64        63.84352
528.08        63.87754
528.52        63.88333
528.96        63.87589
529.40        63.87581
529.83         63.8845
530.27        63.92607
530.71        63.95945
531.15        63.92237
531.59        63.81807
532.03        63.64783
532.46         63.4464
532.90        63.37724
533.34        63.47343
533.78        63.32926
534.22        63.56333
534.66         63.5806
535.09        63.55055
535.53        63.49722
535.97        63.44263
536.41        63.42694
536.85        63.45377
537.28        63.51029
537.72         63.5723
538.16        63.60629
538.60        63.60071
539.04        63.56856
539.47        63.50745
539.91        63.46474
540.35        63.43318
540.79        63.41179
541.22        63.39277
541.66        63.37746
542.10        63.36202
542.54        63.34724
542.97        63.33907
543.41         63.3777
543.85        63.45634
544.29        63.56989
544.72        63.67049
545.16        63.72453
545.60        63.70696
546.04        63.60671
546.47        63.48338
546.91        63.45735
547.35        63.51489
547.79        63.61561
548.22        63.67882
548.66        63.52367
549.10        63.24608
549.53        63.25084
549.97        63.51417
550.41        63.61274
550.84        63.53386
551.28        63.49304
551.72         63.4942
552.15        63.54784
552.59        63.68851
553.03        63.43304
553.46          63.672
553.90        63.59772
554.34         63.4472
554.77        63.51029
555.21        63.31182
555.65        63.33225
556.08        63.40133
556.52        63.59844
556.96        63.82106
557.39        63.81273
557.83         63.6258
558.27        63.54384
558.70        63.60353
559.14        63.61471
559.57        63.56697
560.01        63.70461
560.45        63.91347
560.88        63.78189
561.32        63.43896
561.75        63.25267
562.19        63.29588
562.63        63.46122
563.06         63.6436
563.50        63.56212
563.93         63.2623
564.37        63.17647
564.80        63.30337
565.24        63.44575
565.68        63.54888
566.11        63.62291
566.55        63.67416
566.98        63.67855
567.42        63.67701
567.85        63.69091
568.29        63.74583
568.72        63.74429
569.16        63.76215
569.60        63.74304
570.03         63.9992
570.47        64.15222
570.90        64.20206
571.34        64.39896
571.77        64.69775
572.21          64.279
572.64        64.32639
573.08        64.10753
573.51         64.0237
573.95        64.46152
574.38        64.43351
574.82        64.73267
575.25        64.92395
575.69         64.9202
576.12        64.36437
576.56        64.36503
576.99        64.49664
577.42        64.75761
577.86        64.60699
578.29        65.40398
578.73        65.35683
579.16        65.04441
579.60        64.34271
580.03        64.64752
580.47        64.72515
580.90        64.67192
581.33        64.72359
581.77        64.84412
582.20         65.4566
582.64        65.57395
583.07        65.19461
583.51        64.92928
583.94        64.67307
584.37        64.64746
584.81        63.94588
585.24        64.00844
585.68        64.93881
586.11        64.38591
586.54        64.73746
586.98        64.71125
587.41        64.37462
587.85        64.71469
588.28        64.89277
588.71        65.12715
589.15        64.77621
589.58        64.46051
590.01        64.32603
590.45        64.01721
590.88         64.3345
591.31         64.0609
591.75        64.12554
592.18        64.02989
592.61        64.05663
593.05        64.36781
593.48        64.75397
593.91        64.92522
594.35        64.86402
594.78         64.4502
595.21        64.12877
595.65          64.187
596.08         64.5838
596.51        64.81539
596.94        64.30676
597.38        64.15434
597.81        64.25821
598.24        64.45491
598.68        64.13415
599.11        64.10914
599.54        64.68097
599.97        63.98609
600.41        64.48058
600.84        64.59537
601.27        64.67614
601.70        64.53988
602.14         64.3865
602.57        64.27287
603.00        64.31705
603.43        64.30643
603.87        64.80125
604.30        64.62448
604.73        64.51472
605.16        64.12818
605.60        64.28135
606.03        64.42366
606.46        64.78143
606.89        64.23184
607.32        64.00045
607.76        64.73864
608.19         64.3924
608.62        64.42856
609.05         64.9564
609.48        64.58266
609.92        64.71391
610.35        64.39311
610.78          64.511
611.21        64.28739
611.64        64.32889
612.07        64.26079
612.50         64.3302
612.94        64.32594
613.37        64.29589
613.80        64.29166
614.23        64.29932
614.66         64.1767
615.09         64.0108
615.52        63.98635
615.96        64.11497
616.39        64.10779
616.82         63.9277
617.25        64.18809
617.68        63.99651
618.11        64.06064
618.54        63.96225
618.97        63.97755
619.40          64.076
619.84        63.72363
620.27        63.80297
620.70        63.75208
621.13        63.81699
621.56        63.80626
621.99        63.75489
622.42        63.85881
622.85        64.05569
623.28        64.00874
623.71        64.25228
624.14        63.96168
624.57        64.02281
625.00        64.31647
625.43        63.93966
625.86        63.97843
626.29        64.04926
626.72         64.1287
627.15        63.90818
627.58        63.81384
628.01         63.8264
628.44        63.63787
628.87        63.34937
629.30        63.89918
629.73        63.56291
630.16        63.71465
630.59        63.52809
631.02         63.8776
631.45        63.73105
631.88        63.81889
632.31         63.8933
632.74        63.64627
633.17        63.73579
633.60        63.61711
634.03        63.50123
634.46         63.4315
634.89        63.33188
635.32        63.31846
635.75        63.35754
636.18        63.44724
636.61        63.55254
637.04         63.6183
637.47        63.63135
637.89        63.61223
638.32        63.57054
638.75        63.55117
639.18        63.56626
639.61        63.60074
640.04        63.64828
640.47        63.70041
640.90        63.74955
641.33        63.79739
641.76        63.83289
642.18          63.844
642.61        63.81387
643.04        63.75463
643.47        63.67962
643.90        63.61684
644.33        63.57686
644.76        63.54212
645.18        63.51329
645.61        63.51661
646.04        63.53526
646.47        63.49836
646.90        63.42632
647.33        63.41654
647.75        63.46497
648.18        63.54382
648.61        63.64803
649.04        63.68819
649.47        63.63648
649.89        63.90716
650.32        63.79517
650.75        63.80539
651.18        63.73214
651.61        63.65277
652.03        63.60351
652.46        63.53647
652.89        63.46959
653.32        63.70341
653.74        63.76659
654.17        63.87695
654.60        63.23758
655.03        63.51398
655.46        63.20156
655.88        64.16851
656.31        64.70658
656.74        69.05737
657.16        68.23047
657.59        66.45072
658.02        63.96303
658.45        63.83669
658.87        64.04676
659.30        63.55186
659.73        63.80167
660.15        63.45918
660.58        63.60569
661.01         63.8646
661.44        64.22556
661.86        64.15135
662.29         63.6903
662.72        63.49452
663.14        63.62344
663.57        63.73212
664.00        63.76564
664.42        63.78406
664.85        63.78168
665.27        63.63329
665.70        63.58176
666.13        63.53107
666.55        63.56098
666.98         63.6326
667.41        63.72081
667.83        63.79335
668.26        63.84289
668.69        63.82679
669.11        63.73662
669.54        63.76416
669.96        63.96508
670.39        63.49318
670.82        63.88324
671.24         63.7818
671.67        63.69571
672.09        63.86557
672.52        64.23679
672.94        64.40495
673.37        64.32083
673.80        64.14625
674.22        63.95909
674.65        63.81705
675.07         63.7749
675.50        63.78476
675.92        63.82629
676.35        63.85873
676.77        63.86047
677.20        63.87651
677.62        63.93579
678.05        63.94494
678.47        63.88028
678.90        64.23752
679.32        64.12474
679.75         64.2319
680.17        64.29139
680.60        64.32721
681.02        64.34194
681.45        64.35157
681.87         64.3716
682.30        64.37362
682.72        64.37041
683.15        64.36207
683.57        64.32555
684.00        64.33653
684.42        64.10132
684.85         64.0489
685.27        64.08461
685.70        64.14397
686.12        64.19405
686.54        64.24817
686.97        64.28753
687.39        64.33968
687.82        64.38365
688.24        64.35362
688.66        64.22517
689.09         64.2767
689.51        64.06813
689.94        64.08185
690.36        64.17285
690.78        64.30707
691.21        64.44703
691.63        64.42797
692.06        64.40851
692.48         64.4344
692.90        64.53378
693.33        64.55426
693.75        64.50217
694.17        64.43101
694.60        64.35224
695.02         64.4231
695.44        64.37882
695.87        64.42943
696.29        64.49394
696.71        64.47525
697.14        64.39513
697.56        64.51467
697.98        64.79349
698.41        64.76321
698.83        64.80515
699.25        64.73369
699.68        64.67603
700.10        64.59858
700.52        64.51339
700.94        64.42548
701.37        64.34564
701.79          64.347
702.21         64.4164
702.64        64.54272
703.06        64.67599
703.48        64.74448
703.90        64.73568
704.33        64.66664
704.75        64.57957
705.17        64.52583
705.59        64.52362
706.01        64.55123
706.44        64.60663
706.86        64.70422
707.28        64.82314
707.70        64.96449
708.12        65.09551
708.55        65.15429
708.97        65.12342
709.39        65.02375
709.81        64.90258
710.23        64.85058
710.66        64.89469
711.08        65.02362
711.50         65.1628
711.92        65.21091
712.34        65.14838
712.76        65.00584
713.19        64.84694
713.61        64.82812
714.03        64.95646
714.45        65.18658
714.87        65.43938
715.29        65.57842
715.71        65.57026
716.13        65.51689
716.56        65.34405
716.98        65.25826
717.40        65.24334
717.82        65.27177
718.24         65.3311
718.66        65.40324
719.08        65.47677
719.50        65.56065
719.92        65.63744
720.34        65.67328
720.76        65.66441
721.19        65.61051
721.61        65.55588
722.03         65.5463
722.45         65.5958
722.87        65.69093
723.29        65.81071
723.71        65.91851
724.13        66.00083
724.55        66.06471
724.97        66.11683
725.39        66.17007
725.81        66.22511
726.23        66.27031
726.65         66.2985
727.07        66.30495
727.49        66.29278
727.91        66.26289
728.33        66.21801
728.75        66.19224
729.17        66.17896
729.59        66.10643
730.01         66.0256
730.43        66.07685
730.85        66.26633
731.27        66.52021
731.69        66.76508
732.10        66.83187
732.52        66.90246
732.94        66.63268
733.36        66.20871
733.78        65.98408
734.20        66.02773
734.62        66.17976
735.04        66.35541
735.46        66.47515
735.88        66.49822
736.30        66.45341
736.72        66.38436
737.13         66.3539
737.55        66.34058
737.97        66.40883
738.39        66.51878
738.81        66.46653
739.23        66.32457
739.65        66.43515
740.06        66.68557
740.48        66.86307
740.90        66.95869
741.32        66.45075
741.74        66.66592
742.16        66.55338
742.57        66.52905
742.99        66.54902
743.41        66.60068
743.83        66.61133
744.25        66.55722
744.67        66.46944
745.08        66.40533
745.50        66.42001
745.92        66.54057
746.34        66.73583
746.75          66.947
747.17        67.07904
747.59        67.11105
748.01        67.03973
748.42        66.92048
748.84        66.89228
749.26         66.9472
749.68          66.935
750.09        66.85603
750.51        66.78356
750.93         66.7559
751.35        66.86696
751.76        67.06296
752.18        67.12118
752.60        67.02023
753.01        66.90038
753.43        66.76317
753.85        66.61668
754.27        66.48156
754.68        66.35056
755.10         66.2729
755.52        66.30122
755.93        66.43817
756.35        66.68141
756.77        66.95486
757.18        67.07735
757.60        67.00334
758.02        66.86584
758.43        66.82618
758.85        66.49834
759.26        66.95522
759.68        67.29506
760.10        66.99239
760.51        66.70882
760.93         67.0153
761.34        67.05724
761.76        67.06636
762.18         66.9911
762.59        66.85254
763.01        67.10709
763.42        66.86842
763.84        67.14524
764.26        67.30926
764.67        67.68578
765.09        68.06461
765.50        68.12486
765.92        67.92709
766.33        67.76985
766.75        67.68481
767.16          67.568
767.58        67.37234
768.00        67.39225
768.41        67.60226
768.83        67.35147
769.24        66.76225
769.66        67.18192
770.07        67.62437
770.49        67.77682
770.90        67.40858
771.32        67.26871
771.73        67.40784
772.15        67.44581
772.56        67.40697
772.97        67.47251
773.39        67.58941
773.80        67.65828
774.22        67.63084
774.63        67.56448
775.05        67.47628
775.46        67.44549
775.88        67.46875
776.29        67.54578
776.70        67.63081
777.12        67.66315
777.53         67.6528
777.95         67.6225
778.36        67.60037
778.77         67.6226
779.19        67.69247
779.60        67.78738
780.02        67.92299
780.43        68.11642
780.84         68.3533
781.26          68.697
781.67        69.06215
782.09        69.02454
782.50        68.65063
782.91         68.4715
783.33         68.5216
783.74         68.5191
784.15        68.43485
784.57        68.58004
784.98        68.85812
785.39        68.80803
785.81        68.47077
786.22        68.27976
786.63        68.29195
787.04        68.30595
787.46        68.34283
787.87         68.5059
788.28        68.75974
788.70        68.92962
789.11        68.96201
789.52         69.0109
789.93        69.05677
790.35        68.85177
790.76        68.51744
791.17        68.52731
791.58        68.86203
792.00        69.04446
792.41         69.0733
792.82        69.24091
793.23        69.55538
793.65         69.7495
794.06        69.82803
794.47        70.08378
794.88        70.49188
795.29        70.23917
795.71        70.37766
796.12        70.21936
796.53         70.0787
796.94        69.78346
797.35         69.4157
797.76        69.28608
798.18        69.37214
798.59        69.37678
799.00        69.27396
799.41        69.24364
799.82        69.29604
800.23        69.35716
800.64        69.42065
801.06        69.48236
801.47         69.5532
801.88        69.57834
802.29        69.55319
802.70        69.48159
803.11        69.41624
803.52        69.45107
803.93        69.60519
804.34        69.84747
804.75          70.107
805.17         70.2645
805.58        70.31694
805.99        70.26031
806.40        70.14993
806.81        70.14113
807.22        70.23038
807.63        70.24726
808.04        70.21516
808.45        70.29884
808.86        70.49618
809.27        70.70909
809.68        70.89473
810.09        71.01661
810.50        71.05062
810.91        71.00473
811.32        70.88604
811.73        70.71246
812.14        70.50462
812.55        70.26833
812.96        70.05485
813.37        69.94765
813.78        69.96539
814.19        70.08681
814.60        70.25134
815.01        70.35899
815.42        70.38212
815.83        70.34518
816.24        70.27359
816.65        70.22116
817.05        70.21667
817.46        70.21375
817.87        70.24223
818.28        70.30489
818.69        70.40462
819.10        70.55216
819.51        70.73125
819.92        70.91182
820.33        71.07298
820.74        71.17378
821.14        71.23973
821.55         71.3932
821.96        71.60466
822.37        71.74188
822.78        71.73685
823.19        71.58699
823.60         71.2856
824.00        70.82478
824.41        70.30501
824.82        70.00231
825.23        69.98452
825.64        70.19301
826.04        70.52263
826.45        70.75492
826.86         70.8429
827.27        70.84636
827.68        70.83498
828.08        70.95469
828.49        71.16727
828.90        71.45286
829.31        71.77213
829.72        71.99671
830.12        72.10363
830.53        72.41606
830.94        72.32271
831.35         72.2243
831.75        71.96671
832.16        71.55599
832.57        71.13764
832.97        70.94646
833.38        71.02896
833.79        71.31717
834.20        71.66879
834.60        71.85987
835.01        71.83411
835.42        71.65961
835.82        71.43068
836.23        71.25966
836.64        71.21581
837.04        71.27306
837.45        71.37918
837.86        71.51562
838.26        71.67243
838.67        71.83783
839.08        72.01954
839.48         72.2109
839.89        72.39419
840.29        72.56597
840.70        72.69436
841.11        72.73756
841.51        72.70727
841.92        72.58076
842.33        72.43066
842.73        72.37322
843.14         72.3922
843.54        72.49761
843.95        72.61728
844.35        72.65546
844.76        72.58147
845.17        72.43456
845.57        72.29671
845.98        72.26289
846.38        72.38713
846.79        72.60699
847.19         72.8808
847.60         73.0639
848.00        73.15015
848.41        73.12965
848.81        73.09522
849.22        73.12653
849.62        73.28152
850.03        73.48868
850.43        73.68964
850.84        73.68667
851.24        73.50262
851.65        73.13445
852.05        72.76746
852.46        72.62049
852.86        72.75517
853.27        73.11875
853.67         73.4926
854.07        73.72659
854.48        73.74818
854.88        73.64276
855.29        73.43322
855.69        73.34392
856.10        73.33864
856.50        73.44662
856.90        73.56149
857.31        73.56301
857.71        73.48023
858.12        73.30199
858.52        73.09367
858.92        72.87809
859.33         72.6618
859.73        72.49246
860.13        72.35984
860.54        72.25136
860.94        72.22489
861.34        72.23206
861.75        72.25916
862.15        72.36297
862.55        72.49302
862.96        72.61324
863.36        72.66112
863.76        72.48618
864.17        72.06235
864.57        71.47118
864.97         70.8139
865.38        70.24584
865.78        69.88412
866.18        69.70467
866.58        69.72216
866.99        69.91674
867.39        70.28485
867.79        70.77586
868.19        71.30912
868.60        71.69971
869.00        71.97311
869.40        72.30419
869.80        72.57788
870.21        72.43665
870.61        71.91515
871.01        71.18118
871.41        70.42938
871.81        69.84998
872.22        69.51896
872.62        69.41512
873.02        69.51054
873.42        69.87724
873.82        70.30025
874.22        70.34852
874.63        70.21599
875.03        70.30154
875.43        70.63293
875.83        71.77052
876.23        71.46561
876.63        70.93425
877.03        69.95925
877.44        68.07198
877.84         157.239
878.24        68.64537
878.64        69.36318
879.04         70.7726
879.44         71.3826
879.84        68.84851
880.24         72.9876
880.64        73.18141
881.04        71.23762
881.44        69.67166
881.84        68.95078
882.24         69.1873
882.65         69.9143
883.05        70.04939
883.45        69.36504
883.85         68.5732
884.25        68.03149
884.65        67.95252
885.05        68.40578
885.45        69.22646
885.85         70.0905
886.25        70.56306
886.65        70.54202
887.05        70.16495
887.45        69.60165
887.85        69.14083
888.25        68.90449
888.65         68.8213
889.04        68.87646
889.44        69.04728
889.84        69.28993
890.24          69.594
890.64        69.91753
891.04        70.19236
891.44        70.39542
891.84        70.54279
892.24        70.57283
892.64        70.39958
893.04        70.03979
893.44          69.542
893.83        69.10744
894.23        69.00764
894.63        69.30137
895.03        69.91606
895.43        70.64185
895.83        71.11534
896.23        71.23426
896.63        71.08996
897.02        70.84653
897.42        70.82422
897.82        71.05481
898.22         71.4334
898.62        71.79317
899.01        71.88506
899.41        71.62556
899.81        71.12177
900.21         70.5248
900.61        70.07081
901.00        69.82835
901.40        69.80465
901.80        69.90617
902.20        69.87241
902.59        69.64216
902.99         69.5022
903.39        69.67063
903.79        69.06297
904.18        69.95547
904.58        70.44083
904.98        70.93233
905.38        70.99693
905.77        70.57594
906.17        69.84152
906.57        69.04051
906.96        68.67088
907.36        68.85353
907.76        69.44445
908.15         70.2756
908.55        70.90722
908.95        71.24034
909.34        71.34318
909.74        71.31091
910.14        71.25931
910.53         71.2378
910.93        71.19191
911.33        71.07964
911.72        70.84785
912.12        70.50842
912.52        70.10757
912.91        69.72263
913.31        69.54259
913.70        69.57731
914.10        69.77184
914.49        70.03651
914.89        70.13002
915.29        70.01943
915.68         69.7527
916.08        69.45863
916.47        69.29626
916.87        69.33965
917.26        69.53391
917.66        69.79164
918.05        69.99196
918.45         70.0788
918.84        70.10175
919.24        70.12131
919.64        70.29514
920.03        70.64798
920.42        71.09474
920.82         71.5006
921.21        71.67389
921.61         71.5997
922.00        71.41239
922.40        71.26543
922.79        71.29383
923.19         71.2393
923.58        71.73131
923.98        73.04672
924.37        73.22132
924.77        71.15016
925.16        77.66022
925.55        73.04328
925.95        73.29044
926.34        72.85104
926.74        71.66133
927.13        69.88087
927.52        68.82486
927.92        69.03503
928.31        69.84807
928.70         70.9442
929.10        71.79461
929.49        72.27484
929.89        72.54976
930.28          72.618
930.67        72.37011
931.07         71.8526
931.46        70.98409
931.85        70.08784
932.24        70.10532
932.64        71.15153
933.03        72.47723
933.42        73.29245
933.82        75.13352
934.21        73.57345
934.60        72.11518
934.99         70.5827
935.39        70.02904
935.78        70.56039
936.17        72.42706
936.56        78.01873
936.96        72.36485
937.35        75.66814
937.74        73.06377
938.13        71.22236
938.53        69.82549
938.92        69.48831
939.31        70.57586
939.70        72.02308
940.09        72.79302
940.49        72.65388
940.88          71.993
941.27        71.15961
941.66        70.79397
942.05        71.12283
942.44        71.86724
942.84        72.68711
943.23        73.20728
943.62        73.30807
944.01        73.10435
944.40        72.81713
944.79        72.80213
945.18        73.14024
945.57          73.706
945.97        74.17953
946.36        74.18481
946.75        73.60024
947.14        72.56268
947.53        71.43139
947.92        70.81915
948.31        70.89977
948.70        71.49764
949.09        72.24221
949.48        72.55405
949.87        72.29849
950.26        71.66001
950.65        70.93608
951.04        70.61055
951.43        70.81429
951.82        71.37251
952.21        72.04779
952.60        72.44952
952.99        72.44126
953.38        72.15135
953.77        71.72979
954.16        71.37298
954.55        71.15383
954.94         71.0415
955.33        70.97588
955.72        70.86407
956.11        70.69713
956.50        70.50774
956.89         70.4616
957.28        70.80267
957.66        71.56005
958.05         72.5378
958.44        73.43121
958.83        73.79148
959.22        73.51308
959.61        72.69016
960.00         71.5766
960.39        70.70461
960.78        70.30417
961.16        70.30836
961.55        70.42448
961.94        70.29238
962.33        69.82893
962.72        69.14275
963.11         68.4921
963.49         68.3858
963.88         68.9425
964.27        69.94289
964.66        70.98528
965.04        71.56462
965.43        71.52438
965.82        71.04173
966.21         70.3717
966.60        69.97252
966.98        70.00324
967.37        70.33238
967.76        70.77608
968.15        71.02333
968.53        71.01512
968.92         70.8484
969.31        70.68621
969.69        70.76801
970.08        71.11777
970.47        71.62186
970.86        72.18641
971.24        72.66956
971.63        72.97752
972.02        73.16752
972.40        73.19373
972.79         72.9026
973.17        72.35457
973.56        71.58883
973.95        70.84904
974.33        70.57032
974.72        70.85595
975.11        71.57968
975.49         72.5474
975.88        73.34282
976.26        73.88638
976.65        74.18787
977.04        74.29858
977.42        74.27111
977.81         74.0984
978.19        73.73395
978.58        73.40688
978.96        73.45753
979.35        73.91356
979.74         74.6382
980.12         75.4054
980.51        75.73566
980.89        75.68374
981.28        75.32725
981.66        74.79053
982.05        74.42865
982.43         74.3753
982.82        74.52555
983.20        74.87859
983.59        75.38666
983.97        76.03745
984.35        76.80694
984.74        77.42132
985.12        77.50301
985.51        76.95534
985.89        75.99788
986.28        74.94884
986.66         74.2933
987.04        74.18455
987.43         74.4132
987.81        74.66866
988.20        75.52819
988.58        76.97774
988.96        76.99494
989.35        75.05219
989.73        79.58799
990.12        76.59795
990.50        76.82614
990.88        76.46035
991.27        75.99443
991.65        75.39938
992.03        74.82951
992.42        74.53081
992.80        74.43816
993.18         74.5612
993.56        74.94129
993.95        75.40031
994.33        75.61552
994.71        75.51566
995.10           75.14
995.48        74.71581
995.86        74.62039
996.24        74.92669
996.63        75.43137
997.01           75.98
997.39        76.13197
997.77        75.78016
998.15        75.07253
998.54        74.24571
998.92        73.54668
999.30         73.1328
999.68        73.00983
1000.06        73.09742
1000.45        73.18294
1000.83         73.3064
1001.21        73.47024
1001.59        73.92207
1001.97        75.01193
1002.35         76.6299
1002.73        78.47511
1003.12        80.08395
1003.50        80.93527
1003.88        80.96645
1004.26        80.36314
1004.64        79.35937
1005.02        78.48284
1005.40        77.98212
1005.78        77.70386
1006.16        77.64257
1006.54        77.72301
1006.92        77.88701
1007.30        78.27492
1007.69        78.56474
1008.07        78.32658
1008.45        77.48749
1008.83        76.09028
1009.21        74.78855
1009.59        74.95376
1009.97         76.7441
1010.35        79.37125
1010.73        81.82024
1011.11        83.22445
1011.49        83.58557
1011.86        82.98379
1012.24        81.39526
1012.62        81.65015
1013.00        81.74378
1013.38        81.31783
1013.76        79.14796
1014.14        82.69897
1014.52        88.12024
1014.90        81.95036
1015.28        83.57996
1015.66        85.42627
1016.04        83.49685
1016.41        84.44434
1016.79        84.32728
1017.17        84.12408
1017.55        83.43471
1017.93        82.51684
1018.31        81.77415
1018.69        81.48876
1019.06        81.81854
1019.44        82.57049
1019.82        83.42155
1020.20        83.92113
1020.58        83.98244
1020.95         83.6497
1021.33        83.05633
1021.71        82.47005
1022.09        82.18777
1022.46        82.17484
1022.84        82.33485
1023.22        82.63745
1023.60        83.06668
1023.97        83.65893
1024.35         84.3974
1024.73        85.15371
