SpectraSmart Spectrum 2.9.0.0
--------- Device Information -----------
Spectrum Name :  反射率_0
Saving Time :  2024/04/20 23:56:33
Spectro-Module Model Name : SE2030-DUVN
Spectro-Module Serial Number : OS361AC55029948
Wavelength Start : 200
Wavelength End : 1025
Wavelength Unit : Wavelength(nm)
Spectrum Unit : Reflectance(%)
-----------Spectrum Setting ------------
Integration Time : 20ms
Average : 10
Boxcar : 0
Background removal :  enabled
linearity correction :  enabled
SC :  disabled
Intensity correction :  disabled
DWT denoise :  enabled
savitzky-golay :  disabled
FFT :  disabled
Running average :  disabled
Kalman :  disabled
High pass :  disabled
---------------BEGIN--------------------
Wavelength(nm)             Reflectance(%)
200.29               0
200.75        11.19074
201.21        29.68022
201.67          35.798
202.13        35.64159
202.58        31.63132
203.04         24.2732
203.50        14.68042
203.96        7.774253
204.42        6.102132
204.88        7.391988
205.34        9.930649
205.80        10.74829
206.26        8.881599
206.72        7.207294
207.18        1.552525
207.64         -16.932
208.10       -47.52945
208.55       -86.51116
209.01       -104.8601
209.47       -72.49951
209.93       -25.75531
210.39        11.72296
210.85        34.90245
211.31        43.11878
211.77        39.72698
212.23        25.11461
212.69       -6.772557
213.14        -61.0153
213.60       -144.2465
214.06       -351.3116
214.52       -730.4612
214.98       -269.5536
215.44       -50.95063
215.90        14.91375
216.36         34.7333
216.81        34.99425
217.27         18.1666
217.73       -67.59872
218.19        967.5818
218.65        418.6103
219.11       -886.9316
219.57       -28.46695
220.02        25.87503
220.48        34.60236
220.94        27.45475
221.40        2.023925
221.86       -58.44555
222.32       -97.64693
222.77       -43.41596
223.23        3.993598
223.69        27.70845
224.15        35.22232
224.61        34.19434
225.06        29.13154
225.52        21.70512
225.98        14.14036
226.44        7.844473
226.90         1.00654
227.36       -2.645205
227.81        3.112943
228.27        14.03666
228.73        25.13313
229.19        32.13835
229.65        32.75272
230.10        27.92132
230.56        19.11819
231.02        7.853531
231.48        0.479035
231.93        1.460039
232.39        8.230424
232.85        15.90628
233.31        20.39968
233.77         21.8919
234.22        22.21738
234.68        21.56863
235.14        20.15698
235.60        18.56318
236.05        15.80642
236.51        12.48223
236.97        16.50817
237.43        28.57117
237.88        37.02652
238.34        37.58522
238.80         61.1448
239.26        51.91201
239.71        50.35734
240.17        41.97903
240.63        32.29927
241.08        25.02082
241.54        23.16404
242.00        27.92829
242.46        29.26285
242.91         24.1146
243.37        13.71077
243.83       0.8690398
244.28       -4.034333
244.74        4.307555
245.20        18.77257
245.66        31.35148
246.11        34.94676
246.57        29.10267
247.03        16.48248
247.48      -0.7109075
247.94       -18.71284
248.40       -39.41695
248.85       -81.59466
249.31        -192.784
249.77       -236.7021
250.22       -51.78514
250.68        12.41993
251.14        30.04893
251.59        33.10588
252.05        29.77429
252.51        21.27717
252.96        6.991125
253.42         -6.6929
253.88       -11.35654
254.33       -7.140776
254.79         4.63481
255.25        19.60601
255.70        32.79908
256.16        42.65825
256.62        49.32647
257.07         53.1662
257.53        55.31672
257.99        56.32457
258.44        55.92852
258.90        54.48141
259.35        52.01519
259.81        49.35017
260.27        47.04825
260.72        45.80323
261.18        45.67286
261.63        45.91404
262.09        46.13484
262.55        45.63623
263.00        44.40219
263.46        42.92718
263.91        41.38565
264.37         40.3614
264.83        39.83249
265.28        39.53719
265.74        39.38474
266.19        39.11259
266.65        38.69748
267.11        38.16517
267.56        37.47284
268.02        36.62628
268.47        35.61233
268.93        34.49364
269.38        33.31115
269.84        32.19649
270.30        31.18935
270.75        30.26756
271.21          29.505
271.66        28.93851
272.12        28.57164
272.57        28.36363
273.03        28.18247
273.48        27.80039
273.94        27.20326
274.39        26.43019
274.85        25.66239
275.31        25.11665
275.76        24.82704
276.22         24.7418
276.67        24.71564
277.13        24.60815
277.58        24.35402
278.04        24.03063
278.49        23.67857
278.95        23.42115
279.40         23.2357
279.86        23.10206
280.31        22.92726
280.77         22.6576
281.22        22.26115
281.68         21.8321
282.13        21.38893
282.59        21.02411
283.04        20.73599
283.50        20.50863
283.95         20.3618
284.41        20.34762
284.86        20.44845
285.32        20.66157
285.77        20.85949
286.22        20.86723
286.68        20.68592
287.13        20.33592
287.59        20.02935
288.04        19.98616
288.50        20.21413
288.95        20.75803
289.41        21.45548
289.86        21.56977
290.32        20.97525
290.77        21.75042
291.22        20.70561
291.68        20.79814
292.13         21.1065
292.59        21.65545
293.04        22.34796
293.50        23.10581
293.95        23.91576
294.40        24.78325
294.86        25.74411
295.31        26.83871
295.77        28.06465
296.22        29.37669
296.68        30.72707
297.13        32.04592
297.58        33.33251
298.04        34.61402
298.49        35.93647
298.95        37.38987
299.40         38.9744
299.85         40.6679
300.31        42.40621
300.76         44.0717
301.21        45.64717
301.67        47.18538
302.12           48.74
302.58        50.48771
303.03        52.43154
303.48        54.56824
303.94        56.79602
304.39        58.90773
304.84        60.86406
305.30        62.72565
305.75        64.57369
306.20        66.63637
306.66        68.93192
307.11        71.31744
307.57        73.63934
308.02        75.60626
308.47        77.18898
308.93        78.51997
309.38        79.70621
309.83        80.96342
310.29        82.42593
310.74         83.9538
311.19        85.48812
311.65        86.89174
312.10        88.11063
312.55        89.19678
313.00        90.21279
313.46        91.25484
313.91         92.3249
314.36         93.3913
314.82        94.39391
315.27        95.23888
315.72        95.92182
316.18        96.48494
316.63        96.99617
317.08        97.56437
317.53        98.21397
317.99        98.90295
318.44        99.58436
318.89        100.1688
319.35        100.6265
319.80        100.9935
320.25        101.2863
320.70         101.537
321.16        101.7551
321.61        101.9486
322.06        102.1302
322.51        102.3307
322.97        102.5439
323.42        102.8039
323.87        103.0774
324.32        103.3219
324.78         103.507
325.23        103.6781
325.68        103.8449
326.13        104.0551
326.59        104.2955
327.04         104.607
327.49         104.932
327.94        105.2082
328.39        105.4258
328.85        105.5786
329.30        105.7793
329.75        106.0847
330.20        106.5107
330.66        106.9824
331.11        107.5205
331.56        108.0218
332.01        108.4577
332.46        108.8566
332.92        109.1503
333.37        109.3719
333.82        109.4919
334.27        109.5263
334.72        109.5967
335.17        109.9085
335.63        110.4697
336.08        111.2762
336.53        112.1523
336.98        112.8427
337.43        113.2684
337.88        113.5036
338.34        113.6023
338.79        113.7249
339.24        113.9136
339.69        114.1326
340.14        114.4177
340.59        114.8342
341.05        115.3777
341.50        116.0338
341.95        116.7208
342.40        117.2941
342.85        117.7132
343.30        118.0228
343.75        118.2408
344.20        118.4144
344.66        118.5778
345.11        118.6832
345.56        118.8164
346.01        119.1112
346.46        119.5781
346.91        120.1685
347.36        120.6844
347.81        120.8815
348.26        120.7325
348.72        120.0962
349.17        119.6389
349.62        119.4338
350.07        119.6928
350.52        120.2681
350.97         120.914
351.42        121.2194
351.87        121.0625
352.32         120.576
352.77        119.9313
353.22        119.3863
353.67        119.0218
354.13        118.7778
354.58        118.5473
355.03        118.2218
355.48        117.7754
355.93        117.2591
356.38        116.7561
356.83        116.3797
357.28        116.1285
357.73        115.9306
358.18        115.6683
358.63        115.1665
359.08        114.3953
359.53        113.4408
359.98        112.3843
360.43        111.3425
360.88        110.3666
361.33        109.4263
361.78         108.578
362.23        107.9085
362.68        107.4156
363.13        107.0772
363.58        106.7468
364.03        106.1841
364.48        105.3376
364.93        104.2675
365.38        103.1312
365.83        102.1987
366.28        101.5338
366.73        101.0443
367.18        100.6009
367.63         99.9976
368.08        99.18164
368.53        98.23878
368.98        97.22927
369.43        96.22691
369.88        95.26226
370.33        94.30586
370.78         93.3915
371.23         92.5986
371.68        91.95235
372.13        91.44589
372.58         91.0209
373.03        90.56265
373.48        90.02811
373.93        89.43243
374.38        88.80151
374.83        88.19671
375.28         87.6405
375.72        87.09428
376.17         86.5653
376.62        85.99277
377.07        85.35365
377.52        84.65353
377.97        83.92538
378.42        83.23923
378.87        82.63499
379.32        82.11833
379.77        81.63972
380.22         81.1075
380.67        80.49434
381.11        79.81693
381.56        79.15296
382.01        78.65878
382.46        78.36915
382.91        78.23492
383.36        78.10912
383.81          77.766
384.26        77.16308
384.71        76.37635
385.15        75.55169
385.60        74.97734
386.05        74.69274
386.50        74.61803
386.95        74.61414
387.40        74.46745
387.85        74.13069
388.29        73.63223
388.74        73.17181
389.19        72.83555
389.64        72.63264
390.09        72.49662
390.54         72.3494
390.98        72.06232
391.43        71.66232
391.88        71.20568
392.33        70.74969
392.78        70.38406
393.23        70.13274
393.67         69.8754
394.12        69.69636
394.57        69.67384
395.02        69.72892
395.47        69.57653
395.91         69.2374
396.36        68.96421
396.81        68.80155
397.26        68.63931
397.71         68.4193
398.15        68.13969
398.60        67.88136
399.05        67.41896
399.50        66.95439
399.95        67.11215
400.39        67.72235
400.84        67.93102
401.29        67.62997
401.74        67.05482
402.18        66.42318
402.63        66.25182
403.08        66.48262
403.53        66.36897
403.97        65.88977
404.42        65.60382
404.87        65.51118
405.32        65.38818
405.76         65.2286
406.21        65.01992
406.66        64.81612
407.11        64.90211
407.55        65.20111
408.00        65.20201
408.45        64.90018
408.90        64.60789
409.34        64.40434
409.79        64.32936
410.24        64.33961
410.68        64.26112
411.13        64.08606
411.58        63.94689
412.03        63.87294
412.47        63.84748
412.92         63.8531
413.37        63.91655
413.81        63.98317
414.26        64.01847
414.71        63.99526
415.15        63.93219
415.60        63.84738
416.05        63.83311
416.49        63.90623
416.94        64.02633
417.39        64.12677
417.83        64.10036
418.28        63.93099
418.73        63.65266
419.17        63.33933
419.62        63.12292
420.07         63.0455
420.51        63.06773
420.96         63.1549
421.41        63.22334
421.85        63.22388
422.30        63.16456
422.74        63.07428
423.19        63.20942
423.64        63.51747
424.08        63.72178
424.53        63.71204
424.98        63.72818
425.42        63.79417
425.87        63.60156
426.31        63.28416
426.76         63.5139
427.21        64.20797
427.65          64.396
428.10        63.97829
428.54        64.36978
428.99        64.22614
429.44         64.3201
429.88         64.2121
430.33         64.0574
430.77        63.85195
431.22        63.81139
431.66        63.93775
432.11        64.08015
432.56        64.27369
433.00         64.5113
433.45        64.49799
433.89        64.47145
434.34        64.66278
434.78        63.19735
435.23        63.37984
435.67        64.30296
436.12        64.78799
436.57        65.01603
437.01        64.55383
437.46        64.32898
437.90        65.02169
438.35        65.30222
438.79        65.32841
439.24        65.31258
439.68        65.28147
440.13        65.07458
440.57        64.79586
441.02        64.92194
441.46        65.34685
441.91        65.42012
442.35        65.15313
442.80        65.35954
443.24        65.89386
443.69        66.01434
444.13         65.6984
444.58        65.41507
445.02        65.24648
445.47        65.30403
445.91        65.52216
446.36         65.6273
446.80        65.58898
447.24        65.54015
447.69        65.52797
448.13        65.72597
448.58        65.89426
449.02        65.86471
449.47        65.62491
449.91        65.51745
450.36        65.57932
450.80        65.54218
451.25        65.43456
451.69        65.46129
452.13        65.57705
452.58        65.46999
453.02        65.17619
453.47        65.03803
453.91        65.05482
454.36        65.05831
454.80        65.08344
455.24         65.0658
455.69        64.97262
456.13        65.16249
456.58        65.66917
457.02        64.68366
457.46        64.90964
457.91        64.64088
458.35        64.56045
458.79        64.46338
459.24        64.36871
459.68        64.36613
460.13        64.41651
460.57        64.42638
461.01         64.4111
461.46        64.18623
461.90        64.02943
462.34        64.06879
462.79        63.97153
463.23        63.92687
463.68        64.20837
464.12         63.8922
464.56         63.2902
465.01        63.43433
465.45        64.10367
465.89        64.11868
466.34        63.56997
466.78        63.29188
467.22        63.41305
467.67        63.39387
468.11        63.73657
468.55        63.58399
468.99        63.16509
469.44        62.95448
469.88        62.98086
470.32        62.91805
470.77        62.74536
471.21        62.61278
471.65        62.52275
472.10        62.44151
472.54        62.36572
472.98        62.31501
473.42        62.29807
473.87        62.30156
474.31        62.27954
474.75         62.3325
475.20        62.44322
475.64        62.26171
476.08        62.34441
476.52         62.2512
476.97        62.07045
477.41        62.21539
477.85        62.71355
478.29        61.77137
478.74        61.78539
479.18         62.2218
479.62         62.1208
480.06         62.3005
480.50        62.31634
480.95        62.22486
481.39        61.92107
481.83         62.4197
482.27         62.3545
482.72        61.97908
483.16        62.14878
483.60         62.3914
484.04         62.5619
484.48        62.28269
484.93        62.07844
485.37        62.25458
485.81        62.40678
486.25        61.56816
486.69        62.61948
487.14         62.5915
487.58        61.74413
488.02        62.05413
488.46        61.63836
488.90        61.93541
489.34        62.22441
489.79        61.62649
490.23        61.87369
490.67        61.87677
491.11        62.10928
491.55        61.98565
491.99        61.58629
492.43        61.40989
492.88        61.47298
493.32        61.54493
493.76        61.54572
494.20        61.58224
494.64        61.66665
495.08        61.40332
495.52        61.37009
495.96        61.47921
496.41        61.76664
496.85        61.66976
497.29        61.22992
497.73        61.15988
498.17        61.15648
498.61        61.34683
499.05        61.51094
499.49         61.3384
499.93        60.95438
500.37        60.89552
500.82        61.13663
501.26        61.38943
501.70        61.53576
502.14        61.11859
502.58        60.74657
503.02        60.51173
503.46        60.55285
503.90         60.6184
504.34        60.65015
504.78        60.72406
505.22        60.83521
505.66        60.89625
506.10         60.8798
506.54        60.97272
506.98        61.21547
507.42        60.71559
507.86         60.9964
508.30         60.9445
508.74        60.88422
509.18        60.86504
509.62        60.85182
510.06         60.8564
510.50        60.84302
510.94         60.7624
511.38        60.63107
511.82        60.53741
512.26        60.49245
512.70        60.44909
513.14        60.41216
513.58        60.41077
514.02         60.4422
514.46        60.49289
514.90        60.53699
515.34         60.5707
515.78        60.59123
516.22        60.57355
516.66        60.36728
517.10        60.57377
517.54        60.30746
517.98        60.26796
518.42        60.21911
518.86        60.23055
519.30        60.30436
519.74        60.38602
520.18           60.47
520.62        60.62067
521.06        60.77971
521.50        60.73613
521.93        60.51669
522.37        60.36019
522.81        60.29581
523.25        60.20185
523.69        60.08703
524.13        60.01954
524.57        60.00393
525.01        60.02442
525.45        60.08092
525.89         60.1646
526.32        60.25916
526.76        60.38202
527.20        60.46621
527.64        60.49549
528.08        60.45332
528.52        60.36362
528.96        60.25169
529.40        60.15163
529.83        60.07794
530.27        60.04904
530.71        60.06421
531.15        60.11803
531.59        60.20213
532.03        60.31796
532.46        60.42327
532.90        60.46419
533.34        60.42446
533.78        60.32109
534.22        60.18808
534.66        60.08063
535.09        60.00809
535.53        59.97851
535.97        59.96688
536.41        59.94891
536.85        59.91814
537.28        59.88398
537.72        59.86103
538.16        59.87129
538.60        59.91503
539.04        59.98111
539.47        60.03093
539.91        60.05937
540.35        60.04565
540.79         59.9999
541.22        59.93977
541.66        59.90842
542.10        59.91004
542.54        59.92966
542.97        59.94625
543.41        59.95779
543.85        59.95705
544.29        59.96295
544.72        59.95774
545.16        59.96601
545.60        59.97984
546.04         59.9204
546.47        59.84377
546.91        59.98476
547.35        60.26097
547.79        60.35255
548.22        60.22405
548.66        60.01815
549.10        59.82842
549.53        59.82899
549.97         59.9897
550.41        60.01394
550.84        59.89195
551.28        59.79866
551.72        59.75691
552.15        59.78444
552.59        59.91307
553.03        59.80925
553.46        60.00821
553.90        59.99703
554.34         59.9285
554.77        59.80249
555.21        59.68336
555.65         59.6515
556.08        59.71268
556.52        59.84283
556.96        59.97974
557.39        60.09528
557.83        60.15196
558.27        60.02759
558.70         59.8016
559.14        59.70207
559.57          59.741
560.01        59.92128
560.45         60.1162
560.88        60.00166
561.32        59.68897
561.75        59.52341
562.19        59.58139
562.63        59.71778
563.06          59.855
563.50        59.86246
563.93        59.72842
564.37         59.6237
564.80        59.56422
565.24        59.59221
565.68          59.694
566.11        59.74002
566.55        59.75366
566.98        59.90822
567.42        60.15288
567.85        60.12707
568.29        59.90263
568.72        59.79502
569.16         59.8779
569.60         59.8159
570.03        59.90594
570.47        59.99813
570.90        60.07734
571.34        60.25993
571.77         60.4342
572.21        60.26942
572.64        59.86745
573.08        60.12119
573.51        60.12916
573.95        60.58796
574.38        60.16813
574.82        61.00952
575.25        60.79511
575.69        60.42267
576.12        59.92867
576.56        60.36621
576.99        60.46299
577.42        60.71891
577.86        60.55627
578.29        60.45861
578.73        61.11243
579.16        60.48906
579.60        60.11921
580.03         60.6841
580.47        60.57326
580.90        60.71283
581.33        60.74938
581.77        60.79858
582.20        61.21047
582.64        60.86996
583.07        60.70258
583.51         60.2839
583.94        60.28796
584.37        60.39915
584.81        60.04844
585.24        60.01061
585.68        60.44118
586.11        60.46041
586.54        60.37099
586.98        60.46304
587.41        60.36424
587.85        60.53457
588.28        60.31313
588.71        60.39382
589.15        60.23297
589.58        60.16306
590.01        60.00042
590.45        60.08387
590.88        60.03518
591.31        59.69144
591.75        59.68937
592.18        59.65656
592.61        59.75268
593.05        60.29881
593.48        60.42349
593.91        60.45979
594.35        60.16651
594.78        60.17453
595.21        59.96167
595.65        60.05154
596.08        60.19704
596.51        60.38926
596.94        60.08207
597.38        60.03236
597.81         60.1411
598.24        60.04411
598.68        60.11922
599.11        59.77669
599.54        60.36028
599.97        59.93167
600.41        60.09932
600.84        60.47812
601.27        60.13939
601.70        60.16679
602.14        60.03473
602.57        60.01946
603.00        59.99574
603.43        60.28957
603.87        60.32019
604.30           60.19
604.73        60.15056
605.16        60.20356
605.60        60.00753
606.03        60.02365
606.46        60.09507
606.89        59.96055
607.32        59.53107
607.76        60.20293
608.19        59.82278
608.62        60.23312
609.05        60.76021
609.48        60.31863
609.92        60.25792
610.35        59.91562
610.78        60.18132
611.21        59.92479
611.64        59.90833
612.07        59.86798
612.50        59.95581
612.94        59.99452
613.37        59.98827
613.80        59.96832
614.23        59.92923
614.66        59.90232
615.09        59.87554
615.52         59.8181
615.96        59.75682
616.39        59.70084
616.82        59.64044
617.25        59.83333
617.68        59.81199
618.11         59.7405
618.54        59.67686
618.97        59.57403
619.40         59.5015
619.84        59.46305
620.27         59.5816
620.70        59.48859
621.13         59.2814
621.56        59.34637
621.99        59.66419
622.42        59.84792
622.85        59.75238
623.28        59.83093
623.71        59.68163
624.14         59.8168
624.57        59.47274
625.00        60.08648
625.43        59.34505
625.86         59.4219
626.29        59.72962
626.72        59.32865
627.15        59.57934
627.58        59.56372
628.01        59.72397
628.44        59.60228
628.87         59.4726
629.30        59.85477
629.73        59.44237
630.16        59.60489
630.59        59.32076
631.02        59.64515
631.45        59.50204
631.88        59.57009
632.31        59.60984
632.74        59.35091
633.17        59.41954
633.60        59.31446
634.03         59.2346
634.46         59.2118
634.89        59.16824
635.32        59.20401
635.75        59.28082
636.18        59.39556
636.61        59.50687
637.04        59.55089
637.47        59.51516
637.89          59.425
638.32        59.30322
638.75        59.21483
639.18         59.1804
639.61         59.1838
640.04        59.21695
640.47        59.26489
640.90        59.31847
641.33        59.38368
641.76        59.44764
642.18         59.4939
642.61        59.50439
643.04        59.48611
643.47         59.4549
643.90        59.44636
644.33        59.46583
644.76        59.48723
645.18         59.4985
645.61        59.50105
646.04        59.48163
646.47        59.39797
646.90        59.26688
647.33         59.1828
647.75        59.15254
648.18        59.11119
648.61        59.10309
649.04        59.21096
649.47        59.36324
649.89        59.72485
650.32        59.60707
650.75        59.57054
651.18        59.45665
651.61        59.36099
652.03        59.31055
652.46        59.24076
652.89        59.18315
653.32        59.23441
653.74        59.35943
654.17        59.45774
654.60         59.0871
655.03        59.27785
655.46        59.27347
655.88        59.77319
656.31        60.59803
656.74        63.55729
657.16         61.9791
657.59        60.29879
658.02        59.25759
658.45        59.91944
658.87        59.48299
659.30        59.40525
659.73        59.29836
660.15        58.79822
660.58        59.44696
661.01        59.78209
661.44        60.06097
661.86        59.91087
662.29        59.42274
662.72        59.06894
663.14        58.96521
663.57        59.04577
664.00        59.23203
664.42        59.30265
664.85        59.23453
665.27        59.09913
665.70        59.13811
666.13        59.06256
666.55        59.17362
666.98        59.27187
667.41        59.38635
667.83        59.45615
668.26        59.47569
668.69        59.40606
669.11        59.26839
669.54        59.30752
669.96        59.58128
670.39        59.24647
670.82        59.69204
671.24         59.6478
671.67        59.53323
672.09        59.48275
672.52        59.52301
672.94        59.43501
673.37        59.26238
673.80        59.27142
674.22        59.44643
674.65        59.51482
675.07        59.47466
675.50        59.45173
675.92        59.46165
676.35        59.45572
676.77        59.43492
677.20        59.42476
677.62        59.44773
678.05        59.45739
678.47        59.44001
678.90        59.68356
679.32        59.65184
679.75        59.73141
680.17        59.76091
680.60        59.76064
681.02        59.74105
681.45        59.73215
681.87        59.75145
682.30        59.75283
682.72        59.75325
683.15         59.8059
683.57        59.85959
684.00        59.89348
684.42        59.59069
684.85        59.54219
685.27        59.64798
685.70        59.77597
686.12        59.86584
686.54        59.91731
686.97        59.91031
687.39        59.87707
687.82        59.84172
688.24         59.8159
688.66        59.79029
689.09        59.99311
689.51        59.96447
689.94         60.0863
690.36        60.19909
690.78         60.2669
691.21        60.27574
691.63        60.19343
692.06        60.06879
692.48        60.01905
692.90         60.0415
693.33        60.01955
693.75        59.96566
694.17        59.91299
694.60        59.85402
695.02        59.97392
695.44        59.99786
695.87        59.93095
696.29        59.77521
696.71        59.82169
697.14         60.0336
697.56        60.21242
697.98        60.33176
698.41        60.17824
698.83         60.3478
699.25        60.27523
699.68        60.15104
700.10        60.03877
700.52         59.9578
700.94        59.88372
701.37        59.81907
701.79        59.82533
702.21         59.8871
702.64        60.00314
703.06        60.12775
703.48        60.19226
703.90         60.1843
704.33        60.11547
704.75        60.03222
705.17        59.99346
705.59        60.01712
706.01        60.08372
706.44        60.16715
706.86        60.24088
707.28         60.2817
707.70        60.30347
708.12        60.32322
708.55        60.35378
708.97        60.39149
709.39        60.43795
709.81        60.48023
710.23         60.5025
710.66        60.50236
711.08        60.49596
711.50        60.47995
711.92        60.46466
712.34        60.45444
712.76        60.44471
713.19        60.43052
713.61         60.4492
714.03        60.47971
714.45        60.52949
714.87        60.58751
715.29        60.59388
715.71        60.53551
716.13        60.58401
716.56        60.45454
716.98        60.43769
717.40        60.44456
717.82        60.47532
718.24        60.51945
718.66         60.5639
719.08        60.60557
719.50        60.64326
719.92         60.6842
720.34        60.73829
720.76        60.80474
721.19        60.87012
721.61         60.9333
722.03        60.96475
722.45        60.96255
722.87        60.94007
723.29        60.91871
723.71        60.93286
724.13        60.99244
724.55        61.08282
724.97        61.19782
725.39        61.32751
725.81        61.45766
726.23        61.58185
726.65        61.67339
727.07        61.69738
727.49        61.65104
727.91        61.53564
728.33         61.3811
728.75        61.27526
729.17        61.22511
729.59        61.14227
730.01        61.05296
730.43        61.06638
730.85        61.18317
731.27        61.33302
731.69        61.48071
732.10          61.542
732.52        61.68443
732.94        61.53381
733.36        61.23145
733.78        61.09279
734.20        61.16222
734.62        61.26817
735.04        61.37528
735.46        61.49385
735.88        61.60867
736.30        61.72985
736.72        61.81193
737.13        61.83409
737.55        61.76537
737.97        61.50404
738.39        61.17599
738.81        61.29273
739.23        61.75481
739.65        61.78341
740.06        61.38049
740.48        61.27754
740.90        61.45572
741.32        61.52655
741.74        61.46801
742.16        61.45641
742.57        61.50677
742.99        61.54722
743.41        61.58905
743.83        61.63318
744.25        61.67488
744.67        61.71306
745.08        61.76549
745.50         61.8138
745.92        61.86949
746.34        61.94104
746.75        61.99453
747.17        61.96988
747.59        61.86325
748.01         61.6619
748.42        61.45775
748.84        61.42178
749.26        61.54419
749.68        61.73709
750.09         61.9071
750.51        61.80989
750.93        61.52868
751.35        61.55602
751.76        61.85776
752.18        61.91659
752.60        61.70683
753.01        61.70405
753.43        61.61013
753.85        61.59256
754.27        61.56615
754.68        61.55718
755.10        61.56388
755.52        61.56342
755.93        61.55546
756.35        61.55487
756.77        61.57124
757.18        61.57167
757.60         61.5452
758.02        61.57383
758.43        61.71807
758.85        61.52692
759.26        61.98023
759.68        62.19743
760.10        61.70808
760.51        61.67328
760.93        61.82727
761.34        61.91007
761.76        61.89519
762.18        61.87021
762.59        61.82019
763.01        61.99536
763.42        61.58762
763.84        61.75058
764.26        61.84445
764.67        62.10279
765.09        62.34546
765.50        62.46484
765.92        62.47832
766.33        62.43953
766.75        62.35663
767.16        62.29654
767.58        62.22012
768.00        62.22036
768.41         62.3092
768.83        62.20132
769.24        61.92809
769.66        62.29079
770.07        62.29306
770.49        62.47415
770.90        62.51833
771.32        62.46304
771.73        62.35436
772.15         62.3148
772.56        62.37974
772.97        62.46566
773.39        62.51778
773.80        62.55001
774.22        62.52177
774.63         62.4654
775.05        62.38585
775.46        62.33493
775.88        62.30776
776.29        62.31619
776.70        62.34311
777.12        62.37074
777.53        62.41284
777.95        62.47317
778.36        62.54407
778.77        62.60514
779.19        62.64622
779.60        62.66795
780.02        62.69847
780.43        62.77738
780.84        62.90236
781.26        63.12257
781.67        63.38852
782.09        63.34949
782.50        63.07909
782.91        63.08534
783.33        63.32864
783.74         63.4082
784.15        63.27313
784.57        63.19978
784.98        63.22932
785.39        63.27968
785.81         63.3514
786.22        63.45697
786.63        63.56599
787.04        63.63084
787.46        63.65089
787.87         63.6184
788.28        63.55333
788.70        63.47164
789.11        63.36365
789.52        63.26541
789.93        63.21038
790.35        63.16006
790.76        63.17767
791.17        63.44862
791.58        63.85438
792.00        64.03697
792.41        63.98168
792.82         63.7454
793.23        63.50453
793.65        63.65601
794.06        64.15322
794.47        64.51693
794.88        64.70084
795.29        64.63129
795.71        65.01245
796.12         65.0069
796.53           64.84
796.94        64.79826
797.35        64.85513
797.76        64.65959
798.18        64.26348
798.59        64.03976
799.00         64.0199
799.41        64.03682
799.82        64.04142
800.23        64.02204
800.64        63.96027
801.06        63.84356
801.47         63.7506
801.88        63.73563
802.29        63.81609
802.70         63.9708
803.11        64.15795
803.52        64.30533
803.93        64.38743
804.34        64.42065
804.75        64.43913
805.17        64.48009
805.58         64.5787
805.99         64.7324
806.40        64.90337
806.81        64.95525
807.22        64.90306
807.63        64.92993
808.04        65.04547
808.45        65.10711
808.86        65.10714
809.27        65.13394
809.68        65.17957
810.09        65.18202
810.50        65.13651
810.91        65.06669
811.32        64.98106
811.73         64.8919
812.14          64.807
812.55        64.72081
812.96        64.65026
813.37        64.62414
813.78        64.64563
814.19        64.70876
814.60        64.77548
815.01        64.78451
815.42        64.72632
815.83        64.61869
816.24        64.50969
816.65        64.49043
817.05        64.59129
817.46        64.75233
817.87        64.95278
818.28        65.12286
818.69        65.24295
819.10        65.33419
819.51        65.40176
819.92        65.45503
820.33        65.49584
820.74        65.50563
821.14        65.50078
821.55        65.53181
821.96        65.59521
822.37        65.69189
822.78        65.76569
823.19         65.7159
823.60        65.52486
824.00        65.23492
824.41        64.92258
824.82        64.78178
825.23        64.85734
825.64        65.10338
826.04        65.41309
826.45        65.57542
826.86        65.55116
827.27        65.39668
827.68        65.21337
828.08          65.201
828.49        65.34571
828.90        65.63401
829.31        65.98817
829.72        66.19185
830.12        66.20002
830.53        66.42665
830.94        66.19752
831.35        66.12817
831.75        66.04548
832.16        65.92576
832.57        65.80527
832.97        65.74423
833.38        65.74904
833.79        65.80373
834.20        65.88269
834.60        65.94019
835.01        65.95884
835.42        65.95306
835.82        65.92615
836.23        65.84022
836.64        65.71829
837.04        65.58746
837.45        65.46898
837.86        65.45443
838.26        65.57101
838.67        65.77604
839.08        66.03931
839.48        66.29634
839.89        66.51054
840.29        66.69299
840.70        66.84109
841.11        66.95133
841.51        67.04184
841.92        67.07809
842.33        67.08229
842.73          67.095
843.14        67.08437
843.54        67.07317
843.95        67.06325
844.35        67.07615
844.76        67.10534
845.17        67.15582
845.57        67.20883
845.98        67.19727
846.38        67.13852
846.79         67.0245
847.19        66.93159
847.60        66.90438
848.00        66.99189
848.41        67.15086
848.81        67.36681
849.22        67.54243
849.62        67.67958
850.03        67.74644
850.43        67.81075
850.84        67.87931
851.24        68.00594
851.65        68.12333
852.05        68.21695
852.46        68.16668
852.86        67.96288
853.27        67.69599
853.67         67.3903
854.07        67.20906
854.48        67.14458
854.88         67.1778
855.29        67.22701
855.69        67.30581
856.10        67.30485
856.50        67.32111
856.90        67.27573
857.31        67.08578
857.71        66.80704
858.12        66.41251
858.52        66.02634
858.92        65.79752
859.33        65.75267
859.73        65.89933
860.13         66.1333
860.54        66.27155
860.94        66.31932
861.34        66.28163
861.75        66.18794
862.15        66.17177
862.55        66.22301
862.96        66.27586
863.36        66.31242
863.76        66.25966
864.17         66.0968
864.57        65.88902
864.97        65.62175
865.38        65.24985
865.78        64.82893
866.18        64.37202
866.58        64.02735
866.99        64.02559
867.39        64.43899
867.79         65.1591
868.19        65.95316
868.60        66.41553
869.00         66.5388
869.40        66.57866
869.80        66.55787
870.21        66.33917
870.61        66.01342
871.01        65.68556
871.41        65.34299
871.81        64.87155
872.22        64.29779
872.62        63.68902
873.02        63.19714
873.42         63.2554
873.82        63.72525
874.22        63.97945
874.63        64.12744
875.03        64.43573
875.43        64.86324
875.83        66.14851
876.23        65.66563
876.63        64.96595
877.03        63.81372
877.44        61.60692
877.84        168.7739
878.24        62.22464
878.64        62.84889
879.04        64.25237
879.44        64.70203
879.84        61.36572
880.24        66.44677
880.64        66.74897
881.04        64.49402
881.44        62.76556
881.84        62.10538
882.24        62.62568
882.65        63.76989
883.05        64.23924
883.45        63.77008
883.85        63.18821
884.25         62.8098
884.65        62.73503
885.05        63.03702
885.45        63.59623
885.85         64.1813
886.25        64.49488
886.65        64.46675
887.05        64.19865
887.45         63.8075
887.85        63.48626
888.25        63.31865
888.65        63.25421
889.04        63.28888
889.44        63.42362
889.84        63.62171
890.24        63.85928
890.64        64.09075
891.04        64.24754
891.44        64.30881
891.84        64.30024
892.24        64.18076
892.64        63.89172
893.04        63.47068
893.44        62.97948
893.83        62.59966
894.23        62.56787
894.63        62.93093
895.03        63.59741
895.43        64.41208
895.83        65.10048
896.23        65.55038
896.63        65.81569
897.02        65.90186
897.42        65.89169
897.82        65.80437
898.22        65.62578
898.62        65.41378
899.01        65.28545
899.41        65.24675
899.81        65.28876
900.21        65.36716
900.61        65.38535
901.00        65.30208
901.40        65.22133
901.80        65.14545
902.20        64.94853
902.59        64.61575
902.99        64.42129
903.39        64.58968
903.79        63.81836
904.18        64.76464
904.58        65.23939
904.98          65.736
905.38        65.74767
905.77        65.20447
906.17        64.27008
906.57        63.25975
906.96        62.79522
907.36         63.0201
907.76        63.77033
908.15        64.73737
908.55        65.24998
908.95        65.17286
909.34        64.65446
909.74        64.02731
910.14        63.78047
910.53        64.03518
910.93        64.60664
911.33        65.20108
911.72        65.36685
912.12        65.01259
912.52        64.31186
912.91        63.51532
913.31        63.08334
913.70        63.10969
914.10        63.45596
914.49        63.95063
914.89        64.22697
915.29        64.20109
915.68        63.96497
916.08        63.68382
916.47        63.56411
916.87        63.68715
917.26         63.9655
917.66        64.27025
918.05        64.42349
918.45        64.36367
918.84        64.17371
919.24        63.96146
919.64        63.95445
920.03        64.20583
920.42        64.61503
920.82        65.04185
921.21        65.28542
921.61        65.31322
922.00        65.24686
922.40        65.22169
922.79        65.31737
923.19        65.20432
923.58        65.69579
923.98        67.11389
924.37        67.02346
924.77        64.04755
925.16        71.77061
925.55        65.60086
925.95        66.05406
926.34        66.12275
926.74        65.61425
927.13        64.48244
927.52        63.82071
927.92        64.07887
928.31        64.63422
928.70        65.30001
929.10        65.73006
929.49        65.86678
929.89        65.83774
930.28        65.67051
930.67        65.31332
931.07        64.83632
931.46        64.16135
931.85        63.56368
932.24         63.9429
932.64        65.37335
933.03        66.98237
933.42        67.96565
933.82        70.39243
934.21        69.01228
934.60         67.9329
934.99        66.76434
935.39        66.42213
935.78        66.94588
936.17        68.72874
936.56        74.71043
936.96        67.80484
937.35        71.40972
937.74        68.16229
938.13        65.84072
938.53        64.02296
938.92        63.42739
939.31        64.55576
939.70        66.14762
940.09        66.93885
940.49        66.64352
940.88        65.70853
941.27        64.57431
941.66        64.06189
942.05        64.45816
942.44        65.40733
942.84        66.46107
943.23        67.11531
943.62        67.20976
944.01        66.88869
944.40        66.44805
944.79        66.36786
945.18        66.76425
945.57        67.48651
945.97         68.1109
946.36        68.09734
946.75        67.30399
947.14        65.92694
947.53        64.49212
947.92        63.89436
948.31        64.35538
948.70        65.57294
949.09        66.98072
949.48        67.70713
949.87        67.53696
950.26        66.74906
950.65        65.70701
951.04        65.00813
951.43        64.85037
951.82        65.03112
952.21        65.39943
952.60        65.71355
952.99         65.8587
953.38        65.92772
953.77        65.92608
954.16        65.82759
954.55        65.65266
954.94        65.41329
955.33        65.13717
955.72        64.90897
956.11        64.77141
956.50        64.69123
956.89        64.75672
957.28        65.09058
957.66        65.70256
958.05        66.46963
958.44        67.13733
958.83        67.31177
959.22        66.91854
959.61        66.03748
960.00         64.9768
960.39          64.357
960.78        64.39084
961.16        64.94592
961.55        65.60047
961.94         65.8653
962.33        65.63357
962.72        65.03084
963.11        64.33649
963.49        64.11806
963.88        64.52639
964.27        65.32843
964.66        66.11965
965.04        66.37149
965.43        65.93377
965.82        65.03391
966.21        63.95777
966.60        63.21405
966.98        62.98949
967.37        63.12753
967.76        63.49706
968.15        63.86961
968.53        64.17505
968.92        64.49185
969.31        64.77917
969.69        64.95068
970.08        64.96613
970.47        64.77839
970.86        64.58759
971.24        64.76963
971.63        65.35196
972.02        66.22867
972.40        67.01365
972.79        67.03693
973.17        66.26071
973.56        64.89916
973.95         63.4657
974.33        62.87738
974.72         63.3902
975.11        64.68683
975.49        66.38606
975.88         67.7703
976.26         68.6409
976.65         69.1157
977.04        69.22284
977.42        68.97424
977.81         68.3782
978.19         67.3353
978.58         66.2987
978.96        66.06731
979.35        66.78397
979.74        68.17822
980.12        69.61446
980.51        70.07066
980.89         69.5239
981.28        68.14014
981.66        66.37955
982.05        65.44147
982.43        65.77637
982.82        67.07593
983.20        68.73042
983.59        69.79769
983.97        70.06092
984.35        69.72408
984.74        69.05593
985.12        68.62009
985.51        68.55985
985.89        68.76638
986.28        68.94361
986.66        68.73611
987.04        68.13445
987.43        67.18604
987.81        65.99442
988.20        66.34345
988.58        68.54694
988.96        69.45256
989.35         68.0816
989.73        74.54617
990.12         71.0657
990.50        71.24614
990.88        70.57058
991.27        70.02927
991.65        69.70275
992.03         69.6775
992.42        69.94935
992.80        69.92376
993.18        69.49898
993.56        68.87228
993.95        68.29527
994.33        68.11419
994.71        68.41911
995.10        69.06213
995.48        69.79108
995.86        70.19447
996.24        70.15784
996.63        69.73521
997.01        69.23936
997.39        68.96838
997.77        68.98434
998.15        69.16884
998.54        69.39494
998.92        69.34814
999.30        69.00859
999.68         68.5379
1000.06        68.02657
1000.45        67.62097
1000.83         67.5186
1001.21        67.60888
1001.59        68.07948
1001.97        69.19122
1002.35        70.80927
1002.73        72.71489
1003.12        74.40271
1003.50        75.29306
1003.88        75.31447
1004.26        74.63138
1004.64        73.61333
1005.02        73.05483
1005.40        73.25941
1005.78        74.00562
1006.16        74.93658
1006.54        75.41095
1006.92        75.24346
1007.30        74.71139
1007.69        73.96898
1008.07        73.29496
1008.45        72.76679
1008.83        72.28314
1009.21        72.04491
1009.59        72.47853
1009.97        73.54861
1010.35        74.92953
1010.73        76.21397
1011.11        77.23373
1011.49        78.10386
1011.86        78.60043
1012.24        78.47525
1012.62        80.13602
1013.00        80.80119
1013.38        80.38063
1013.76        77.70586
1014.14        80.99409
1014.52         86.5135
1014.90        78.59012
1015.28        79.48795
1015.66        80.92654
1016.04        77.73011
1016.41        78.79971
1016.79        78.85153
1017.17        79.03271
1017.55        78.69997
1017.93        78.12004
1018.31        77.85114
1018.69        78.32307
1019.06        79.62497
1019.44        81.44719
1019.82        82.97572
1020.20        83.11161
1020.58        81.61213
1020.95        78.40007
1021.33        74.25757
1021.71        71.96912
1022.09        73.02972
1022.46        76.19714
1022.84        79.50457
1023.22        81.48731
1023.60        82.17539
1023.97        82.12231
1024.35        81.68514
1024.73        81.48746
