SpectraSmart Spectrum 2.9.0.0
--------- Device Information -----------
Spectrum Name :  反射率_0
Saving Time :  2024/04/21 00:08:16
Spectro-Module Model Name : SE2030-DUVN
Spectro-Module Serial Number : OS361AC55029948
Wavelength Start : 200
Wavelength End : 1025
Wavelength Unit : Wavelength(nm)
Spectrum Unit : Reflectance(%)
-----------Spectrum Setting ------------
Integration Time : 20ms
Average : 10
Boxcar : 0
Background removal :  enabled
linearity correction :  enabled
SC :  disabled
Intensity correction :  disabled
DWT denoise :  enabled
savitzky-golay :  disabled
FFT :  disabled
Running average :  disabled
Kalman :  disabled
High pass :  disabled
---------------BEGIN--------------------
Wavelength(nm)             Reflectance(%)
200.29               0
200.75       -127.9692
201.21       -42.46994
201.67        3.440713
202.13         21.3908
202.58        23.96612
203.04        17.98918
203.50        6.406366
203.96       -3.070893
204.42       -6.239321
204.88       -7.053023
205.34       -6.582329
205.80       -6.700387
206.26       -8.166345
206.72       -6.454835
207.18       -7.853094
207.64       -27.86029
208.10       -67.40668
208.55       -120.0484
209.01       -146.1811
209.47       -104.2121
209.93       -41.95618
210.39        8.082258
210.85        39.92246
211.31        53.85215
211.77        55.07063
212.23        45.91533
212.69        21.53197
213.14       -23.65208
213.60       -100.9627
214.06       -314.3752
214.52       -770.9569
214.98         -324.03
215.44       -75.45775
215.90        5.692898
216.36        31.52498
216.81        32.13597
217.27        10.39263
217.73       -99.41813
218.19        1223.847
218.65        521.7294
219.11       -1143.298
219.57       -49.18732
220.02        20.30612
220.48        32.57568
220.94        25.84615
221.40       -1.187857
221.86       -66.58011
222.32        -109.569
222.77        -51.2295
223.23     -0.09475827
223.69         25.6644
224.15        34.26134
224.61        33.89822
225.06        29.37847
225.52        22.31816
225.98        14.70221
226.44        7.874993
226.90        0.112591
227.36       -4.695918
227.81       0.2612698
228.27        11.00777
228.73        22.32856
229.19        29.71284
229.65        30.77541
230.10        26.53844
230.56        18.60207
231.02        8.569066
231.48        2.511374
231.93        4.420962
232.39         11.6799
232.85        19.42902
233.31        23.71514
233.77        24.82435
234.22        24.54229
234.68        23.35394
235.14        22.06625
235.60        21.40558
236.05        20.28776
236.51         18.9057
236.97         23.7367
237.43        35.00113
237.88        42.41687
238.34        42.12268
238.80        63.32821
239.26        53.94305
239.71        51.90465
240.17        43.72372
240.63        35.65909
241.08        32.08767
241.54        36.03793
242.00        46.64008
242.46        52.67714
242.91        51.02817
243.37        42.12279
243.83        27.82446
244.28        18.04624
244.74        19.61067
245.20         27.4278
245.66         35.1772
246.11        36.72936
246.57        31.22329
247.03        21.01772
247.48        7.542176
247.94       -6.950066
248.40       -24.57729
248.85       -61.84561
249.31       -164.7559
249.77       -222.1881
250.22       -56.70239
250.68        4.907993
251.14        23.76245
251.59        29.80613
252.05        31.48961
252.51        31.48123
252.96        29.24493
253.42        25.45488
253.88        22.69957
254.33        22.53276
254.79        28.55379
255.25        40.50627
255.70        53.08189
256.16        63.35762
256.62        70.32003
257.07        73.71992
257.53        75.07915
257.99        75.13204
258.44        74.06711
258.90        72.79282
259.35        70.98633
259.81        69.22971
260.27        67.48632
260.72        65.85635
261.18        64.75446
261.63        63.76619
262.09        63.01926
262.55        62.13131
263.00        60.98253
263.46        59.87702
263.91        58.74176
264.37        57.97007
264.83        57.46947
265.28        57.07309
265.74        56.74569
266.19        56.18763
266.65        55.43809
267.11        54.50524
267.56        53.44831
268.02        52.46861
268.47        51.54801
268.93         50.6716
269.38        49.72595
269.84        48.61457
270.30        47.31686
270.75        45.89857
271.21        44.49828
271.66        43.24142
272.12        42.20683
272.57        41.33343
273.03        40.59272
273.48        39.87654
273.94        39.17761
274.39        38.47458
274.85        37.81426
275.31        37.18405
275.76        36.57135
276.22        36.01331
276.67        35.45842
277.13        34.93955
277.58        34.41003
278.04         33.8978
278.49        33.38603
278.95        32.95295
279.40        32.54427
279.86        32.18064
280.31        31.75171
280.77        31.19981
281.22        30.49325
281.68        29.74406
282.13        29.00299
282.59        28.43113
283.04        28.02807
283.50         27.7689
283.95        27.62659
284.41         27.5961
284.86        27.64119
285.32        27.78543
285.77        27.92763
286.22        27.94623
286.68        27.84926
287.13        27.62501
287.59        27.45392
288.04        27.50413
288.50        27.77502
288.95        28.29897
289.41         28.9354
289.86        29.01125
290.32        28.42542
290.77        29.06914
291.22        28.05277
291.68        28.05256
292.13         28.2412
292.59        28.65623
293.04        29.25754
293.50        30.05194
293.95        31.03271
294.40        32.17504
294.86        33.43864
295.31        34.74076
295.77        36.04847
296.22        37.34818
296.68        38.64499
297.13        39.95062
297.58         41.2864
298.04         42.6436
298.49        44.04457
298.95        45.54865
299.40        47.13947
299.85        48.81271
300.31        50.49439
300.76        52.03853
301.21        53.43975
301.67        54.77197
302.12        56.12492
302.58         57.7436
303.03        59.63363
303.48        61.76253
303.94        64.00694
304.39        66.11842
304.84        68.04205
305.30        69.85694
305.75        71.60796
306.20        73.48016
306.66        75.50215
307.11        77.54601
307.57        79.55114
308.02        81.35138
308.47        82.94475
308.93        84.43544
309.38        85.82555
309.83           87.18
310.29        88.57986
310.74        89.93672
311.19        91.30726
311.65        92.74879
312.10        94.23177
312.55        95.73053
313.00        97.14464
313.46        98.31578
313.91        99.19489
314.36        99.84863
314.82        100.3683
315.27        100.8916
315.72        101.4821
316.18        102.1082
316.63         102.773
317.08        103.4779
317.53        104.2031
317.99         104.945
318.44        105.6484
318.89        106.2026
319.35        106.5844
319.80        106.8308
320.25        106.9999
320.70        107.2029
321.16        107.4663
321.61        107.7754
322.06        108.1135
322.51        108.4574
322.97        108.7813
323.42        109.1439
323.87         109.499
324.32        109.7844
324.78        109.9717
325.23        110.1048
325.68        110.2487
326.13        110.5501
326.59        111.0055
327.04        111.6253
327.49        112.2554
327.94        112.6713
328.39        112.8197
328.85        112.7403
329.30         112.631
329.75        112.6874
330.20         112.979
330.66        113.3957
331.11        113.9382
331.56        114.4572
332.01         114.902
332.46        115.3194
332.92        115.6328
333.37         115.861
333.82        115.9701
334.27        115.9799
334.72        116.0145
335.17         116.292
335.63        116.8272
336.08        117.6143
336.53        118.5066
336.98        119.2972
337.43        119.9086
337.88        120.3956
338.34          120.74
338.79        120.9877
339.24        121.1486
339.69        121.2184
340.14        121.3076
340.59        121.5981
341.05        122.1261
341.50        122.8611
341.95        123.6688
342.40        124.3194
342.85        124.7428
343.30        124.9879
343.75        125.1554
344.20        125.4182
344.66        125.8277
345.11        126.3098
345.56        126.7668
346.01        127.0505
346.46        127.1429
346.91        127.0813
347.36        126.9683
347.81        127.0408
348.26        127.3465
348.72        127.4974
349.17        127.9658
349.62        128.1503
350.07        128.1882
350.52        128.1082
350.97        127.9523
351.42        127.7795
351.87        127.6073
352.32        127.4139
352.77        127.1983
353.22        126.9606
353.67        126.6947
354.13        126.4238
354.58        126.0967
355.03        125.6814
355.48        125.1829
355.93        124.6243
356.38        124.0565
356.83        123.5559
357.28        123.1257
357.73        122.7215
358.18        122.3043
358.63        121.8156
359.08         121.239
359.53        120.6091
359.98        119.8992
360.43        119.0622
360.88        118.1059
361.33        117.0444
361.78        116.0015
362.23        115.1754
362.68        114.6048
363.13        114.2415
363.58        113.9099
364.03        113.3258
364.48        112.4232
364.93        111.2731
365.38        110.0689
365.83        109.1318
366.28         108.529
366.73        108.1514
367.18        107.7939
367.63         107.131
368.08        106.1033
368.53        104.8549
368.98        103.5589
369.43        102.4618
369.88        101.6344
370.33        100.9865
370.78        100.4791
371.23         100.063
371.68         99.6927
372.13        99.37318
372.58        99.02996
373.03        98.53212
373.48         97.8495
373.93        97.01357
374.38        96.08484
374.83        95.19067
375.28        94.39629
375.72        93.66732
376.17        93.05701
376.62        92.54985
377.07        92.11552
377.52        91.73643
377.97        91.35851
378.42        90.90164
378.87        90.35505
379.32        89.75161
379.77        89.11055
380.22        88.44926
380.67        87.77046
381.11        87.06931
381.56        86.37963
382.01        85.78807
382.46        85.32572
382.91        84.98435
383.36        84.69041
383.81        84.31995
384.26        83.84375
384.71         83.2921
385.15        82.72905
385.60        82.32552
386.05        82.07969
386.50        81.93463
386.95        81.79243
387.40        81.50968
387.85        81.06822
388.29        80.48602
388.74         79.9423
389.19        79.47144
389.64        79.08418
390.09        78.73861
390.54        78.42976
390.98         78.1406
391.43        77.90848
391.88        77.73167
392.33        77.56659
392.78        77.35151
393.23        77.08241
393.67        76.71834
394.12        76.41035
394.57        76.24424
395.02        76.20518
395.47        76.15173
395.91        76.04796
396.36        75.90824
396.81        75.73434
397.26        75.51584
397.71        75.26151
398.15        74.97727
398.60        74.75679
399.05        74.49053
399.50        74.24256
399.95        74.18929
400.39        74.28474
400.84        74.28098
401.29        74.11866
401.74        73.74134
402.18        73.23483
402.63        72.89436
403.08        72.71075
403.53        72.37969
403.97        71.91126
404.42        71.54285
404.87        71.32054
405.32        71.22148
405.76        71.22385
406.21        71.34496
406.66        71.49432
407.11        71.46131
407.55        71.23788
408.00        71.04321
408.45         70.9006
408.90        70.42573
409.34        69.79708
409.79        69.78217
410.24        70.25961
410.68        70.43692
411.13        70.26012
411.58        70.15938
412.03        70.14928
412.47        70.07214
412.92        69.90941
413.37           69.72
413.81        69.53164
414.26        69.44257
414.71        69.44701
415.15        69.53376
415.60        69.62701
416.05        69.65927
416.49        69.60607
416.94        69.47593
417.39        69.30964
417.83        69.16021
418.28        69.04884
418.73        68.96308
419.17        68.87154
419.62         68.7354
420.07        68.54691
420.51        68.31613
420.96        68.12914
421.41        68.03198
421.85        68.00213
422.30        68.14227
422.74         68.3253
423.19        68.29147
423.64        68.07936
424.08        68.16367
424.53        68.46671
424.98        68.57666
425.42        68.48112
425.87         68.3934
426.31        68.37323
426.76        68.40825
427.21        68.49656
427.65        68.63159
428.10        68.72246
428.54        68.70285
428.99        68.60182
429.44        68.43934
429.88        68.23366
430.33        68.09562
430.77        67.99837
431.22        68.00418
431.66        68.06673
432.11        68.19563
432.56        68.36082
433.00        68.26402
433.45        67.78431
433.89        67.65127
434.34        67.99523
434.78        67.34431
435.23        67.28522
435.67        68.13564
436.12        68.06593
436.57        68.30748
437.01        68.26093
437.46        68.17298
437.90        68.78939
438.35        68.65489
438.79        68.96023
439.24        68.91835
439.68        68.85637
440.13        68.59274
440.57        68.24017
441.02        68.43371
441.46        68.99087
441.91        68.87995
442.35        68.24045
442.80        68.43245
443.24        69.28825
443.69        69.56492
444.13        69.18222
444.58        69.10077
445.02        69.03571
445.47        69.05268
445.91        69.04797
446.36        69.04945
446.80        69.04907
447.24        69.08265
447.69        69.16511
448.13        69.37634
448.58        69.49371
449.02        69.55716
449.47        69.51251
449.91        69.47134
450.36        69.45801
450.80        69.31734
451.25        69.12125
451.69        69.10419
452.13        69.22873
452.58         69.1415
453.02        68.84351
453.47        68.67002
453.91        68.62969
454.36        68.44167
454.80        68.32377
455.24        68.20094
455.69        68.15907
456.13        68.10804
456.58         68.0909
457.02        68.07576
457.46        68.19852
457.91          68.066
458.35        67.86287
458.79        67.66136
459.24        67.53579
459.68        67.36958
460.13        67.21811
460.57        67.04805
461.01        66.87114
461.46        66.76995
461.90        66.90538
462.34        66.46934
462.79        66.69021
463.23        66.74826
463.68        66.90565
464.12        66.56055
464.56        65.90108
465.01        66.04449
465.45        66.66936
465.89        66.58904
466.34        65.95066
466.78         65.5444
467.22        65.45972
467.67        66.03907
468.11        66.10246
468.55        66.01526
468.99        65.52223
469.44        65.28358
469.88        65.32314
470.32        65.22131
470.77         64.9976
471.21        64.87958
471.65        64.87614
472.10        64.92397
472.54        64.95754
472.98         64.9072
473.42        64.76601
473.87        64.55895
474.31        64.32123
474.75        64.26334
475.20        64.34445
475.64         64.3391
476.08        64.27396
476.52        64.24899
476.97        64.22239
477.41        64.52128
477.85        64.67456
478.29        64.24918
478.74         64.0713
479.18           63.87
479.62        64.22777
480.06        64.28531
480.50        64.21361
480.95        64.14986
481.39         63.9822
481.83        64.55998
482.27         64.7067
482.72         64.0322
483.16         64.4406
483.60        64.57225
484.04        64.63725
484.48        64.09277
484.93        63.63493
485.37        63.99468
485.81        64.37286
486.25        63.96645
486.69         64.7392
487.14         64.5931
487.58        64.12926
488.02        64.03156
488.46        63.81155
488.90        63.85143
489.34         63.9605
489.79        63.44492
490.23        64.03188
490.67        64.17677
491.11        64.31311
491.55        64.05614
491.99        63.55117
492.43        63.32802
492.88        63.42531
493.32        63.59657
493.76        63.69667
494.20        63.75218
494.64        63.76196
495.08        63.32456
495.52        63.07555
495.96        63.19879
496.41        63.69969
496.85        63.69382
497.29        63.20603
497.73        63.21405
498.17        63.34985
498.61        63.59401
499.05         63.4077
499.49        63.20474
499.93        62.98959
500.37         62.9906
500.82        63.17408
501.26        63.41226
501.70        63.61698
502.14        63.32481
502.58        63.13457
503.02        63.02016
503.46        63.10854
503.90        63.21708
504.34        63.26593
504.78        63.26321
505.22        63.20741
505.66        63.04795
506.10        62.82709
506.54        62.81219
506.98        63.06081
507.42        62.73195
507.86         63.2042
508.30        63.23558
508.74         63.2933
509.18        63.29102
509.62         63.2608
510.06        63.22298
510.50         63.1446
510.94        62.98839
511.38        62.80478
511.82        62.65015
512.26        62.52161
512.70        62.75861
513.14        62.64164
513.58         62.6715
514.02        62.62989
514.46        62.54807
514.90        62.44864
515.34        62.41753
515.78        62.47934
516.22        62.57703
516.66        62.52068
517.10        62.82944
517.54        62.64094
517.98        62.62872
518.42        62.57548
518.86         62.5571
519.30         62.5842
519.74        62.60195
520.18        62.61176
520.62        62.69403
521.06         62.7975
521.50        62.70804
521.93        62.46825
522.37         62.3452
522.81        62.36406
523.25        62.37984
523.69         62.3747
524.13        62.37938
524.57         62.3868
525.01         62.3942
525.45        62.39605
525.89         62.3812
526.32         62.3485
526.76        62.30569
527.20        62.27263
527.64        62.28541
528.08         62.3457
528.52        62.43916
528.96        62.53465
529.40        62.57562
529.83         62.5491
530.27        62.50598
530.71        62.44617
531.15        62.36926
531.59        62.28464
532.03        62.19335
532.46        62.11903
532.90        62.11265
533.34        62.17238
533.78        62.28653
534.22        62.39325
534.66        62.39571
535.09        62.27071
535.53        62.06973
535.97        61.85649
536.41        61.74979
536.85        61.77708
537.28        61.90246
537.72        62.06221
538.16        62.15303
538.60         62.1459
539.04        62.07598
539.47        61.97457
539.91        61.94056
540.35        61.97472
540.79         62.0483
541.22        62.12727
541.66        62.17433
542.10        62.17292
542.54        62.14038
542.97        62.08408
543.41        62.04759
543.85        62.03519
544.29        62.03975
544.72        62.04731
545.16        62.09372
545.60        62.16935
546.04        62.19796
546.47        62.18677
546.91        62.31937
547.35        62.50846
547.79        62.37686
548.22        61.99113
548.66         61.8156
549.10        61.88784
549.53        61.98057
549.97        62.05046
550.41        62.08158
550.84        62.05244
551.28        61.97403
551.72        61.88143
552.15        61.84184
552.59        61.88549
553.03        61.90384
553.46         62.0238
553.90        62.03053
554.34        61.93909
554.77        61.87837
555.21        61.94505
555.65        61.67228
556.08        62.00743
556.52        62.17892
556.96        62.37457
557.39        62.44723
557.83        62.38764
558.27        62.19792
558.70        61.95017
559.14        61.79386
559.57         61.7464
560.01        61.85001
560.45        62.00286
560.88        61.93738
561.32        61.74879
561.75        61.66187
562.19        61.72599
562.63        61.91093
563.06        62.10408
563.50        61.92899
563.93        61.48613
564.37        61.38161
564.80        61.59345
565.24        61.77862
565.68        61.89355
566.11        61.89405
566.55        62.01113
566.98        62.07594
567.42         62.1552
567.85        61.97276
568.29        61.68032
568.72        61.74836
569.16        62.15802
569.60        62.22935
570.03        62.24863
570.47        62.21827
570.90        62.19396
571.34         62.2506
571.77        62.60355
572.21        62.14295
572.64        62.29885
573.08         62.1661
573.51        61.98831
573.95        62.55778
574.38        62.68528
574.82        63.19413
575.25        62.86557
575.69        62.53103
576.12        62.28249
576.56        62.35527
576.99        62.81101
577.42        62.86004
577.86         62.4949
578.29        63.24115
578.73        63.42697
579.16        62.64492
579.60        62.19133
580.03        62.63608
580.47        62.67858
580.90        62.54317
581.33        63.04745
581.77        62.80665
582.20        63.09747
582.64        63.12725
583.07        62.70758
583.51        62.60323
583.94        62.48098
584.37        62.48351
584.81        62.04502
585.24        62.12103
585.68        62.86459
586.11        62.49577
586.54        62.53829
586.98        62.20731
587.41        62.18468
587.85        62.83072
588.28         62.3494
588.71        62.69795
589.15        62.60261
589.58        62.13712
590.01        62.29114
590.45        62.05015
590.88        62.33491
591.31        62.17698
591.75        62.02037
592.18        62.02311
592.61        62.21226
593.05        62.50314
593.48        62.77533
593.91        62.47857
594.35        62.80599
594.78         62.5589
595.21        62.36105
595.65        62.32594
596.08        62.51954
596.51        62.35303
596.94        62.32951
597.38        62.19579
597.81        62.11445
598.24        62.48381
598.68        62.32079
599.11        62.27716
599.54        62.23274
599.97         62.0783
600.41        62.26633
600.84        62.58488
601.27        62.48854
601.70        62.07165
602.14        61.92354
602.57        61.80571
603.00        61.94117
603.43        62.10917
603.87        62.45475
604.30        62.36477
604.73        62.37927
605.16        62.16842
605.60        62.19558
606.03        62.27261
606.46         62.4995
606.89        62.12434
607.32        61.81408
607.76        62.41327
608.19        62.26999
608.62         61.9846
609.05        62.79041
609.48        62.24111
609.92        62.14439
610.35        62.09916
610.78        62.11916
611.21        62.26952
611.64        62.08297
612.07        62.07321
612.50        62.12564
612.94        62.13615
613.37        62.11789
613.80        62.13413
614.23        62.17472
614.66        62.03823
615.09        61.91198
615.52        61.85017
615.96        61.90807
616.39        61.88243
616.82        61.75077
617.25        61.94185
617.68        61.81443
618.11        61.85693
618.54        62.00339
618.97        61.94308
619.40        61.74142
619.84        61.54019
620.27         61.5532
620.70        61.50181
621.13        61.44383
621.56        61.53011
621.99        61.71991
622.42         61.8086
622.85        61.80297
623.28        61.86974
623.71        61.76402
624.14        62.28378
624.57        62.06117
625.00        62.01751
625.43        61.77313
625.86        61.88268
626.29        61.98952
626.72        61.51131
627.15        61.79274
627.58        61.66343
628.01        61.54968
628.44        61.87926
628.87        61.40448
629.30        62.03773
629.73        61.91935
630.16        61.78642
630.59        61.72247
631.02        61.89823
631.45        61.61669
631.88        61.58305
632.31        61.56964
632.74        61.46968
633.17        61.51713
633.60        61.48177
634.03        61.44006
634.46         61.4454
634.89        61.41181
635.32        61.43975
635.75        61.49609
636.18        61.57325
636.61        61.64724
637.04        61.68496
637.47        61.67861
637.89        61.64355
638.32          61.583
638.75        61.52903
639.18        61.49283
639.61         61.4694
640.04        61.45774
640.47        61.45573
640.90        61.46002
641.33        61.46997
641.76        61.48417
642.18         61.5047
642.61        61.51641
643.04        61.52882
643.47        61.53143
643.90         61.5133
644.33        61.47515
644.76        61.40675
645.18        61.34137
645.61        61.35409
646.04        61.44059
646.47         61.5263
646.90        61.57987
647.33         61.6076
647.75        61.59199
648.18        61.52019
648.61        61.44419
649.04        61.43405
649.47        61.46643
649.89        61.74205
650.32        61.57615
650.75        61.69655
651.18        61.85039
651.61        61.71317
652.03        61.36427
652.46        61.29281
652.89        61.53297
653.32        61.63494
653.74        61.50969
654.17        61.66756
654.60        61.42968
655.03        61.18531
655.46        61.24889
655.88        61.96634
656.31        62.95008
656.74        65.61423
657.16        64.54317
657.59        62.66821
658.02        61.28908
658.45        61.65865
658.87        61.63949
659.30         61.4314
659.73        61.70838
660.15        61.04255
660.58         61.7993
661.01        62.05394
661.44        62.27642
661.86        62.23041
662.29        61.94044
662.72        61.64246
663.14        61.42538
663.57         61.3558
664.00        61.41533
664.42        61.43679
664.85        61.41754
665.27        61.37601
665.70        61.50055
666.13        61.54567
666.55         61.5635
666.98        61.56324
667.41        61.54177
667.83        61.50396
668.26        61.46642
668.69        61.37563
669.11        61.24184
669.54        61.30123
669.96        61.60764
670.39         61.2704
670.82        61.73788
671.24        61.77121
671.67         61.7746
672.09        61.74695
672.52        61.72232
672.94        61.60098
673.37        61.43476
673.80        61.42784
674.22        61.56881
674.65        61.61913
675.07        61.58117
675.50        61.57444
675.92        61.60931
676.35        61.62464
676.77        61.61734
677.20        61.61452
677.62        61.63894
678.05        61.64858
678.47        61.63043
678.90        61.85529
679.32        61.81369
679.75         61.8697
680.17        61.87167
680.60        61.84269
681.02         61.7957
681.45        61.76334
681.87        61.76553
682.30        61.75348
682.72        61.74835
683.15        61.81524
683.57        61.90055
684.00        61.95922
684.42        61.68369
684.85        61.64251
685.27        61.73768
685.70        61.83752
686.12        61.88671
686.54        61.89573
686.97        61.84906
687.39         61.7796
687.82        61.71673
688.24        61.67888
688.66        61.65759
689.09        61.88887
689.51        61.89277
689.94        62.04935
690.36        62.18987
690.78        62.29224
691.21         62.3422
691.63        62.28242
692.06        62.15807
692.48        62.17187
692.90        62.18853
693.33        62.20039
693.75        62.17673
694.17        62.16624
694.60        62.14754
695.02        62.25076
695.44         62.2006
695.87        62.11654
696.29        61.99512
696.71         61.9827
697.14        62.07941
697.56        62.30737
697.98        62.60032
698.41        62.50123
698.83        62.61478
699.25        62.46798
699.68        62.29599
700.10        62.17713
700.52         62.1422
700.94        62.16095
701.37        62.18801
701.79        62.21031
702.21        62.19443
702.64        62.15926
703.06        62.11897
703.48        62.09825
703.90        62.10716
704.33        62.13581
704.75        62.16576
705.17         62.1492
705.59         62.0814
706.01        61.97513
706.44        61.88887
706.86          61.931
707.28        62.10265
707.70        62.37706
708.12         62.6705
708.55         62.8187
708.97        62.79882
709.39         62.7258
709.81        62.64199
710.23        62.56462
710.66        62.52488
711.08        62.55179
711.50        62.61045
711.92        62.64416
712.34        62.64146
712.76        62.61963
713.19        62.59533
713.61        62.63775
714.03        62.73063
714.45         62.8665
714.87        63.00209
715.29        63.03166
715.71        62.93317
716.13        62.89647
716.56        62.66388
716.98        62.60218
717.40        62.63414
717.82        62.73994
718.24        62.86392
718.66        62.91809
719.08        62.88345
719.50        62.78894
719.92        62.68272
720.34        62.63742
720.76        62.67218
721.19        62.75326
721.61        62.86662
722.03        62.96111
722.45        63.02157
722.87        63.06536
723.29        63.10242
723.71        63.14788
724.13        63.20687
724.55        63.26576
724.97        63.32941
725.39        63.41016
725.81        63.50375
726.23        63.60387
726.65        63.68216
727.07        63.69798
727.49        63.64792
727.91        63.53693
728.33        63.40122
728.75        63.33551
729.17        63.34532
729.59        63.33883
730.01        63.32485
730.43        63.37998
730.85        63.49746
731.27        63.62156
731.69        63.72991
732.10        63.74845
732.52        63.86282
732.94        63.69707
733.36        63.39383
733.78        63.25308
734.20        63.31886
734.62        63.43676
735.04        63.55699
735.46        63.66019
735.88        63.72366
736.30        63.76133
736.72        63.77086
737.13        63.76807
737.55        63.72423
737.97        63.63646
738.39        63.54884
738.81        63.57549
739.23        63.70991
739.65        63.84331
740.06        63.89625
740.48        63.94204
740.90        63.94013
741.32        63.85237
741.74        63.72752
742.16         63.6846
742.57        63.75978
742.99        63.90002
743.41        64.05489
743.83        64.12434
744.25        64.08628
744.67        63.96832
745.08        63.85397
745.50         63.8401
745.92        63.96362
746.34        64.18328
746.75        64.41418
747.17        64.51962
747.59          64.475
748.01        64.29572
748.42        64.06913
748.84         64.0024
749.26        64.10618
749.68        64.15365
750.09        64.12286
750.51        64.19566
750.93        64.32495
751.35        64.28998
751.76        64.13068
752.18        64.07153
752.60        64.12974
753.01        64.20179
753.43        64.23188
753.85        64.22208
754.27        64.16596
754.68        64.07487
755.10        63.98463
755.52        63.92647
755.93        63.90736
756.35        63.92076
756.77        63.99052
757.18        64.06963
757.60        64.12789
758.02         64.3433
758.43        64.68456
758.85        64.32198
759.26        64.39173
759.68        64.43611
760.10        63.98178
760.51        63.95125
760.93        64.42366
761.34        63.87843
761.76        64.32475
762.18        64.33222
762.59        64.41785
763.01        64.58875
763.42        64.04905
763.84        64.23355
764.26        64.52016
764.67        64.96044
765.09        65.31331
765.50        65.50926
765.92        65.51617
766.33        65.22417
766.75        64.75417
767.16        64.52969
767.58        64.56605
768.00         64.8554
768.41        65.28239
768.83        65.21383
769.24        64.71207
769.66         65.0285
770.07        65.19789
770.49        65.24773
770.90        64.91249
771.32        64.61237
771.73        64.45428
772.15          64.393
772.56        64.47318
772.97        64.71666
773.39          65.012
773.80        65.22488
774.22         65.2766
774.63        65.22382
775.05        65.11082
775.46        65.06687
775.88          65.103
776.29        65.19939
776.70        65.29353
777.12        65.30096
777.53        65.22269
777.95        65.09215
778.36        64.95443
778.77        64.86769
779.19        64.85233
779.60         64.8941
780.02        64.98688
780.43        65.14084
780.84        65.34258
781.26        65.56539
781.67         65.7973
782.09        65.94939
782.50         65.9969
782.91        65.98591
783.33         65.9225
783.74        65.88907
784.15        65.86952
784.57        65.86139
784.98        65.87794
785.39        65.91248
785.81        65.96085
786.22        66.02775
786.63        66.08611
787.04        66.09172
787.46        66.05283
787.87        65.96168
788.28        65.87236
788.70        65.85954
789.11        65.91992
789.52        66.04366
789.93        66.19618
790.35        66.31107
790.76        66.38102
791.17        66.42245
791.58        66.45458
792.00        66.48775
792.41        66.56217
792.82        66.67316
793.23        66.79656
793.65        66.90168
794.06        67.03019
794.47        67.16736
794.88        67.24885
795.29        67.69102
795.71        67.51797
796.12        67.58183
796.53        67.58106
796.94        67.53288
797.35        67.41431
797.76        67.18012
798.18         66.8973
798.59        66.70386
799.00        66.62736
799.41        66.61702
799.82        66.64163
800.23        66.66519
800.64        66.67146
801.06        66.65289
801.47        66.65862
801.88        66.69662
802.29        66.76881
802.70        66.85112
803.11         66.9457
803.52        67.06229
803.93        67.20564
804.34        67.37815
804.75        67.53066
805.17        67.63712
805.58         67.7251
805.99        67.59328
806.40         67.3474
806.81        67.63428
807.22        68.25439
807.63        68.11467
808.04        67.32667
808.45        67.03017
808.86        67.31099
809.27        67.51505
809.68         67.5552
810.09        67.59158
810.50        67.59882
810.91        67.53964
811.32        67.44123
811.73        67.34994
812.14         67.2821
812.55        67.22704
812.96        67.20186
813.37        67.22827
813.78         67.3041
814.19        67.42868
814.60        67.54557
815.01        67.56222
815.42        67.46355
815.83        67.27277
816.24        67.06428
816.65        66.97971
817.05        67.07036
817.46        67.27184
817.87         67.5315
818.28         67.7265
818.69         67.8259
819.10        67.85966
819.51         67.8827
819.92        67.99069
820.33        68.19672
820.74        68.44645
821.14        68.66624
821.55        68.77193
821.96        68.73146
822.37        68.58405
822.78        68.36224
823.19        68.12323
823.60         67.9046
824.00        67.71426
824.41        67.55924
824.82        67.51433
825.23         67.5864
825.64        67.76604
826.04        68.00233
826.45        68.16772
826.86        68.24538
827.27        68.26404
827.68        68.26328
828.08        68.34501
828.49        68.45995
828.90        68.60862
829.31        68.79142
829.72        68.92513
830.12        68.99438
830.53        69.35078
830.94        69.26556
831.35        69.10484
831.75        68.68106
832.16        68.04037
832.57        67.40557
832.97        67.14207
833.38        67.32885
833.79        67.84658
834.20        68.48827
834.60        68.93589
835.01        69.09983
835.42        69.07017
835.82         68.9359
836.23         68.8085
836.64         68.7528
837.04        68.72084
837.45        68.69286
837.86        68.70715
838.26        68.77306
838.67        68.89648
839.08        69.02216
839.48        69.02985
839.89        68.90012
840.29        68.67156
840.70         68.4726
841.11          68.519
841.51        68.86594
841.92        69.39979
842.33        69.98002
842.73        70.37054
843.14        70.44941
843.54        70.31683
843.95        70.04887
844.35        69.80113
844.76        69.62929
845.17        69.50291
845.57        69.44239
845.98        69.44466
846.38        69.53223
846.79        69.69073
847.19        69.91589
847.60        70.10828
848.00        70.27177
848.41        70.37541
848.81         70.4674
849.22        70.56527
849.62        70.70695
850.03        70.83459
850.43        70.93674
850.84        70.89525
851.24         70.7417
851.65        70.44092
852.05        70.12085
852.46        69.90501
852.86        69.84323
853.27        69.95002
853.67         70.0433
854.07        70.00236
854.48        69.77042
854.88         69.4054
855.29        69.01151
855.69        68.95217
856.10        69.21411
856.50        69.78297
856.90        70.36259
857.31        70.50611
857.71        70.16179
858.12        69.40987
858.52        68.53098
858.92        67.93652
859.33        67.75663
859.73        67.92858
860.13        68.29568
860.54        68.59186
860.94        68.77882
861.34        68.88285
861.75        68.93332
862.15        69.05127
862.55        69.21815
862.96        69.36687
863.36        69.43554
863.76        69.29063
864.17        68.91787
864.57        68.41063
864.97        67.87958
865.38        67.49017
865.78        67.33984
866.18        67.36606
866.58        67.56072
866.99        67.86248
867.39        68.24731
867.79        68.70646
868.19        69.09762
868.60        69.12736
869.00        68.83246
869.40        68.43481
869.80        68.05686
870.21        67.76807
870.61        67.70465
871.01        67.88837
871.41        68.16793
871.81        68.23846
872.22        68.05492
872.62        67.71491
873.02        67.32542
873.42        67.24191
873.82        67.36326
874.22        67.14055
874.63        66.77608
875.03          66.707
875.43        66.96507
875.83        68.22687
876.23        67.94202
876.63        67.42538
877.03        66.41768
877.44        64.39368
877.84        163.6765
878.24        65.23934
878.64        66.18197
879.04         67.8856
879.44        68.67085
879.84        65.93305
880.24        70.41668
880.64        70.54218
881.04        68.31308
881.44        66.56771
881.84         65.8457
882.24        66.22034
882.65        67.16026
883.05        67.44721
883.45         66.8147
883.85        66.04748
884.25        65.43407
884.65        65.05166
885.05        64.98959
885.45        65.15975
885.85        65.41229
886.25        65.56097
886.65        65.55656
887.05        65.47329
887.45        65.35651
887.85        65.27739
888.25        65.27145
888.65        65.29602
889.04        65.40466
889.44        65.69702
889.84        66.15017
890.24        66.70625
890.64        67.20862
891.04        67.43262
891.44        67.34712
891.84        67.03445
892.24        66.62137
892.64        66.33163
893.04        66.25297
893.44        66.33128
893.83        66.54808
894.23        66.84177
894.63        67.18424
895.03        67.58513
895.43        67.98415
895.83        68.27139
896.23        68.41368
896.63        68.42179
897.02        68.33048
897.42        68.26888
897.82        68.24306
898.22        68.23325
898.62        68.21438
899.01         68.1525
899.41        68.02292
899.81        67.86568
900.21        67.70878
900.61        67.58685
901.00         67.4988
901.40        67.49424
901.80        67.56666
902.20        67.58782
902.59        67.52454
902.99        67.63155
903.39        68.02203
903.79        67.38142
904.18        68.08137
904.58        68.17931
904.98        68.25982
905.38        68.07703
905.77        67.61624
906.17        66.99766
906.57          66.358
906.96        66.01429
907.36        66.05376
907.76        66.40654
908.15        67.01141
908.55        67.61124
908.95        68.14423
909.34        68.58062
909.74        68.95129
910.14        69.27593
910.53         69.5492
910.93        69.75193
911.33        69.74503
911.72        69.32535
912.12        68.51589
912.52         67.4204
912.91        66.35577
913.31        65.88878
913.70        66.10606
914.10        66.85423
914.49         67.7928
914.89        68.23981
915.29        68.03616
915.68        67.36136
916.08        66.54784
916.47        66.08419
916.87        66.13432
917.26        66.52461
917.66        67.05341
918.05        67.42444
918.45        67.52439
918.84        67.47638
919.24        67.37611
919.64        67.42368
920.03        67.67297
920.42        68.01981
920.82        68.35568
921.21        68.54359
921.61        68.56793
922.00        68.53737
922.40        68.56887
922.79        68.71749
923.19        68.68082
923.58        69.19675
923.98        70.54534
924.37        70.54413
924.77         67.9641
925.16        74.88603
925.55        69.42146
925.95        69.82801
926.34        69.87925
926.74        69.42558
927.13        68.38623
927.52        67.66213
927.92        67.66456
928.31        67.86393
928.70        68.24316
929.10        68.69646
929.49         69.1915
929.89        69.77964
930.28        70.27038
930.67        70.22958
931.07        69.60529
931.46         68.4137
931.85        67.15486
932.24        67.08671
932.64        68.39886
933.03        70.17685
933.42        71.43045
933.82        73.59617
934.21        71.91722
934.60        70.16681
934.99         68.3066
935.39        67.72813
935.78        68.58486
936.17        71.01019
936.56        77.22036
936.96        71.44193
937.35        74.55677
937.74        71.19785
938.13        68.43169
938.53        66.28986
938.92        65.64227
939.31        66.86622
939.70        68.62695
940.09        69.54054
940.49        69.30033
940.88        68.40562
941.27        67.33633
941.66        66.96584
942.05        67.57505
942.44        68.74854
942.84         70.0028
943.23        70.79385
943.62        70.95668
944.01        70.66994
944.40        70.19302
944.79        69.94482
945.18        70.05733
945.57         70.4053
945.97        70.72084
946.36        70.70589
946.75        70.25158
947.14        69.47699
947.53        68.68834
947.92        68.39434
948.31        68.70946
948.70        69.45216
949.09        70.24916
949.48        70.52924
949.87          70.174
950.26        69.38919
950.65        68.47126
951.04        67.90118
951.43        67.84141
951.82         68.1423
952.21        68.68403
952.60        69.26155
952.99        69.73917
953.38        70.13099
953.77        70.40277
954.16        70.50212
954.55        70.43184
954.94        70.21884
955.33        69.82752
955.72        69.23539
956.11        68.50887
956.50          67.699
956.89        67.08591
957.28        67.08089
957.66        67.75927
958.05        68.90608
958.44         70.1276
958.83        70.82176
959.22        70.83726
959.61        70.29422
960.00        69.46395
960.39        68.90491
960.78        68.82175
961.16        69.08751
961.55        69.38518
961.94        69.35757
962.33        68.92825
962.72        68.21844
963.11        67.47645
963.49        67.19373
963.88        67.51494
964.27        68.25727
964.66        69.07859
965.04        69.53971
965.43        69.49098
965.82        69.09039
966.21        68.55446
966.60         68.2711
966.98        68.36048
967.37        68.69016
967.76        69.07519
968.15        69.21147
968.53        69.04595
968.92        68.68211
969.31        68.27171
969.69        68.03918
970.08        68.02072
970.47        68.11323
970.86         68.3115
971.24        68.61776
971.63        68.96384
972.02        69.36328
972.40        69.63174
972.79        69.39852
973.17         68.6887
973.56        67.61529
973.95        66.54537
974.33        66.14259
974.72        66.58164
975.11        67.63844
975.49         69.0498
975.88        70.28692
976.26        71.20278
976.65        71.83257
977.04        72.14813
977.42        72.08923
977.81        71.63785
978.19        70.74419
978.58        69.80476
978.96        69.51636
979.35        70.02437
979.74        71.09863
980.12        72.25702
980.51        72.67902
980.89        72.35892
981.28        71.42403
981.66        70.18745
982.05        69.48008
982.43        69.60278
982.82        70.32561
983.20        71.27353
983.59        71.83918
983.97        71.90778
984.35        71.64743
984.74        71.16088
985.12        70.72125
985.51        70.41703
985.89        70.22467
986.28        70.14654
986.66        70.25774
987.04        70.59187
987.43        71.05515
987.81        71.34432
988.20        72.19945
988.58        73.69027
988.96         73.4976
989.35        71.04185
989.73        76.22894
990.12        72.78715
990.50        73.17346
990.88        72.97137
991.27        72.75368
991.65        72.45477
992.03        72.28076
992.42        72.28251
992.80        72.00648
993.18        71.41299
993.56        70.63925
993.95        69.97597
994.33        69.85925
994.71        70.38712
995.10        71.39735
995.48        72.56744
995.86        73.34791
996.24        73.57594
996.63        73.33006
997.01        72.94583
997.39        72.77176
997.77        72.88422
998.15        73.13299
998.54        73.40015
998.92         73.3975
999.30        73.10239
999.68        72.67883
1000.06        72.16479
1000.45        71.59419
1000.83        71.17608
1001.21        70.88053
1001.59        70.98489
1001.97        71.88341
1002.35        73.43874
1002.73        75.31098
1003.12        77.02049
1003.50        78.02024
1003.88        78.21501
1004.26        77.81056
1004.64        76.86679
1005.02        75.58949
1005.40        74.18214
1005.78        72.60619
1006.16        71.30025
1006.54         70.9165
1006.92        71.55868
1007.30        73.13634
1007.69        74.86013
1008.07         75.6283
1008.45        75.18935
1008.83         73.7637
1009.21        72.14924
1009.59        72.03567
1009.97        73.73871
1010.35        76.35403
1010.73        78.84974
1011.11        80.38753
1011.49        80.98616
1011.86        80.73122
1012.24        79.57516
1012.62        80.38229
1013.00         80.8002
1013.38         80.4846
1013.76        78.21535
1014.14        81.89201
1014.52        87.52619
1014.90        80.90959
1015.28        82.35689
1015.66        83.83852
1016.04        80.87888
1016.41        81.16489
1016.79        80.33979
1017.17        79.70534
1017.55        78.79051
1017.93        77.79187
1018.31        77.40714
1018.69        78.26482
1019.06        80.37537
1019.44        83.23953
1019.82         85.7487
1020.20        86.46912
1020.58        85.09249
1020.95        81.62173
1021.33        76.64458
1021.71        72.91148
1022.09         72.3603
1022.46        74.08779
1022.84        76.57465
1023.22        78.61057
1023.60        80.10064
1023.97         81.5433
1024.35        82.86963
1024.73        83.71758
