SpectraSmart Spectrum 2.9.0.0
--------- Device Information -----------
Spectrum Name :  反射率_0
Saving Time :  2024/04/21 00:00:08
Spectro-Module Model Name : SE2030-DUVN
Spectro-Module Serial Number : OS361AC55029948
Wavelength Start : 200
Wavelength End : 1025
Wavelength Unit : Wavelength(nm)
Spectrum Unit : Reflectance(%)
-----------Spectrum Setting ------------
Integration Time : 20ms
Average : 10
Boxcar : 0
Background removal :  enabled
linearity correction :  enabled
SC :  disabled
Intensity correction :  disabled
DWT denoise :  enabled
savitzky-golay :  disabled
FFT :  disabled
Running average :  disabled
Kalman :  disabled
High pass :  disabled
---------------BEGIN--------------------
Wavelength(nm)             Reflectance(%)
200.29               0
200.75       -48.97254
201.21       -1.603899
201.67        27.39755
202.13        40.35867
202.58        44.09528
203.04        44.23729
203.50        41.55575
203.96         37.0391
204.42        31.91364
204.88        24.84112
205.34        18.26596
205.80        15.39874
206.26         17.0925
206.72        26.28076
207.18        37.81913
207.64        36.78595
208.10        18.41571
208.55       -12.27437
209.01       -32.07779
209.47       -13.38908
209.93        19.25081
210.39        46.24347
210.85        63.74699
211.31        71.84779
211.77        73.32281
212.23        69.61264
212.69        58.48585
213.14         37.1782
213.60       -1.990193
214.06       -112.2374
214.52       -368.5068
214.98       -156.6129
215.44       -23.43016
215.90        22.38549
216.36        37.65325
216.81        38.72627
217.27        27.43326
217.73       -31.87262
218.19        697.5925
218.65         323.759
219.11       -717.2305
219.57        -27.0453
220.02        17.23596
220.48        23.62177
220.94        16.36382
221.40       -7.250543
221.86       -60.34522
222.32       -85.76649
222.77         -28.399
223.23        16.65991
223.69        38.00695
224.15        44.16299
224.61        42.28703
225.06        36.02696
225.52          27.283
225.98        18.89737
226.44        12.42433
226.90        6.168828
227.36        2.914446
227.81        7.243224
228.27        15.70734
228.73         24.5656
229.19        30.25517
229.65        30.70543
230.10        26.70229
230.56        19.70955
231.02        10.97048
231.48         5.32657
231.93        6.266197
232.39        11.88042
232.85        18.26776
233.31        22.17133
233.77        23.79111
234.22        24.63742
234.68        24.80806
235.14        24.34471
235.60        23.67019
236.05        21.95703
236.51        19.68471
236.97        23.89522
237.43        35.13582
237.88        42.93054
238.34        43.52994
238.80        65.11928
239.26        57.63754
239.71        57.52243
240.17         52.4388
240.63         48.2385
241.08        48.80811
241.54         56.1898
242.00        68.21199
242.46        75.39808
242.91        75.53714
243.37        68.29368
243.83        56.64441
244.28        52.58716
244.74         61.8407
245.20        77.90688
245.66        91.93394
246.11        95.05905
246.57        86.84631
247.03        70.39153
247.48         48.7994
247.94        26.79369
248.40         2.68504
248.85       -42.93322
249.31       -161.8958
249.77       -212.5532
250.22       -17.36012
250.68        52.26707
251.14        72.92906
251.59        79.46169
252.05        81.47273
252.51        80.75016
252.96        75.92034
253.42        66.79948
253.88        56.30215
254.33        46.81001
254.79         44.7172
255.25        51.11421
255.70        60.23463
256.16        68.89439
256.62        74.20844
257.07        74.58363
257.53        72.26517
257.99        68.81026
258.44        65.50018
258.90        64.22192
259.35        64.13441
259.81        64.70765
260.27        65.12478
260.72        64.68898
261.18        63.81707
261.63         62.5674
262.09        61.27116
262.55        59.69751
263.00         57.8315
263.46        55.97361
263.91        54.19152
264.37        53.06255
264.83        52.50597
265.28        52.26987
265.74        52.21201
266.19        51.91268
266.65        51.36294
267.11        50.60963
267.56        49.68367
268.02        48.73969
268.47        47.76414
268.93         46.7427
269.38        45.64371
269.84        44.50216
270.30         43.3238
270.75         42.1436
271.21        41.00375
271.66        39.87804
272.12         38.8166
272.57        37.81578
273.03         36.9454
273.48        36.24701
273.94         35.7354
274.39        35.33545
274.85        34.99887
275.31         34.5816
275.76        34.03985
276.22        33.44807
276.67        32.82851
277.13        32.31005
277.58        31.86688
278.04        31.49121
278.49         31.1069
278.95        30.70071
279.40        30.22072
279.86        29.73335
280.31        29.20697
280.77        28.68651
281.22        28.15601
281.68        27.67365
282.13        27.23155
282.59         26.9057
283.04        26.66824
283.50        26.51031
283.95        26.41687
284.41        26.39847
284.86        26.43164
285.32        26.54126
285.77        26.62982
286.22        26.58001
286.68        26.40988
287.13        26.11763
287.59        25.91348
288.04        26.00717
288.50        26.39791
288.95         27.1049
289.41        27.94239
289.86        28.16627
290.32          27.664
290.77        28.36885
291.22        27.39275
291.68        27.48895
292.13        27.83362
292.59        28.44156
293.04        29.26068
293.50        30.27959
293.95         31.4799
294.40        32.84394
294.86        34.31078
295.31        35.76384
295.77        37.16917
296.22        38.52335
296.68        39.87584
297.13        41.30793
297.58        42.85794
298.04        44.50186
298.49         46.2196
298.95        47.99856
299.40        49.80457
299.85        51.65607
300.31        53.51709
300.76        55.29814
301.21        57.00213
301.67         58.6729
302.12          60.364
302.58        62.27932
303.03        64.40635
303.48        66.72519
303.94        69.12125
304.39        71.35275
304.84        73.37463
305.30        75.27333
305.75        77.09023
306.20        79.01282
306.66        81.07723
307.11         83.1515
307.57        85.20298
308.02        87.09798
308.47        88.83155
308.93        90.48347
309.38        92.00269
309.83        93.38934
310.29        94.69149
310.74        95.86647
311.19        97.00452
311.65        98.22256
312.10          99.521
312.55        100.8714
313.00        102.1861
313.46        103.3245
313.91        104.2311
314.36         104.957
314.82        105.5744
315.27        106.1867
315.72        106.8386
316.18        107.5009
316.63         108.143
317.08        108.7188
317.53        109.2114
317.99        109.6378
318.44        110.0177
318.89        110.3625
319.35        110.6739
319.80        110.9511
320.25        111.1903
320.70        111.3926
321.16        111.5553
321.61         111.711
322.06        111.8551
322.51        111.9857
322.97        112.0937
323.42        112.2171
323.87        112.3785
324.32        112.6346
324.78        112.9685
325.23        113.3962
325.68        113.8304
326.13        114.1634
326.59        114.3379
327.04        114.4366
327.49        114.4876
327.94        114.5844
328.39        114.7617
328.85        114.9657
329.30        115.2404
329.75        115.5122
330.20         115.765
330.66        115.9766
331.11        116.2343
331.56        116.5282
332.01        116.8661
332.46        117.2448
332.92        117.5869
333.37        117.9203
333.82        118.1956
334.27        118.4364
334.72        118.7158
335.17        119.1555
335.63        119.7448
336.08        120.4978
336.53        121.3064
336.98        122.0434
337.43        122.6575
337.88         123.175
338.34        123.5722
338.79        123.8964
339.24        124.1282
339.69        124.2892
340.14         124.446
340.59        124.7189
341.05        125.1338
341.50        125.6684
341.95        126.2601
342.40        126.7996
342.85        127.2435
343.30        127.6141
343.75        127.9112
344.20        128.1434
344.66        128.3331
345.11        128.4604
345.56        128.5603
346.01        128.6916
346.46        128.8786
346.91        129.0869
347.36        129.2819
347.81        129.4984
348.26        129.7383
348.72        129.6525
349.17        129.8732
349.62        129.9357
350.07        130.0339
350.52        130.1349
350.97        130.1936
351.42        130.1307
351.87        129.9223
352.32        129.5916
352.77        129.2032
353.22        128.8527
353.67        128.5595
354.13         128.319
354.58        128.0267
355.03        127.5702
355.48        126.9406
355.93        126.1927
356.38        125.4451
356.83        124.8725
357.28        124.4951
357.73        124.2347
358.18        123.9749
358.63        123.5359
359.08        122.8681
359.53        122.0376
359.98        121.0944
360.43        120.1085
360.88        119.1181
361.33        118.1124
361.78        117.1328
362.23        116.2488
362.68        115.4749
363.13        114.7983
363.58        114.1663
364.03        113.4853
364.48        112.7199
364.93        111.8814
365.38        110.9916
365.83        110.0957
366.28        109.2096
366.73         108.321
367.18        107.4172
367.63        106.4819
368.08         105.524
368.53        104.5709
368.98        103.6446
369.43        102.7602
369.88        101.9152
370.33        101.0947
370.78        100.3028
371.23        99.56292
371.68        98.88413
372.13        98.26345
372.58        97.67072
373.03        97.04643
373.48         96.3682
373.93        95.64478
374.38        94.90509
374.83        94.21057
375.28        93.58574
375.72        92.99905
376.17         92.4538
376.62        91.87007
377.07        91.21896
377.52        90.50294
377.97        89.76289
378.42        89.08649
378.87        88.51041
379.32        88.02602
379.77         87.5621
380.22        86.99691
380.67        86.29913
381.11        85.50169
381.56        84.69621
382.01        84.06573
382.46        83.66315
382.91         83.4389
383.36        83.25816
383.81        82.91119
384.26        82.35019
384.71        81.63741
385.15        80.89198
385.60        80.36457
386.05        80.07745
386.50         79.9551
386.95        79.85832
387.40        79.57905
387.85         79.0858
388.29        78.41788
388.74        77.79874
389.19        77.32989
389.64        77.02419
390.09        76.80854
390.54        76.61897
390.98        76.34716
391.43        76.02088
391.88        75.68097
392.33        75.33589
392.78        75.03469
393.23         74.7943
393.67        74.42823
394.12        74.08603
394.57         74.0994
395.02        74.32542
395.47         74.0715
395.91        73.39556
396.36        72.97401
396.81        72.86887
397.26        72.71687
397.71        72.47157
398.15         72.2207
398.60        72.03831
399.05        71.74536
399.50        71.43827
399.95        71.46387
400.39        71.72799
400.84        71.67503
401.29        71.27519
401.74         70.8475
402.18        70.47636
402.63         70.1445
403.08        69.87324
403.53        69.60999
403.97        69.36749
404.42        69.25995
404.87        69.24845
405.32        69.22957
405.76        69.16786
406.21        69.06622
406.66        68.92358
407.11        68.80947
407.55        68.70454
408.00        68.44464
408.45        68.07014
408.90        67.66406
409.34        67.32227
409.79        67.25525
410.24        67.39664
410.68        67.44259
411.13         67.3624
411.58        67.32553
412.03         67.3299
412.47        67.30385
412.92        67.22009
413.37        67.11173
413.81        66.99129
414.26        66.93101
414.71        66.92397
415.15        66.97158
415.60        67.01545
416.05        67.01506
416.49        66.95753
416.94        66.84316
417.39        66.71227
417.83        66.61824
418.28        66.57405
418.73        66.56138
419.17        66.53127
419.62        66.41723
420.07        66.21483
420.51        65.94954
420.96        65.71244
421.41        65.60474
421.85        65.61641
422.30        65.70747
422.74        65.80013
423.19        65.97262
423.64        66.15205
424.08        66.17879
424.53        66.00743
424.98        65.92371
425.42        65.97913
425.87        65.85025
426.31        65.62714
426.76        65.88163
427.21        66.45818
427.65        66.43681
428.10        65.86723
428.54        65.66444
428.99        65.88517
429.44        66.04242
429.88        66.05786
430.33        65.99417
430.77        65.82887
431.22        65.89125
431.66        66.10526
432.11        66.04243
432.56        65.77054
433.00        65.68517
433.45        65.64333
433.89        65.69497
434.34        65.89915
434.78        65.20038
435.23        64.82455
435.67        65.84228
436.12        65.63572
436.57        65.82912
437.01         65.5761
437.46        65.69917
437.90        66.23209
438.35        65.90526
438.79        66.34211
439.24        66.27899
439.68        66.19067
440.13        65.90729
440.57        65.57029
441.02        65.57963
441.46        65.88803
441.91        66.18395
442.35        66.31691
442.80        66.56076
443.24        66.81732
443.69          66.866
444.13        66.70545
444.58        66.44311
445.02        66.16242
445.47        66.17945
445.91        66.39718
446.36        66.38954
446.80        66.12185
447.24        65.79706
447.69        65.52541
448.13         65.5367
448.58        65.63043
449.02        65.68814
449.47        65.62462
449.91        65.59557
450.36        65.60488
450.80        65.45969
451.25        65.23226
451.69         65.1767
452.13        65.26157
452.58        65.14959
453.02        64.85188
453.47         64.6767
453.91        64.62521
454.36        64.53896
454.80        64.41105
455.24        64.32889
455.69        64.31209
456.13        64.27354
456.58         64.2171
457.02        64.27923
457.46        64.11122
457.91         64.0519
458.35        64.08846
458.79        64.03133
459.24        63.91373
459.68        63.81295
460.13        63.81741
460.57        63.67535
461.01        63.35532
461.46        63.71033
461.90        63.69453
462.34        63.07476
462.79        62.98704
463.23        62.89208
463.68        63.12128
464.12        62.84603
464.56         62.2445
465.01        62.45903
465.45         63.1927
465.89        63.32256
466.34        62.90432
466.78        62.62483
467.22        62.49489
467.67        62.74112
468.11        61.98771
468.55        61.99322
468.99        62.24687
469.44        62.24754
469.88        61.95505
470.32        61.64071
470.77        61.39435
471.21        61.22715
471.65        61.17055
472.10        61.18734
472.54        61.20558
472.98        61.29861
473.42         61.2331
473.87        61.15274
474.31        60.98269
474.75        61.02262
475.20        61.23184
475.64        60.86673
476.08        60.77513
476.52        60.62974
476.97        60.62836
477.41         60.8781
477.85        61.29562
478.29        60.73428
478.74         60.4112
479.18        60.43938
479.62        60.51128
480.06        60.60795
480.50        60.55327
480.95         60.6073
481.39        60.66108
481.83        60.90097
482.27        60.98336
482.72        60.64792
483.16        60.64716
483.60        60.80965
484.04        60.63957
484.48        60.41211
484.93        60.56768
485.37        60.48743
485.81        60.72176
486.25        60.42067
486.69        62.63105
487.14        62.47463
487.58        61.11519
488.02        60.49648
488.46        60.18553
488.90         60.1719
489.34        59.55225
489.79        59.38421
490.23         60.1565
490.67        60.41114
491.11         60.3103
491.55        60.00957
491.99        59.65233
492.43        59.43603
492.88        59.40935
493.32        59.48865
493.76        59.55293
494.20        59.57887
494.64        59.56789
495.08        59.14199
495.52        58.95506
495.96        59.02458
496.41        59.33206
496.85        59.31142
497.29        58.93982
497.73        58.94359
498.17        58.98447
498.61        59.04822
499.05         58.9822
499.49        58.68039
499.93        58.30181
500.37        58.36667
500.82        58.78802
501.26        59.04937
501.70        59.06774
502.14        58.73324
502.58        58.60889
503.02        58.48741
503.46        58.49006
503.90         58.5393
504.34        58.57629
504.78        58.58919
505.22         58.5664
505.66        58.48834
506.10        58.38263
506.54        58.37665
506.98        58.49117
507.42         58.3586
507.86        58.59365
508.30        58.53532
508.74        58.53533
509.18        58.43976
509.62        58.32018
510.06        58.22532
510.50         58.1477
510.94        58.01659
511.38        57.85011
511.82        57.74705
512.26        57.71669
512.70        57.69855
513.14        57.67953
513.58        57.69186
514.02        57.73516
514.46        57.65805
514.90        57.69448
515.34        57.64222
515.78        57.58502
516.22        57.47696
516.66        57.20424
517.10        57.44826
517.54        57.25662
517.98        57.36955
518.42        57.47297
518.86         57.5417
519.30        57.55842
519.74        57.50457
520.18         57.4319
520.62         57.4889
521.06        57.64346
521.50         57.6648
521.93        57.55118
522.37        57.48604
522.81        57.47633
523.25        57.41727
523.69        57.30867
524.13        57.20107
524.57        57.10275
525.01        57.00461
525.45        56.92814
525.89         56.9058
526.32        56.93867
526.76         57.0208
527.20        57.12069
527.64        57.18893
528.08        57.21018
528.52        57.19806
528.96        57.16911
529.40        57.14386
529.83        57.12931
530.27        57.14673
530.71        57.17474
531.15         57.1786
531.59        57.15236
532.03        57.10975
532.46         57.0678
532.90        57.05861
533.34        57.08115
533.78        57.14218
534.22        57.20317
534.66        57.16676
535.09        57.03624
535.53        56.93784
535.97         56.8843
536.41        56.83438
536.85        56.79795
537.28        56.81543
537.72          56.867
538.16        56.89753
538.60         56.8956
539.04        56.87511
539.47        56.84494
539.91        56.86627
540.35        56.92876
540.79        57.01723
541.22         57.0916
541.66        57.10355
542.10        57.03913
542.54        56.91666
542.97        56.77367
543.41        56.69643
543.85         56.6992
544.29        56.77191
544.72        56.85905
545.16        56.91312
545.60        56.90476
546.04        56.81181
546.47        56.70513
546.91        56.75081
547.35        56.92317
547.79        57.08993
548.22        57.14502
548.66        56.97701
549.10         56.6958
549.53        56.45267
549.97        56.68292
550.41        56.66806
550.84        56.53932
551.28        56.50024
551.72        56.54515
552.15        56.60909
552.59        56.69932
553.03        56.46427
553.46          56.731
553.90        56.48697
554.34        56.46236
554.77        56.51861
555.21        56.46461
555.65        56.28574
556.08        56.44225
556.52        56.47024
556.96        56.50822
557.39        56.57358
557.83        56.64732
558.27        56.58723
558.70        56.43433
559.14        56.36498
559.57        56.38268
560.01        56.50876
560.45        56.64753
560.88        56.54192
561.32        56.30593
561.75        56.20578
562.19        56.30696
562.63        56.55324
563.06         56.8167
563.50        56.77516
563.93        56.46006
564.37        56.25465
564.80        56.20514
565.24        56.27513
565.68        56.41085
566.11        56.45926
566.55        56.42327
566.98        56.43523
567.42        56.50922
567.85        56.49809
568.29        56.48009
568.72        56.57586
569.16        56.80465
569.60        57.08742
570.03         57.0482
570.47        57.24394
570.90         57.5447
571.34        57.23687
571.77        57.57364
572.21        57.43137
572.64        57.44669
573.08        57.38803
573.51        57.32731
573.95        57.72642
574.38         57.6145
574.82         57.9731
575.25        58.02706
575.69        57.71507
576.12        57.41412
576.56        57.59561
576.99        57.72697
577.42        57.81902
577.86        57.40267
578.29        58.28945
578.73        58.77047
579.16        58.16817
579.60        57.80307
580.03        57.92474
580.47        57.88476
580.90        57.83458
581.33        58.26515
581.77        58.15347
582.20        58.50367
582.64        59.01664
583.07        58.67505
583.51        58.16149
583.94        57.72146
584.37        57.53461
584.81        57.12855
585.24        57.29155
585.68        57.99132
586.11        58.04823
586.54        58.21861
586.98        57.83647
587.41        57.42461
587.85        57.96405
588.28        57.96342
588.71        57.86644
589.15         57.7637
589.58         57.3428
590.01        57.45731
590.45        56.98573
590.88         57.2687
591.31        56.84318
591.75        56.78015
592.18        56.72486
592.61        56.82082
593.05        57.53631
593.48        57.76401
593.91        57.60704
594.35        57.76591
594.78        57.57917
595.21        57.25488
595.65          57.118
596.08        57.15688
596.51        57.18092
596.94        57.04905
597.38        56.98202
597.81        56.95689
598.24        57.09206
598.68        57.10908
599.11        56.92893
599.54        57.32467
599.97        57.23676
600.41        57.32082
600.84        57.52768
601.27        57.26236
601.70        57.31231
602.14        56.90143
602.57        56.77091
603.00        57.07069
603.43        57.11039
603.87        57.45065
604.30        57.43707
604.73        57.21579
605.16        56.89969
605.60        56.93375
606.03        56.91199
606.46        56.98552
606.89        56.76955
607.32        56.43966
607.76        57.17527
608.19        56.94445
608.62        56.63573
609.05        57.34141
609.48        56.79344
609.92        56.94299
610.35        56.61409
610.78         56.9509
611.21        56.64783
611.64        56.74296
612.07        56.69466
612.50        56.74714
612.94        56.71148
613.37        56.57703
613.80        56.66745
614.23        56.68003
614.66        56.34933
615.09        56.57217
615.52        56.52333
615.96        56.48822
616.39        56.43897
616.82        56.38015
617.25        56.32813
617.68        56.24474
618.11        56.10977
618.54         56.0947
618.97        55.99881
619.40        55.85001
619.84         55.9658
620.27         55.8166
620.70        55.83545
621.13        55.84985
621.56        55.85141
621.99        55.86417
622.42        55.91291
622.85         55.9562
623.28         56.0072
623.71        56.17139
624.14         55.9048
624.57        56.31256
625.00        56.52566
625.43        56.07578
625.86        56.01739
626.29        56.19684
626.72        55.73999
627.15        55.93186
627.58        55.90595
628.01        56.06256
628.44        55.90438
628.87        55.69654
629.30        56.03694
629.73        55.77279
630.16        55.55674
630.59        55.52045
631.02        55.78025
631.45        55.64788
631.88        55.73194
632.31        55.81024
632.74        55.61117
633.17        55.70687
633.60        55.63596
634.03        55.57919
634.46        55.56788
634.89        55.51541
635.32         55.4935
635.75        55.47067
636.18        55.45855
636.61        55.45692
637.04          55.467
637.47        55.48802
637.89        55.51928
638.32        55.54898
638.75        55.58263
639.18        55.61761
639.61        55.65394
640.04        55.67699
640.47        55.66467
640.90        55.61533
641.33        55.53537
641.76        55.45562
642.18        55.43243
642.61        55.46433
643.04        55.54311
643.47        55.63087
643.90         55.6695
644.33        55.64363
644.76        55.55701
645.18         55.4484
645.61        55.40416
646.04        55.42864
646.47        55.44069
646.90        55.42612
647.33        55.42965
647.75        55.43644
648.18        55.41143
648.61         55.3963
649.04        55.43213
649.47        55.47618
649.89         55.7688
650.32        55.66362
650.75        55.59656
651.18        55.41623
651.61        55.29743
652.03        55.28769
652.46        55.21516
652.89        55.13718
653.32         55.3798
653.74        55.85772
654.17        55.78754
654.60        55.32029
655.03        55.14016
655.46        55.26452
655.88        55.76749
656.31        57.28908
656.74        62.60163
657.16        61.61543
657.59        59.60579
658.02        56.72585
658.45        55.88958
658.87        56.06355
659.30        55.73204
659.73        55.47689
660.15        55.12458
660.58        55.24676
661.01        55.62837
661.44        56.10689
661.86         55.9416
662.29        55.23122
662.72        54.96253
663.14        55.19708
663.57        55.30862
664.00        55.24595
664.42        55.25663
664.85        55.33386
665.27        55.27557
665.70        55.27393
666.13        55.25153
666.55        55.27325
666.98        55.30503
667.41        55.34337
667.83        55.39166
668.26        55.45424
668.69        55.48422
669.11        55.46443
669.54        55.55939
669.96        55.80885
670.39        55.43222
670.82        55.76546
671.24         55.7031
671.67        55.63934
672.09        55.62432
672.52        55.67035
672.94        55.60162
673.37        55.45319
673.80        55.45119
674.22        55.58805
674.65        55.63345
675.07        55.59032
675.50        55.56944
675.92        55.58014
676.35         55.5681
676.77        55.53349
677.20        55.51194
677.62        55.53487
678.05        55.55509
678.47        55.54601
678.90        55.84613
679.32        55.87997
679.75         55.9707
680.17         55.9138
680.60        56.20184
681.02        56.04917
681.45        56.00229
681.87        55.87245
682.30        55.77343
682.72        55.74667
683.15        55.77648
683.57        55.82959
684.00        55.97733
684.42        55.81764
684.85         55.8373
685.27        55.90609
685.70        55.93485
686.12        55.91401
686.54        55.91764
686.97        55.94331
687.39        55.99303
687.82        56.04472
688.24        56.03663
688.66        55.94443
689.09        56.01111
689.51        55.84671
689.94        55.87177
690.36        55.95671
690.78        56.03644
691.21        56.09556
691.63        56.10933
692.06        56.11118
692.48        56.19965
692.90        56.34633
693.33          56.402
693.75        56.36408
694.17        56.27131
694.60        56.13622
695.02        56.14887
695.44        56.06458
695.87        55.94819
696.29        55.79537
696.71        55.73529
697.14        55.80123
697.56        56.10448
697.98        56.53621
698.41        56.61993
698.83        56.67926
699.25        56.54734
699.68        56.37956
700.10        56.21956
700.52        56.10235
700.94         56.0114
701.37          55.943
701.79        55.94116
702.21        55.98557
702.64        56.07649
703.06        56.17482
703.48        56.21886
703.90        56.19956
704.33        56.13408
704.75        56.05011
705.17        55.97787
705.59        55.93442
706.01        55.90645
706.44        55.92363
706.86        56.04477
707.28        56.25388
707.70        56.53786
708.12        56.82047
708.55        56.95212
708.97        56.91374
709.39        56.80508
709.81        56.67314
710.23        56.55271
710.66        56.47948
711.08        56.48036
711.50        56.51426
711.92        56.51079
712.34        56.45723
712.76        56.37674
713.19        56.30252
713.61        56.32712
714.03         56.4409
714.45        56.62441
714.87        56.81732
715.29        56.89165
715.71        56.82037
716.13        56.78748
716.56         56.5703
716.98        56.51733
717.40         56.5657
717.82        56.68784
718.24        56.84061
718.66        56.95795
719.08        57.01752
719.50        57.03699
719.92         57.0293
720.34        57.01132
720.76        56.99337
721.19          56.965
721.61        56.94401
722.03        56.93499
722.45        56.94394
722.87         56.9742
723.29        57.03452
723.71        57.13518
724.13        57.27122
724.55        57.42986
724.97        57.59207
725.39        57.71561
725.81        57.78309
726.23         57.8257
726.65        57.84979
727.07        57.73269
727.49        57.71159
727.91        57.60002
728.33        57.48672
728.75        57.44078
729.17        57.45913
729.59        57.44269
730.01        57.41544
730.43        57.49756
730.85        57.68613
731.27        57.89746
731.69        58.07842
732.10        58.13992
732.52        58.22944
732.94        57.96772
733.36        57.53323
733.78        57.32698
734.20         57.4146
734.62        57.60812
735.04         57.8059
735.46        57.91531
735.88        57.89603
736.30        57.77674
736.72        57.62006
737.13        57.55382
737.55        57.56635
737.97        57.62085
738.39           57.69
738.81        57.71719
739.23        57.71186
739.65         57.8019
740.06        57.91638
740.48        57.93975
740.90        57.83714
741.32        57.68377
741.74        57.54256
742.16        57.49033
742.57        57.56229
742.99        57.72198
743.41        57.90248
743.83        57.97641
744.25        57.91508
744.67        57.75073
745.08        57.57747
745.50        57.51575
745.92        57.61142
746.34        57.82336
746.75        58.05714
747.17        58.15915
747.59        58.09459
748.01        57.88136
748.42        57.63066
748.84        57.54691
749.26        57.63831
749.68        57.79491
750.09        57.92762
750.51        57.84093
750.93        57.60084
751.35        57.59423
751.76        57.80089
752.18        57.84962
752.60        57.72921
753.01        57.67639
753.43        57.67772
753.85        57.64921
754.27        57.59249
754.68         57.5326
755.10        57.49098
755.52        57.47712
755.93         57.4979
756.35        57.55288
756.77          57.631
757.18        57.72548
757.60        57.82326
758.02        57.89122
758.43        57.96212
758.85        58.04771
759.26         58.2982
759.68        58.46815
760.10        57.94411
760.51        57.66148
760.93        58.13613
761.34        58.02428
761.76        58.04226
762.18        58.10277
762.59        58.27708
763.01        58.36245
763.42        57.65231
763.84        57.74149
764.26        57.98702
764.67         58.4331
765.09        58.81143
765.50        58.93175
765.92        58.80725
766.33         58.6899
766.75        58.60438
767.16         58.3317
767.58        57.91962
768.00        58.01545
768.41        58.55648
768.83        58.48161
769.24        57.84911
769.66          58.296
770.07        58.65088
770.49        58.76606
770.90        58.36779
771.32        58.22951
771.73        58.38599
772.15        58.41822
772.56        58.34583
772.97        58.37642
773.39        58.46366
773.80         58.4948
774.22        58.42734
774.63        58.31971
775.05        58.19526
775.46        58.13691
775.88        58.14467
776.29        58.21198
776.70        58.29167
777.12        58.32011
777.53        58.29967
777.95        58.25207
778.36        58.20152
778.77         58.1792
779.19        58.19156
779.60        58.22791
780.02        58.30149
780.43        58.41862
780.84        58.56399
781.26        58.81524
781.67        59.12709
782.09        59.09943
782.50        58.83072
782.91         58.9502
783.33        59.36933
783.74        59.47344
784.15        59.19359
784.57        58.91803
784.98        58.75377
785.39        58.68727
785.81        58.74847
786.22        58.93259
786.63          59.167
787.04        59.33595
787.46        59.41507
787.87        59.40958
788.28        59.36127
788.70        59.33129
789.11        59.32017
789.52        59.31659
789.93        59.31547
790.35        59.30381
790.76        59.29178
791.17         59.2944
791.58        59.31325
792.00        59.32293
792.41        59.34728
792.82        59.40117
793.23        59.51673
793.65        59.62474
794.06        59.74818
794.47        60.09846
794.88        60.59932
795.29        60.50018
795.71        60.69734
796.12         60.5379
796.53        60.34324
796.94        60.24637
797.35        60.25141
797.76        60.15054
798.18        59.94716
798.59         59.8289
799.00        59.80088
799.41        59.77374
799.82        59.72117
800.23        59.64619
800.64        59.54369
801.06        59.39154
801.47        59.27007
801.88        59.24211
802.29        59.32514
802.70        59.50371
803.11        59.71365
803.52        59.84164
803.93        59.85481
804.34        59.77908
804.75        59.69388
805.17        59.70676
805.58        59.86493
805.99        60.16138
806.40        60.49959
806.81        60.60263
807.22        60.47987
807.63        60.43568
808.04        60.51022
808.45        60.53027
808.86        60.50326
809.27        60.55624
809.68        60.65432
810.09        60.66208
810.50        60.56333
810.91        60.40861
811.32        60.24242
811.73        60.13413
812.14        60.10334
812.55        60.11851
812.96        60.16489
813.37        60.21788
813.78        60.26318
814.19        60.31798
814.60        60.34712
815.01        60.29367
815.42        60.15713
815.83        59.94755
816.24        59.76094
816.65         59.7766
817.05        60.03856
817.46        60.46204
817.87        60.93027
818.28        61.22893
818.69        61.31277
819.10        61.24581
819.51        61.12006
819.92        61.10736
820.33        61.25703
820.74        61.48228
821.14        61.73647
821.55        61.99739
821.96        62.21475
822.37        62.36699
822.78         62.3983
823.19        62.25215
823.60        61.92485
824.00        61.43237
824.41        60.88266
824.82        60.53575
825.23        60.46358
825.64         60.6213
826.04        60.90399
826.45        61.09153
826.86        61.13626
827.27        61.09402
827.68        61.04682
828.08        61.15906
828.49        61.39526
828.90        61.72879
829.31        62.08689
829.72        62.25955
830.12        62.20373
830.53        62.39271
830.94        62.04079
831.35        61.79098
831.75        61.45222
832.16        61.03366
832.57        60.66994
832.97        60.57977
833.38        60.79934
833.79        61.25533
834.20        61.79313
834.60        62.17464
835.01        62.33364
835.42        62.33067
835.82        62.24588
836.23        62.18397
836.64        62.20248
837.04        62.27008
837.45        62.34608
837.86        62.42588
838.26        62.51109
838.67        62.60537
839.08        62.70587
839.48        62.78581
839.89        62.83126
840.29        62.83703
840.70        62.83334
841.11        62.87016
841.51        62.96698
841.92        63.07863
842.33        63.15717
842.73        63.11979
843.14        62.91646
843.54        62.61959
843.95        62.30867
844.35        62.12954
844.76        62.11676
845.17        62.23181
845.57        62.44374
845.98        62.66496
846.38        62.88133
846.79        63.08329
847.19        63.26997
847.60        63.36763
848.00        63.39666
848.41        63.33259
848.81        63.25235
849.22        63.23269
849.62        63.33047
850.03        63.48877
850.43        63.68145
850.84        63.75957
851.24        63.74031
851.65        63.60231
852.05        63.45388
852.46        63.39661
852.86        63.46038
853.27        63.64491
853.67        63.79749
854.07        63.83766
854.48        63.72378
854.88         63.5113
855.29        63.26457
855.69        63.25582
856.10        63.45699
856.50        63.86519
856.90         64.2821
857.31        64.42074
857.71        64.26204
858.12        63.85566
858.52        63.33344
858.92        62.86589
859.33        62.51752
859.73        62.27665
860.13        62.16849
860.54        62.22869
860.94        62.49436
861.34        62.92234
861.75        63.33546
862.15         63.5018
862.55        63.33109
862.96        62.87617
863.36        62.32673
863.76        61.95787
864.17        61.85112
864.57        61.95469
864.97        62.14536
865.38        62.19555
865.78        62.07348
866.18        61.84748
866.58        61.62614
866.99        61.56884
867.39        61.75632
867.79        62.10755
868.19        62.51039
868.60        62.71347
869.00         62.7477
869.40        62.87548
869.80        63.04896
870.21        62.95081
870.61        62.61924
871.01        62.22171
871.41        61.84113
871.81        61.50467
872.22        61.26316
872.62         61.1126
873.02         61.0864
873.42        61.42128
873.82        61.89713
874.22        61.92797
874.63        61.70697
875.03        61.65589
875.43        61.80763
875.83        62.95559
876.23        62.24431
876.63        61.37841
877.03        60.09761
877.44        57.75669
877.84        175.3849
878.24        58.74126
878.64        59.52917
879.04        61.12855
879.44        61.65115
879.84        58.03526
880.24        63.53587
880.64        63.79499
881.04        61.24424
881.44        59.29381
881.84         58.5562
882.24         59.1706
882.65         60.4262
883.05        60.72585
883.45        59.76497
883.85        58.49652
884.25        57.50508
884.65        57.26598
885.05        57.91716
885.45        59.19564
885.85        60.54311
886.25        61.18601
886.65        60.95975
887.05        60.11194
887.45        59.02292
887.85        58.33472
888.25         58.2639
888.65         58.6201
889.04        59.20201
889.44        59.68301
889.84        59.92712
890.24         60.0322
890.64         60.0704
891.04        60.13638
891.44        60.25711
891.84        60.38799
892.24        60.44593
892.64        60.31841
893.04        60.00193
893.44        59.56211
893.83         59.1784
894.23        59.07181
894.63         59.2989
895.03        59.79967
895.43        60.39356
895.83        60.77432
896.23        60.85597
896.63        60.70789
897.02        60.49094
897.42        60.50706
897.82        60.77932
898.22        61.20512
898.62         61.5903
899.01        61.63409
899.41        61.25966
899.81        60.60966
900.21        59.87811
900.61        59.37374
901.00          59.184
901.40        59.28045
901.80         59.6007
902.20        59.88404
902.59        60.04407
902.99        60.44889
903.39        61.16568
903.79         60.4895
904.18        61.28473
904.58        61.20277
904.98        61.09368
905.38        60.89279
905.77        60.61204
906.17        60.29922
906.57        59.93559
906.96        59.59356
907.36        59.30479
907.76        59.08482
908.15        59.01669
908.55        59.09037
908.95        59.34005
909.34        59.69596
909.74        60.12211
910.14        60.51629
910.53        60.83194
910.93         61.0765
911.33        61.17131
911.72        61.00151
912.12        60.58423
912.52        59.96957
912.91        59.33986
913.31         59.0668
913.70        59.19954
914.10        59.64017
914.49        60.20193
914.89        60.47631
915.29        60.37302
915.68        59.99269
916.08        59.51859
916.47        59.19298
916.87        59.12551
917.26        59.24068
917.66         59.4453
918.05        59.61197
918.45         59.6804
918.84        59.69814
919.24         59.7384
919.64        59.97178
920.03         60.4104
920.42        60.95146
920.82        61.40716
921.21        61.50587
921.61        61.22953
922.00        60.75666
922.40        60.32278
922.79        60.15008
923.19        59.90077
923.58        60.46808
923.98        62.22118
924.37         62.3469
924.77         59.2742
925.16        68.31406
925.55        61.66407
925.95        62.16636
926.34        61.95144
926.74        60.89166
927.13        59.03659
927.52        57.86903
927.92        58.02422
928.31        58.70311
928.70        59.71361
929.10        60.69722
929.49        61.53924
929.89        62.36724
930.28        62.95815
930.67        62.82244
931.07        61.93237
931.46        60.31498
931.85        58.58419
932.24        58.30504
932.64         59.7517
933.03        61.77038
933.42        63.24454
933.82        66.24114
934.21        64.67346
934.60        63.32649
934.99        61.85487
935.39        61.47264
935.78        62.26338
936.17        64.57983
936.56        71.58215
936.96        63.96471
937.35        67.95914
937.74        64.13272
938.13        61.29364
938.53        59.19231
938.92        58.71439
939.31        60.34553
939.70        62.46174
940.09        63.39085
940.49        62.78833
940.88        61.23594
941.27        59.37765
941.66        58.43981
942.05        58.85303
942.44        60.09573
942.84        61.56542
943.23        62.55609
943.62        62.83296
944.01        62.62128
944.40        62.17287
944.79        61.88742
945.18        61.89631
945.57        62.06121
945.97        62.13767
946.36        61.88037
946.75         61.1982
947.14        60.21223
947.53        59.24133
947.92        58.80267
948.31         59.0263
948.70        59.75402
949.09         60.5995
949.48        60.96335
949.87        60.72059
950.26        60.06463
950.65        59.32935
951.04        59.06903
951.43        59.43088
951.82        60.20824
952.21        61.15976
952.60        61.87673
952.99        62.18547
953.38        62.20537
953.77         62.0051
954.16         61.6656
954.55        61.26139
954.94        60.80825
955.33        60.36665
955.72        60.07588
956.11        59.99274
956.50        60.06036
956.89        60.37508
957.28        61.05384
957.66        62.07279
958.05        63.29622
958.44        64.32137
958.83        64.54709
959.22        63.87262
959.61        62.40951
960.00        60.70551
960.39        59.85599
960.78        60.18925
961.16         61.4102
961.55        62.74989
961.94        63.25434
962.33        62.73614
962.72        61.46517
963.11        59.94065
963.49        59.19332
963.88        59.57477
964.27        60.68983
964.66         61.9826
965.04        62.72094
965.43        62.67892
965.82        62.15588
966.21        61.39056
966.60        60.79082
966.98        60.52818
967.37        60.45226
967.76        60.53863
968.15         60.7626
968.53        61.10123
968.92        61.57659
969.31        62.06133
969.69        62.31273
970.08        62.24561
970.47        61.87853
970.86        61.42759
971.24        61.29717
971.63        61.55912
972.02        62.10599
972.40        62.64355
972.79        62.63086
973.17        62.04199
973.56        61.06228
973.95        60.06954
974.33        59.73204
974.72        60.22371
975.11        61.27018
975.49        62.62829
975.88        63.82096
976.26        64.72052
976.65        65.39496
977.04        65.73335
977.42        65.53105
977.81         64.7674
978.19        63.41436
978.58        62.13064
978.96        62.08124
979.35        63.44601
979.74         65.7177
980.12        68.00319
980.51        69.02335
980.89        68.71993
981.28        67.34139
981.66        65.32503
982.05        63.86137
982.43        63.47812
982.82        63.93756
983.20        64.82945
983.59        65.46454
983.97        65.67936
984.35        65.64763
984.74        65.54967
985.12        65.72915
985.51         66.2168
985.89        66.92039
986.28         67.5172
986.66        67.65826
987.04         67.3434
987.43        66.57844
987.81        65.48039
988.20        65.90384
988.58        68.16142
988.96        69.05909
989.35        67.56452
989.73         73.9174
990.12        69.95702
990.50        69.65739
990.88        68.40849
991.27        67.32942
991.65         66.5442
992.03        66.13087
992.42        66.14526
992.80        65.98341
993.18        65.54021
993.56         65.0415
993.95        64.60966
994.33        64.36331
994.71        64.36353
995.10        64.52559
995.48        64.81625
995.86        65.20092
996.24        65.63515
996.63        66.02595
997.01        66.45458
997.39        66.85556
997.77        67.17716
998.15        67.39723
998.54        67.49773
998.92        67.34131
999.30        66.97772
999.68        66.52467
1000.06        66.04763
1000.45        65.64606
1000.83        65.51509
1001.21        65.60281
1001.59        66.14222
1001.97        67.44412
1002.35        69.34083
1002.73        71.51928
1003.12        73.44076
1003.50        74.50575
1003.88        74.61674
1004.26        73.95224
1004.64        72.74085
1005.02        71.52966
1005.40        70.60693
1005.78        69.87043
1006.16        69.34048
1006.54        68.96135
1006.92          68.729
1007.30        68.82831
1007.69         69.0629
1008.07        69.18215
1008.45        69.12267
1008.83        68.86903
1009.21        68.85751
1009.59        69.93858
1009.97        72.04016
1010.35        74.51391
1010.73        76.61178
1011.11        77.84003
1011.49        78.31801
1011.86        77.97301
1012.24        76.70343
1012.62        77.68185
1013.00        78.18088
1013.38        77.87881
1013.76        75.43552
1014.14        79.75612
1014.52        86.23065
1014.90        79.28099
1015.28        81.19813
1015.66        82.97153
1016.04        79.84409
1016.41        79.91882
1016.79        78.72038
1017.17        77.83528
1017.55        76.78979
1017.93        75.75231
1018.31         75.3562
1018.69        76.04091
1019.06        77.84418
1019.44        80.44952
1019.82        82.77759
1020.20        83.40972
1020.58        82.05384
1020.95         78.6001
1021.33         74.0229
1021.71         71.7476
1022.09        73.46144
1022.46        77.59544
1022.84        81.62897
1023.22        83.63342
1023.60        83.69082
1023.97         82.4994
1024.35        80.83255
1024.73        80.19935
