SpectraSmart Spectrum 2.9.0.0
--------- Device Information -----------
Spectrum Name :  反射率_0
Saving Time :  2024/04/21 00:36:47
Spectro-Module Model Name : SE2030-DUVN
Spectro-Module Serial Number : OS361AC55029948
Wavelength Start : 200
Wavelength End : 1025
Wavelength Unit : Wavelength(nm)
Spectrum Unit : Reflectance(%)
-----------Spectrum Setting ------------
Integration Time : 20ms
Average : 10
Boxcar : 0
Background removal :  enabled
linearity correction :  enabled
SC :  disabled
Intensity correction :  disabled
DWT denoise :  enabled
savitzky-golay :  disabled
FFT :  disabled
Running average :  disabled
Kalman :  disabled
High pass :  disabled
---------------BEGIN--------------------
Wavelength(nm)             Reflectance(%)
200.29               0
200.75       -4.001407
201.21         19.3953
201.67        30.59367
202.13        32.11448
202.58        27.05467
203.04        16.78159
203.50        4.541015
203.96     -0.03867691
204.42        6.605116
204.88        20.12403
205.34        32.97916
205.80         34.6239
206.26        21.99715
206.72       -2.593542
207.18       -36.14307
207.64       -66.90251
208.10       -82.95185
208.55       -87.45871
209.01       -67.75663
209.47       -22.07546
209.93          18.573
210.39         46.2264
210.85        61.25961
211.31        64.59016
211.77        58.26237
212.23        40.38031
212.69        3.449846
213.14       -59.76756
213.60       -159.8121
214.06       -406.0416
214.52       -866.1337
214.98       -337.4841
215.44        -77.5828
215.90        2.231622
216.36        27.21857
216.81        29.77047
217.27        14.74246
217.73       -66.47076
218.19        920.3322
218.65        395.8431
219.11       -834.0616
219.57       -26.21971
220.02        25.44478
220.48        35.23641
220.94        31.85454
221.40        15.46747
221.86       -24.68394
222.32       -49.96336
222.77       -12.83733
223.23        18.63631
223.69        34.14421
224.15         38.9572
224.61        38.13615
225.06        34.78946
225.52        29.64953
225.98        23.37982
226.44        16.82624
226.90        8.808619
227.36        3.509759
227.81        8.275979
228.27        19.21488
228.73        30.60096
229.19        37.95578
229.65        39.02922
230.10        34.75618
230.56        26.56004
231.02        15.73508
231.48        8.069719
231.93        7.942828
232.39         13.3607
232.85        19.77442
233.31        23.17334
233.77         23.6672
234.22        22.95949
234.68        21.63817
235.14        20.71201
235.60         20.9103
236.05        21.06377
236.51        20.94608
236.97        26.03942
237.43         36.3139
237.88        41.98756
238.34        39.18621
238.80        59.95725
239.26        48.64474
239.71        46.35288
240.17        38.01712
240.63        29.28121
241.08         23.8598
241.54        25.25222
242.00        34.31966
242.46        41.17224
242.91        43.68489
243.37        43.43966
243.83        41.43171
244.28        41.32756
244.74        44.46959
245.20        47.23807
245.66        48.24493
246.11        46.69649
246.57        42.49073
247.03        37.12793
247.48        28.90464
247.94        13.61349
248.40       -16.69539
248.85       -96.50618
249.31       -348.2916
249.77          -545.7
250.22       -156.7406
250.68        3.653019
251.14        54.37439
251.59        67.83107
252.05        65.95517
252.51        53.82129
252.96        31.76673
253.42        10.74944
253.88        3.258693
254.33        6.713706
254.79        18.27239
255.25        32.16919
255.70        43.67667
256.16         52.4987
256.62        58.08252
257.07        60.19707
257.53        60.38462
257.99        59.42927
258.44        57.75216
258.90        56.38823
259.35        55.00106
259.81        53.84332
260.27        52.81159
260.72        51.90895
261.18        51.38695
261.63        50.92264
262.09          50.511
262.55         49.7656
263.00        48.62514
263.46        47.38474
263.91        46.10572
264.37        45.26812
264.83        44.80445
265.28        44.52216
265.74        44.27178
266.19        43.66649
266.65        42.72493
267.11        41.52527
267.56        40.22219
268.02         39.1388
268.47        38.29657
268.93        37.62901
269.38        36.97161
269.84        36.13155
270.30        35.06332
270.75        33.86533
271.21        32.68326
271.66        31.66784
272.12        30.89226
272.57        30.27509
273.03        29.79231
273.48        29.37387
273.94        29.00181
274.39        28.66096
274.85        28.32846
275.31        27.90263
275.76        27.36997
276.22        26.79182
276.67        26.22739
277.13        25.84005
277.58        25.60905
278.04        25.49567
278.49        25.38866
278.95         25.2043
279.40        24.88141
279.86        24.49375
280.31        24.03242
280.77        23.56155
281.22        23.08157
281.68        22.64249
282.13        22.23829
282.59        21.93429
283.04        21.71125
283.50        21.56124
283.95        21.49006
284.41        21.52773
284.86        21.64928
285.32        21.85383
285.77        22.02164
286.22         21.9947
286.68        21.78255
287.13        21.40694
287.59        21.07805
288.04         21.0118
288.50        21.21599
288.95        21.72875
289.41         22.4046
289.86        22.53391
290.32        21.99183
290.77        22.82483
291.22        21.84298
291.68        21.89817
292.13        22.07594
292.59        22.42219
293.04        22.91156
293.50        23.58025
293.95        24.43514
294.40        25.44358
294.86        26.56078
295.31          27.697
295.77        28.82161
296.22        29.93697
296.68        31.06117
297.13        32.22404
297.58        33.45325
298.04        34.74175
298.49        36.10729
298.95        37.59691
299.40        39.19127
299.85        40.87942
300.31        42.59274
300.76        44.20602
301.21        45.69946
301.67        47.11938
302.12        48.52669
302.58        50.11294
303.03        51.88605
303.48        53.84593
303.94        55.88476
304.39        57.78401
304.84        59.51309
305.30        61.15023
305.75        62.80485
306.20        64.74064
306.66        66.98225
307.11        69.37489
307.57        71.74686
308.02        73.78249
308.47        75.43922
308.93        76.85098
309.38        78.11753
309.83        79.44196
310.29        80.95855
310.74        82.51857
311.19        84.07198
311.65        85.49684
312.10        86.74364
312.55        87.86478
313.00        88.90735
313.46        89.94227
313.91        90.96941
314.36        91.96425
314.82        92.90082
315.27        93.73777
315.72        94.47825
316.18        95.14959
316.63        95.76876
317.08        96.36227
317.53        96.93744
317.99        97.47697
318.44        97.99442
318.89        98.49807
319.35        98.98206
319.80        99.45345
320.25        99.87184
320.70        100.1758
321.16        100.3515
321.61        100.4379
322.06        100.4971
322.51        100.6386
322.97        100.8762
323.42         101.214
323.87        101.5825
324.32        101.8807
324.78        102.0592
325.23        102.1843
325.68        102.2808
326.13        102.4186
326.59        102.5973
327.04        102.8501
327.49        103.1281
327.94        103.3865
328.39        103.6139
328.85        103.7948
329.30        104.0263
329.75        104.3375
330.20        104.7356
330.66        105.1604
331.11        105.6182
331.56        105.9876
332.01        106.2447
332.46        106.4198
332.92        106.5149
333.37        106.6776
333.82        106.9032
334.27        107.1841
334.72        107.5292
335.17        107.9498
335.63        108.4097
336.08        108.9583
336.53        109.5492
336.98        110.1492
337.43        110.7338
337.88        111.2959
338.34        111.7757
338.79        112.1444
339.24        112.3771
339.69        112.4963
340.14          112.58
340.59        112.7545
341.05         113.059
341.50         113.479
341.95        113.9609
342.40        114.4115
342.85        114.8007
343.30        115.1508
343.75        115.4902
344.20        115.8704
344.66        116.3015
345.11        116.7278
345.56        117.1121
346.01         117.402
346.46        117.5917
346.91         117.698
347.36        117.7242
347.81        117.7294
348.26        117.7445
348.72        117.5668
349.17        117.6137
349.62        117.6948
350.07        117.9318
350.52        118.2789
350.97        118.6249
351.42        118.7799
351.87        118.6848
352.32        118.3824
352.77        117.9707
353.22        117.6059
353.67        117.3276
354.13        117.1117
354.58        116.8466
355.03        116.4096
355.48        115.7881
355.93        115.0449
356.38        114.3055
356.83        113.7482
357.28        113.3965
357.73        113.1771
358.18        112.9618
358.63         112.551
359.08        111.8969
359.53        111.0735
359.98         110.166
360.43        109.2989
360.88        108.5138
361.33        107.7722
361.78        107.0674
362.23        106.3932
362.68        105.7407
363.13        105.1196
363.58        104.4986
364.03        103.8196
364.48        103.0678
364.93         102.252
365.38        101.4061
365.83        100.5939
366.28        99.83234
366.73        99.10034
367.18        98.37675
367.63        97.62801
368.08        96.84782
368.53        96.05972
368.98        95.25987
369.43         94.4279
369.88        93.56017
370.33        92.65572
370.78        91.75774
371.23        90.95883
371.68        90.29086
372.13        89.73465
372.58        89.23898
373.03        88.70572
373.48        88.10064
373.93        87.44932
374.38        86.77623
374.83        86.13374
375.28        85.54741
375.72        84.98362
376.17        84.46867
376.62        83.97221
377.07        83.47166
377.52        82.95911
377.97        82.42564
378.42        81.87112
378.87        81.31289
379.32        80.77027
379.77        80.23669
380.22        79.68678
380.67         79.1087
381.11         78.5049
381.56        77.91431
382.01        77.42579
382.46         77.0661
382.91         76.8188
383.36        76.59393
383.81        76.25004
384.26        75.75718
384.71        75.15119
385.15        74.52989
385.60        74.10949
386.05        73.90227
386.50        73.84782
386.95        73.80499
387.40        73.55939
387.85        73.08149
388.29        72.41321
388.74        71.79053
389.19        71.34967
389.64        71.10645
390.09        70.98097
390.54        70.87675
390.98        70.62574
391.43        70.23741
391.88        69.78519
392.33        69.32449
392.78        68.89616
393.23        68.59705
393.67        68.26412
394.12         68.0124
394.57        67.90894
395.02        67.89362
395.47        67.74492
395.91        67.45897
396.36        67.19238
396.81        66.97484
397.26        66.73643
397.71        66.46194
398.15        66.17657
398.60         65.9605
399.05        65.63451
399.50        65.32149
399.95        65.41396
400.39         65.7849
400.84        65.88787
401.29        65.65443
401.74         65.1245
402.18        64.51426
402.63         64.4712
403.08        64.86958
403.53         64.7892
403.97        64.18519
404.42        63.65498
404.87        63.32175
405.32        63.16039
405.76        63.19526
406.21        63.34569
406.66        63.50362
407.11         63.7126
407.55        63.84298
408.00        63.42472
408.45        62.61771
408.90        62.11491
409.34        62.02966
409.79         62.0933
410.24         62.1821
410.68         62.1844
411.13        62.05736
411.58        61.86236
412.03         61.6673
412.47         61.5822
412.92        61.61248
413.37        61.72499
413.81        61.84211
414.26        61.90224
414.71        61.86936
415.15        61.78743
415.60        61.65639
416.05        61.53042
416.49        61.43536
416.94        61.34724
417.39        61.28013
417.83        61.24871
418.28        61.25119
418.73        61.28014
419.17        61.30175
419.62        61.26966
420.07          61.177
420.51        61.03676
420.96        60.90011
421.41        60.81753
421.85        60.78284
422.30         60.7711
422.74        60.75694
423.19         60.9149
423.64        61.16745
424.08        61.25373
424.53        61.13648
424.98        61.12669
425.42        61.25438
425.87        61.30437
426.31         61.2803
426.76        61.32164
427.21        61.40311
427.65        61.40518
428.10         61.3273
428.54        61.29383
428.99        61.34747
429.44        61.45567
429.88        61.53617
430.33        61.50312
430.77        61.34011
431.22        61.24849
431.66        61.24321
432.11        61.38128
432.56        61.61927
433.00        61.61982
433.45        61.22604
433.89        61.06734
434.34        61.21328
434.78        60.78246
435.23        59.89091
435.67        61.10466
436.12        61.65236
436.57        61.95004
437.01        61.28288
437.46        60.99467
437.90         61.8112
438.35        61.36098
438.79         61.5992
439.24        61.43255
439.68        61.40815
440.13         61.3965
440.57        61.40285
441.02        61.51423
441.46        61.68097
441.91        61.72386
442.35        61.64188
442.80         62.0052
443.24         62.6233
443.69        62.65783
444.13        62.15451
444.58        61.85283
445.02        61.84423
445.47        62.05367
445.91        62.36386
446.36         62.5197
446.80        62.47429
447.24         62.3509
447.69         62.2263
448.13        62.31685
448.58        62.41173
449.02        62.34335
449.47        62.08746
449.91        61.94422
450.36        61.94644
450.80        61.85292
451.25        61.70771
451.69        61.72909
452.13        61.87041
452.58        61.81159
453.02        61.56646
453.47        61.43172
453.91        61.40142
454.36        61.32899
454.80        61.21416
455.24        61.02633
455.69        60.75775
456.13        60.62154
456.58        60.71641
457.02        60.09237
457.46        60.15794
457.91        60.32771
458.35        60.20966
458.79        60.26716
459.24        60.25964
459.68        60.28923
460.13        60.35811
460.57        60.17712
461.01        59.74037
461.46        59.97091
461.90        59.33554
462.34        59.16404
462.79         59.2762
463.23        58.94751
463.68         59.2747
464.12        59.15773
464.56        58.97826
465.01        59.17707
465.45        59.55339
465.89        59.54679
466.34        59.20731
466.78        58.87111
467.22        58.61633
467.67        58.69067
468.11        58.45155
468.55        58.38226
468.99        58.26412
469.44        58.13288
469.88        57.97651
470.32        57.75391
470.77        57.51763
471.21        57.36904
471.65        57.32672
472.10        57.35704
472.54        57.40957
472.98         57.4361
473.42        57.43134
473.87        57.38012
474.31        57.26325
474.75        57.27612
475.20        57.40226
475.64        57.10051
476.08         57.0632
476.52        56.93548
476.97        56.88665
477.41        57.00689
477.85        57.22132
478.29        56.91577
478.74         56.3984
479.18        56.59133
479.62        56.67976
480.06        56.87887
480.50         56.9301
480.95        57.09316
481.39        57.24107
481.83        57.41706
482.27        57.53376
482.72        56.85131
483.16        56.92493
483.60        56.74426
484.04        56.87035
484.48        56.69287
484.93        56.84007
485.37        56.69891
485.81        57.40742
486.25        56.69764
486.69        58.89831
487.14        58.91993
487.58        57.70602
488.02        57.42511
488.46        56.70076
488.90        56.64183
489.34        56.19585
489.79        55.60052
490.23        55.89413
490.67        56.11793
491.11        56.50096
491.55        56.48201
491.99        56.13569
492.43        56.02991
492.88        56.18443
493.32        56.26999
493.76         56.2048
494.20        56.15586
494.64        56.15062
495.08        55.76254
495.52        55.66092
495.96        55.68769
496.41        55.93394
496.85        55.89421
497.29        55.57924
497.73        55.64575
498.17        55.76395
498.61        55.84845
499.05        55.75373
499.49        55.52875
499.93         55.2962
500.37         55.2807
500.82        55.43866
501.26        55.67906
501.70        55.86972
502.14        55.38669
502.58        54.83301
503.02        54.57693
503.46        54.77679
503.90        54.82505
504.34        55.08801
504.78        55.19981
505.22        55.27067
505.66        55.23075
506.10        55.13031
506.54        55.12004
506.98        55.21878
507.42        54.83368
507.86        55.45408
508.30        54.65252
508.74        55.05028
509.18        54.84638
509.62        54.71532
510.06        54.63967
510.50        54.61137
510.94        54.54652
511.38        54.44411
511.82        54.42595
512.26        54.48854
512.70        54.57545
513.14        54.64424
513.58        54.64413
514.02        54.56212
514.46        54.41666
514.90        54.23335
515.34        54.10501
515.78        54.06185
516.22        54.02702
516.66        53.85263
517.10        54.19552
517.54        54.01514
517.98        54.12198
518.42        54.19502
518.86        54.23269
519.30        54.22573
519.74        54.15114
520.18        54.05573
520.62        54.07564
521.06        54.18193
521.50        54.16233
521.93        54.02736
522.37        53.96469
522.81         53.9837
523.25        53.98211
523.69        53.94101
524.13        53.87938
524.57        53.79854
525.01        53.69527
525.45        53.61085
525.89        53.61078
526.32        53.70138
526.76        53.86414
527.20        54.04038
527.64        54.13826
528.08         54.1344
528.52        54.05776
528.96        53.95293
529.40        53.88406
529.83        53.86823
530.27        53.91042
530.71        53.97247
531.15        53.99236
531.59        53.95841
532.03        53.89817
532.46        53.83334
532.90        53.80767
533.34        53.82518
533.78        53.86699
534.22        53.91126
534.66        53.92689
535.09        53.89759
535.53        53.85331
535.97        53.78979
536.41        53.71453
536.85        53.63456
537.28        53.54849
537.72        53.47272
538.16        53.43594
538.60        53.44142
539.04        53.47915
539.47        53.50716
539.91        53.53056
540.35        53.53511
540.79        53.48398
541.22        53.37486
541.66        53.48363
542.10        53.39175
542.54         53.4174
542.97        53.43919
543.41         53.5022
543.85        53.59727
544.29        53.73205
544.72        53.84245
545.16        53.86644
545.60        53.78641
546.04        53.55888
546.47        53.30154
546.91        53.33733
547.35        53.62111
547.79        53.81789
548.22        53.83598
548.66        53.75303
549.10        53.61022
549.53        53.49813
549.97        53.45668
550.41        53.41637
550.84        53.39968
551.28        53.45946
551.72        53.54862
552.15        53.64051
552.59        53.74961
553.03        53.46429
553.46        53.56189
553.90        53.46473
554.34        53.40149
554.77        53.33941
555.21        53.30777
555.65        53.32995
556.08        53.39231
556.52         53.4903
556.96        53.58049
557.39        53.65434
557.83        53.68659
558.27        53.56522
558.70        53.35314
559.14         53.2511
559.57        53.27251
560.01         53.3996
560.45        53.54364
560.88        53.50728
561.32        53.35941
561.75        53.27026
562.19        53.31763
562.63        53.44722
563.06        53.57867
563.50        53.61887
563.93        53.57901
564.37        53.23983
564.80        53.30951
565.24        53.32389
565.68        53.45158
566.11        53.51408
566.55        53.51875
566.98        53.58512
567.42        53.71259
567.85        53.71814
568.29         53.6699
568.72        53.76495
569.16        54.01699
569.60        54.08115
570.03        54.20317
570.47        54.24442
570.90        54.25758
571.34        54.43683
571.77        54.63156
572.21         54.6784
572.64        54.89582
573.08        54.90202
573.51        54.65789
573.95         54.6904
574.38        55.03132
574.82        55.72226
575.25        55.22102
575.69        55.04505
576.12        54.54741
576.56        54.65944
576.99        55.09526
577.42        54.97235
577.86        55.26495
578.29        55.93108
578.73        56.25521
579.16        55.79327
579.60        55.13787
580.03        55.04184
580.47        55.07581
580.90        55.13344
581.33        55.48605
581.77        55.62196
582.20        56.35578
582.64        56.39717
583.07        55.87622
583.51        55.42544
583.94        54.94155
584.37        54.62008
584.81        54.27993
585.24        54.45872
585.68        55.23966
586.11        55.21981
586.54        55.19219
586.98        54.93389
587.41        54.80701
587.85          55.001
588.28        55.18848
588.71        55.48785
589.15         54.9935
589.58        54.75422
590.01        54.30188
590.45        54.38917
590.88        54.58477
591.31        54.21744
591.75        53.88114
592.18        53.80073
592.61        54.17943
593.05        54.54549
593.48        54.67562
593.91        55.03996
594.35        54.96453
594.78        55.03847
595.21        54.45611
595.65        54.36816
596.08        54.53844
596.51        54.67447
596.94        54.36228
597.38        54.24963
597.81        54.24788
598.24        54.26101
598.68        54.15154
599.11        54.21033
599.54        54.43602
599.97        54.96605
600.41        54.45511
600.84        54.78086
601.27        54.77331
601.70        54.76509
602.14        54.41619
602.57        54.28143
603.00        54.40547
603.43        54.50671
603.87        54.59332
604.30        54.51274
604.73         54.7446
605.16        54.08852
605.60        54.30325
606.03        54.30252
606.46        54.62713
606.89        54.02589
607.32         54.1263
607.76        54.58628
608.19        54.35315
608.62        54.24016
609.05        54.87075
609.48        54.21916
609.92         54.1395
610.35        54.02192
610.78         54.1862
611.21        54.14692
611.64        54.04566
612.07        53.98048
612.50        53.99902
612.94        53.97734
613.37        53.92792
613.80        53.92254
614.23          53.944
614.66        53.82845
615.09          53.637
615.52        53.69818
615.96        53.95552
616.39        54.01574
616.82        53.84624
617.25         53.7914
617.68        53.59317
618.11        53.55264
618.54        53.70592
618.97        53.63943
619.40        53.38387
619.84        53.41638
620.27        53.27411
620.70        53.36678
621.13         53.4883
621.56        53.47887
621.99        53.35045
622.42        53.35443
622.85        53.46966
623.28        53.55357
623.71        53.23514
624.14        53.50995
624.57        53.53391
625.00        53.67915
625.43         53.4507
625.86        53.44578
626.29        53.60035
626.72        53.34749
627.15        53.33305
627.58        53.22515
628.01        53.27863
628.44        52.97558
628.87        52.95687
629.30        53.22109
629.73         53.1486
630.16         53.0581
630.59        52.98932
631.02        53.21241
631.45        53.02954
631.88        53.05077
632.31        53.06953
632.74        52.82915
633.17        52.87375
633.60         52.7574
634.03        52.65411
634.46         52.6139
634.89        52.56404
635.32        52.55085
635.75         52.5581
636.18        52.66061
636.61        52.82088
637.04        52.91507
637.47        52.92454
637.89        52.90878
638.32          52.879
638.75        52.85064
639.18        52.83318
639.61        52.85732
640.04        52.84999
640.47         52.8415
640.90        52.80953
641.33        52.76244
641.76        52.71603
642.18        52.70102
642.61        52.71159
643.04         52.7452
643.47        52.77926
643.90        52.78304
644.33        52.75002
644.76        52.67573
645.18         52.5919
645.61        52.57694
646.04        52.62944
646.47        52.66311
646.90        52.66692
647.33        52.70307
647.75        52.76141
648.18        52.77627
648.61        52.77588
649.04        52.86221
649.47        52.96801
649.89        53.13927
650.32        52.82306
650.75        52.77761
651.18         52.8229
651.61        52.75801
652.03        52.63754
652.46        52.52316
652.89         52.4612
653.32         52.7412
653.74        53.27348
654.17        52.84308
654.60        52.39671
655.03        52.15309
655.46        52.48341
655.88        53.51287
656.31         55.1357
656.74        60.74768
657.16        59.76779
657.59        58.17797
658.02        55.04991
658.45        53.79907
658.87        53.10366
659.30        53.12115
659.73        52.87831
660.15        52.74554
660.58        52.89996
661.01        53.05577
661.44        53.21831
661.86          53.184
662.29        52.96962
662.72        52.83624
663.14        52.82011
663.57        52.77585
664.00        52.71518
664.42        52.72507
664.85        52.81017
665.27        52.83232
665.70        52.94162
666.13        52.99132
666.55        53.02599
666.98        53.02952
667.41        53.00587
667.83        52.97635
668.26        52.95644
668.69        52.89423
669.11        52.79389
669.54        52.85155
669.96         53.1129
670.39        52.81697
670.82        53.20771
671.24        53.21498
671.67        53.19116
672.09        53.11631
672.52        53.04348
672.94        52.97632
673.37        52.93478
673.80        52.95239
674.22        53.01952
674.65        53.04866
675.07        53.04494
675.50        53.03562
675.92        53.03463
676.35        53.03524
676.77        53.03673
677.20        53.05875
677.62        53.11469
678.05         53.1311
678.47        53.08983
678.90        53.33102
679.32        53.25394
679.75        53.33226
680.17          53.385
680.60         53.4268
681.02         53.4511
681.45        53.46139
681.87        53.46686
682.30        53.43649
682.72        53.39927
683.15        53.40939
683.57        53.42522
684.00        53.48205
684.42        53.19189
684.85        53.15214
685.27        53.24168
685.70        53.34791
686.12        53.42302
686.54        53.47857
686.97        53.49681
687.39        53.49657
687.82        53.48827
688.24        53.46442
688.66        53.41468
689.09        53.55131
689.51        53.46906
689.94        53.52282
690.36        53.57492
690.78        53.57058
691.21        53.52982
691.63        53.49009
692.06        53.49845
692.48        53.63074
692.90        53.82702
693.33        53.89394
693.75        53.81941
694.17        53.65831
694.60        53.46086
695.02        53.47688
695.44        53.49638
695.87        53.51662
696.29         53.4837
696.71        53.55825
697.14        53.77005
697.56        53.78104
697.98        54.31418
698.41        54.22847
698.83        54.28202
699.25        54.11018
699.68        53.92768
700.10        53.77461
700.52        53.67564
700.94         53.6208
701.37        53.59164
701.79        53.60801
702.21        53.64633
702.64        53.71739
703.06         53.7887
703.48        53.81115
703.90        53.78051
704.33        53.70396
704.75        53.62715
705.17        53.61053
705.59        53.66998
706.01        53.78286
706.44        53.92256
706.86        54.05818
707.28        54.16076
707.70        54.23848
708.12        54.29324
708.55        54.31932
708.97        54.31216
709.39        54.27979
709.81        54.22863
710.23        54.17627
710.66        54.13618
711.08        54.12275
711.50        54.12393
711.92        54.13142
712.34         54.1428
712.76        54.15353
713.19        54.17333
713.61        54.25835
714.03         54.3868
714.45         54.5531
714.87        54.70486
715.29        54.72605
715.71        54.59675
716.13        54.49162
716.56        54.21076
716.98        54.11228
717.40        54.14279
717.82        54.27524
718.24        54.44936
718.66        54.56692
719.08        54.59976
719.50        54.57513
719.92        54.52985
720.34        54.51997
720.76        54.56144
721.19        54.62583
721.61         54.7038
722.03        54.75832
722.45        54.78049
722.87        54.78441
723.29        54.78925
723.71        54.82286
724.13        54.89264
724.55        54.98674
724.97        55.08868
725.39        55.17409
725.81        55.23274
726.23         55.2671
726.65        55.28481
727.07        55.30443
727.49        55.33262
727.91        55.35205
728.33        55.35379
728.75        55.36494
729.17        55.36972
729.59        55.28397
730.01        55.16116
730.43        55.17282
730.85          55.334
731.27         55.5392
731.69        55.73631
732.10        55.84898
732.52        56.00756
732.94        55.82992
733.36        55.45946
733.78        55.27111
734.20        55.32732
734.62        55.40533
735.04        55.44597
735.46        55.63841
735.88        55.65188
736.30        55.70682
736.72        55.71359
737.13        55.81536
737.55        55.93729
737.97         55.8014
738.39        55.49655
738.81        55.48677
739.23        55.75252
739.65         55.8526
740.06        55.72335
740.48        55.67368
740.90        55.67315
741.32        55.57058
741.74        55.42137
742.16        55.40542
742.57        55.55577
742.99        55.79581
743.41        56.05027
743.83        56.18499
744.25        56.16459
744.67        56.02732
745.08        55.85108
745.50        55.72737
745.92        55.70616
746.34        55.76677
746.75        55.85509
747.17        55.87858
747.59        55.81797
748.01        55.67427
748.42        55.53637
748.84        55.56341
749.26        55.74525
749.68        55.99498
750.09        56.20681
750.51        56.13517
750.93        55.85495
751.35        55.80465
751.76         55.9854
752.18        56.01941
752.60        55.90304
753.01        55.89651
753.43        55.94999
753.85        55.90159
754.27        55.74263
754.68        55.52449
755.10        55.32892
755.52        55.25762
755.93        55.33424
756.35        55.53265
756.77        55.78728
757.18        55.94952
757.60        55.96998
758.02        55.95538
758.43        56.01376
758.85          55.781
759.26        56.15063
759.68        56.37886
760.10        56.04948
760.51        55.76534
760.93        56.02895
761.34        56.09661
761.76        56.14619
762.18        56.19764
762.59        56.21063
763.01        56.32591
763.42        55.84686
763.84        56.02492
764.26        56.19061
764.67        56.62946
765.09        57.04955
765.50         57.0797
765.92        56.79266
766.33        56.62437
766.75        56.62811
767.16        56.58132
767.58        56.44347
768.00        56.59076
768.41        56.95144
768.83        56.77328
769.24        56.13139
769.66        56.40729
770.07         56.4583
770.49        56.54607
770.90        56.34329
771.32         56.2337
771.73        56.25198
772.15        56.27593
772.56         56.3252
772.97        56.42537
773.39        56.52214
773.80        56.58124
774.22        56.55993
774.63         56.4911
775.05        56.38288
775.46        56.29581
775.88        56.23167
776.29        56.19783
776.70        56.17894
777.12        56.16669
777.53        56.16891
777.95        56.17435
778.36        56.19065
778.77        56.22587
779.19        56.28811
779.60        56.38575
780.02        56.47751
780.43        56.58294
780.84        56.71051
781.26        56.63995
781.67        56.48362
782.09        56.87486
782.50        57.57619
782.91         57.4845
783.33        56.70707
783.74        56.46038
784.15        56.80867
784.57        57.07914
784.98        57.18858
785.39         57.2734
785.81        57.30555
786.22        57.24811
786.63        57.16472
787.04        57.15931
787.46        57.26204
787.87        57.42556
788.28        57.59319
788.70          57.661
789.11        57.59399
789.52        57.44638
789.93        57.28637
790.35        57.20953
790.76         57.2534
791.17        57.38828
791.58        57.56849
792.00        57.68861
792.41        57.74293
792.82        57.79599
793.23        57.88609
793.65        57.89712
794.06        57.89082
794.47        58.20236
794.88        58.74276
795.29        58.64891
795.71        58.78402
796.12        58.59645
796.53        58.39476
796.94        58.26867
797.35        58.21827
797.76        58.03699
798.18         57.7613
798.59         57.6429
799.00        57.69763
799.41        57.80991
799.82         57.9144
800.23         57.9547
800.64        57.90545
801.06        57.75755
801.47        57.61386
801.88        57.58104
802.29         57.6878
802.70        57.89981
803.11        58.14194
803.52        58.28473
803.93        58.29411
804.34        58.20898
804.75        58.10041
805.17         58.0895
805.58        58.23029
805.99        58.42261
806.40         58.6137
806.81        58.81611
807.22        58.94961
807.63        58.82562
808.04         58.5243
808.45        58.38377
808.86        58.45103
809.27        58.54505
809.68        58.63193
810.09        58.72237
810.50        58.79494
810.91        58.86012
811.32        58.88313
811.73        58.80313
812.14        58.61777
812.55        58.33929
812.96         58.0694
813.37        57.98409
813.78        58.11941
814.19         58.4239
814.60        58.75998
815.01        58.91074
815.42        58.82692
815.83        58.56973
816.24        58.25275
816.65        58.09241
817.05        58.16845
817.46         58.3876
817.87        58.68433
818.28        58.92549
818.69        59.07208
819.10         59.1676
819.51        59.23875
819.92        59.32613
820.33        59.43669
820.74        59.53169
821.14        59.59892
821.55        59.65206
821.96        59.67802
822.37        59.68666
822.78        59.64471
823.19        59.49291
823.60        59.22808
824.00        58.88234
824.41        58.51984
824.82        58.29926
825.23        58.26406
825.64        58.39385
826.04        58.60096
826.45        58.70177
826.86         58.6652
827.27        58.53091
827.68        58.41064
828.08        58.52069
828.49        58.83464
828.90        59.32116
829.31        59.84324
829.72        60.07384
830.12        59.94928
830.53        60.00803
830.94        59.49411
831.35        59.23163
831.75        59.04996
832.16        58.90904
832.57        58.87706
832.97        59.06263
833.38        59.45062
833.79        59.98703
834.20        60.51579
834.60        60.80197
835.01        60.78812
835.42        60.53028
835.82        60.14182
836.23        59.79251
836.64        59.57384
837.04        59.46999
837.45        59.42103
837.86        59.37479
838.26        59.32404
838.67         59.2798
839.08        59.30053
839.48        59.45511
839.89        59.73517
840.29        60.09823
840.70        60.44395
841.11        60.60822
841.51        60.56782
841.92        60.34501
842.33         60.0514
842.73        59.87674
843.14        59.84063
843.54        59.91911
843.95        60.06799
844.35        60.22738
844.76        60.36367
845.17        60.51065
845.57        60.65277
845.98        60.72831
846.38        60.75458
846.79        60.70529
847.19        60.67082
847.60        60.73426
848.00         60.9404
848.41        61.23464
848.81        61.55017
849.22        61.70725
849.62        61.69362
850.03        61.52255
850.43        61.31704
850.84        61.16901
851.24        61.15881
851.65        61.20061
852.05         61.2958
852.46        61.35497
852.86        61.35416
853.27        61.37362
853.67         61.3483
854.07        61.30996
854.48        61.23862
854.88        61.12957
855.29        61.02419
855.69        61.15017
856.10         61.4555
856.50        61.96613
856.90        62.42529
857.31        62.44414
857.71         61.9978
858.12        61.15939
858.52        60.23056
858.92        59.67828
859.33        59.63272
859.73        60.00006
860.13         60.5752
860.54         61.0023
860.94         61.2108
861.34        61.26324
861.75        61.18151
862.15        61.07553
862.55        60.95591
862.96        60.76621
863.36        60.55956
863.76        60.39102
864.17        60.28003
864.57        60.26455
864.97        60.29198
865.38        60.24331
865.78        60.12399
866.18        59.94371
866.58         59.8198
866.99        59.93074
867.39        60.33049
867.79        60.93441
868.19        61.52381
868.60        61.69427
869.00        61.46534
869.40        61.13966
869.80         60.8172
870.21        60.47073
870.61        60.22087
871.01        60.13956
871.41        60.14048
871.81        59.99376
872.22        59.68761
872.62        59.31104
873.02        58.92999
873.42         58.8625
873.82        58.94996
874.22        58.54226
874.63        57.97146
875.03        57.91959
875.43        58.44024
875.83        60.29813
876.23        60.20848
876.63        59.69031
877.03        58.38115
877.44        55.68109
877.84        179.7915
878.24        56.10072
878.64        56.96708
879.04        58.83266
879.44        59.65457
879.84        56.22004
880.24        62.30993
880.64        62.97406
881.04        60.72799
881.44        58.87177
881.84        57.94272
882.24        58.11149
882.65        58.86547
883.05        58.86469
883.45        57.86021
883.85         56.7983
884.25        56.08417
884.65         55.8665
885.05        56.22544
885.45        57.00375
885.85        57.89277
886.25        58.48298
886.65        58.66345
887.05        58.55708
887.45        58.25375
887.85        57.91433
888.25        57.62876
888.65        57.34861
889.04        57.17047
889.44        57.26726
889.84        57.63726
890.24        58.21514
890.64        58.82053
891.04        59.18307
891.44        59.23663
891.84        59.04771
892.24        58.70071
892.64        58.35506
893.04        58.09211
893.44        57.90094
893.83        57.79468
894.23        57.74687
894.63        57.77616
895.03        57.91279
895.43        58.18718
895.83         58.6291
896.23        59.19534
896.63        59.79348
897.02        60.33516
897.42        60.76817
897.82        61.03848
898.22        61.16835
898.62        61.08128
899.01        60.67543
899.41        59.95127
899.81        58.97654
900.21        57.98624
900.61        57.35472
901.00         57.1699
901.40        57.42988
901.80        57.91047
902.20        58.06765
902.59        57.77214
902.99        57.47979
903.39        57.56004
903.79        56.62409
904.18          57.902
904.58        58.65852
904.98        59.47195
905.38        59.74023
905.77        59.36623
906.17        58.56459
906.57        57.60418
906.96        57.02731
907.36        56.99168
907.76        57.35779
908.15        57.98656
908.55         58.5016
908.95        58.81645
909.34        58.97807
909.74        59.09212
910.14        59.27481
910.53        59.55137
910.93        59.85673
911.33        60.03488
911.72        59.86192
912.12        59.32676
912.52        58.52552
912.91        57.71381
913.31         57.3626
913.70         57.5446
914.10        58.13721
914.49        58.86459
914.89        59.17348
915.29        58.94424
915.68        58.32286
916.08         57.6208
916.47        57.28246
916.87        57.45249
917.26        57.98021
917.66         58.6279
918.05        59.03794
918.45        59.08828
918.84        58.89746
919.24        58.64192
919.64        58.66259
920.03        59.02875
920.42        59.58743
920.82        60.10447
921.21        60.23633
921.61        59.94055
922.00        59.42563
922.40        58.95184
922.79        58.76519
923.19         58.5235
923.58        59.14977
923.98        61.00093
924.37        61.13765
924.77        57.94519
925.16        67.25807
925.55        60.40888
925.95        61.09046
926.34        61.16616
926.74        60.44444
927.13        58.93598
927.52         58.0408
927.92        58.33393
928.31        59.06019
928.70        59.96322
929.10        60.58774
929.49        60.84233
929.89        60.89171
930.28        60.74863
930.67        60.33973
931.07        59.73438
931.46         58.8312
931.85        57.94863
932.24        58.13418
932.64        59.50967
933.03        61.09021
933.42        61.94679
933.82        64.57294
934.21        62.70943
934.60           61.27
934.99         59.8354
935.39        59.57601
935.78        60.51831
936.17        63.05024
936.56        70.46562
936.96        62.74218
937.35        67.07769
937.74        63.39036
938.13        60.65779
938.53        58.42241
938.92        57.54535
939.31        58.62842
939.70        60.26266
940.09        61.02095
940.49        60.57758
940.88        59.45259
941.27        58.16075
941.66        57.64302
942.05        58.21354
942.44        59.43982
942.84        60.78426
943.23        61.64459
943.62        61.83102
944.01        61.52051
944.40        61.03108
944.79        60.88297
945.18        61.21568
945.57        61.86494
945.97        62.43175
946.36        62.41928
946.75        61.68314
947.14        60.40168
947.53        59.05449
947.92         58.4506
948.31        58.79292
948.70        59.82074
949.09        60.98947
949.48        61.45829
949.87        61.03993
950.26        60.01446
950.65        58.81376
951.04        58.14214
951.43        58.21712
951.82        58.81311
952.21        59.67385
952.60        60.36243
952.99        60.69722
953.38        60.80357
953.77        60.78202
954.16        60.76761
954.55        60.81433
954.94         60.8778
955.33        60.89616
955.72        60.79234
956.11        60.56087
956.50         60.2379
956.89        59.98919
957.28        60.05407
957.66        60.49516
958.05        61.16306
958.44        61.80465
958.83        62.02544
959.22        61.73845
959.61         61.0222
960.00        60.14981
960.39        59.66447
960.78        59.74038
961.16        60.25505
961.55         60.8053
961.94        60.93816
962.33        60.56769
962.72        59.83698
963.11        59.03136
963.49        58.73206
963.88        59.11839
964.27        59.93971
964.66         60.8581
965.04         61.4483
965.43        61.54392
965.82        61.31991
966.21        60.86574
966.60        60.34822
966.98        59.86298
967.37          59.359
967.76         58.9111
968.15         58.6405
968.53        58.59733
968.92        58.78892
969.31        59.10113
969.69        59.30145
970.08        59.30928
970.47        59.15361
970.86        59.03625
971.24        59.32118
971.63        60.02361
972.02        60.97361
972.40         61.8446
972.79        62.07983
973.17        61.64172
973.56        60.72327
973.95        59.63518
974.33        58.93898
974.72        58.83115
975.11        59.11766
975.49        59.76481
975.88        60.61791
976.26        61.63269
976.65        62.79057
977.04        63.79349
977.42        64.16167
977.81        63.78146
978.19          62.656
978.58         61.4982
978.96        61.56902
979.35         63.0712
979.74         65.4744
980.12        67.77681
980.51         68.5631
980.89        67.76728
981.28        65.64401
981.66        62.88079
982.05        61.24551
982.43         61.4351
982.82        63.01954
983.20        65.05189
983.59        66.04862
983.97        65.67859
984.35        64.35459
984.74        62.64986
985.12        61.63551
985.51        61.62855
985.89        62.34136
986.28        63.26634
986.66        63.79588
987.04        63.83307
987.43        63.47135
987.81        62.78738
988.20        63.63313
988.58        66.26567
988.96        67.30442
989.35        65.72842
989.73        72.47034
990.12        68.38474
990.50        68.16718
990.88        66.98948
991.27        66.07278
991.65        65.54561
992.03        65.51865
992.42        65.86792
992.80        65.65258
993.18        64.71635
993.56        63.37769
993.95        62.12888
994.33        61.69545
994.71        62.25622
995.10        63.51529
995.48        65.01982
995.86        66.04051
996.24        66.33358
996.63        66.03131
997.01         65.4812
997.39        65.03767
997.77        64.82217
998.15        64.72476
998.54        64.68491
998.92         64.4971
999.30        64.18312
999.68        63.89861
1000.06        63.77209
1000.45        63.96004
1000.83        64.58334
1001.21        65.46832
1001.59        66.58418
1001.97        67.91735
1002.35        69.31435
1002.73        70.65511
1003.12        71.67287
1003.50        72.09659
1003.88        71.91358
1004.26        71.24792
1004.64          70.297
1005.02        69.52284
1005.40        69.13316
1005.78        68.98582
1006.16        69.10535
1006.54        69.44763
1006.92        69.95164
1007.30        70.74333
1007.69        71.36375
1008.07        71.21913
1008.45        70.21542
1008.83         68.4073
1009.21        66.72005
1009.59         67.0472
1009.97        69.61909
1010.35        73.40388
1010.73        76.91124
1011.11        78.82275
1011.49        79.12807
1011.86        77.91039
1012.24         75.4333
1012.62        76.02052
1013.00        77.04483
1013.38        77.81137
1013.76        76.45581
1014.14        80.57341
1014.52        86.01904
1014.90        76.81658
1015.28        76.59028
1015.66        77.60659
1016.04        74.01582
1016.41        75.94134
1016.79        76.89217
1017.17        77.69965
1017.55         77.4974
1017.93        76.77089
1018.31        76.11449
1018.69        75.98862
1019.06        76.60477
1019.44        77.67097
1019.82        78.57477
1020.20        78.46055
1020.58        77.13494
1020.95        74.56836
1021.33        71.46418
1021.71        69.98179
1022.09        71.20531
1022.46         74.0501
1022.84        76.96488
1023.22         78.9266
1023.60        79.98993
1023.97         80.5841
1024.35        80.84409
1024.73        80.92111
