SpectraSmart Spectrum 2.9.0.0
--------- Device Information -----------
Spectrum Name :  反射率_0
Saving Time :  2024/04/21 00:47:07
Spectro-Module Model Name : SE2030-DUVN
Spectro-Module Serial Number : OS361AC55029948
Wavelength Start : 200
Wavelength End : 1025
Wavelength Unit : Wavelength(nm)
Spectrum Unit : Reflectance(%)
-----------Spectrum Setting ------------
Integration Time : 20ms
Average : 10
Boxcar : 0
Background removal :  enabled
linearity correction :  enabled
SC :  disabled
Intensity correction :  disabled
DWT denoise :  enabled
savitzky-golay :  disabled
FFT :  disabled
Running average :  disabled
Kalman :  disabled
High pass :  disabled
---------------BEGIN--------------------
Wavelength(nm)             Reflectance(%)
200.29               0
200.75       -64.62772
201.21       -35.25034
201.67       -19.81962
202.13        -13.3166
202.58       -11.40393
203.04       -11.63366
203.50       -11.66324
203.96       -7.203708
204.42        1.710469
204.88        11.43415
205.34        19.63009
205.80        23.60178
206.26        23.02311
206.72        20.57834
207.18        11.83805
207.64       -11.35871
208.10       -46.80716
208.55       -90.10617
209.01       -107.7604
209.47       -67.15123
209.93       -11.30812
210.39         33.1412
210.85        60.73288
211.31        71.13339
211.77        68.44772
212.23        53.07607
212.69        18.95551
213.14       -37.30214
213.60       -119.7459
214.06        -313.687
214.52       -656.4065
214.98       -234.9446
215.44       -38.81216
215.90        20.34175
216.36        37.63264
216.81        35.90305
217.27        15.64456
217.73        -83.0704
218.19        1114.218
218.65        493.0696
219.11       -1148.185
219.57       -63.35504
220.02        6.713895
220.48        19.46886
220.94         13.5774
221.40       -11.33863
221.86       -71.22021
222.32       -107.6318
222.77       -50.87872
223.23       -3.391488
223.69        20.21072
224.15        28.32609
224.61        28.53638
225.06        25.32762
225.52        19.55205
225.98        11.87025
226.44        3.307452
226.90       -7.560962
227.36       -15.17022
227.81       -9.486444
228.27         4.58502
228.73         19.4325
229.19        29.17531
229.65        30.95183
230.10        26.06328
230.56        16.34299
231.02        3.486353
231.48       -5.238193
231.93       -4.605419
232.39        2.497798
232.85        10.76362
233.31        15.73191
233.77        17.56055
234.22         18.2599
234.68        18.01603
235.14        16.95333
235.60        15.61084
236.05        12.92556
236.51        9.517788
236.97        13.61889
237.43        25.97786
237.88        34.55889
238.34        34.80809
238.80        59.00266
239.26        48.49882
239.71        45.91388
240.17        36.03841
240.63        25.60538
241.08         19.4366
241.54        21.15048
242.00        31.03759
242.46        37.38197
242.91        37.18001
243.37        32.03231
243.83         24.1772
244.28        21.85118
244.74        28.84902
245.20        38.97701
245.66        46.92123
246.11         48.2216
246.57        42.49178
247.03        31.91888
247.48        16.59969
247.94       -4.485614
248.40       -38.39824
248.85       -120.7348
249.31       -377.1525
249.77       -598.3196
250.22       -211.6569
250.68       -44.96566
251.14        9.913711
251.59        26.22581
252.05        27.27833
252.51        19.71758
252.96        4.768813
253.42       -7.387593
253.88       -7.293648
254.33        1.217442
254.79        15.50554
255.25        30.99144
255.70        43.51997
256.16        52.83812
256.62        58.64666
257.07        60.91482
257.53         61.2776
257.99        60.53073
258.44        59.17731
258.90        58.33396
259.35        57.53491
259.81        56.90804
260.27        56.18871
260.72        55.21458
261.18        54.33468
261.63        53.37891
262.09        52.45002
262.55        51.21096
263.00        49.62815
263.46        48.00069
263.91        46.42435
264.37        45.44596
264.83        44.97926
265.28        44.76551
265.74        44.62623
266.19        44.13519
266.65        43.28868
267.11         42.1853
267.56        40.89743
268.02        39.62439
268.47        38.39738
268.93        37.20411
269.38        36.06718
269.84        35.08475
270.30        34.25853
270.75        33.58413
271.21        33.00499
271.66        32.35405
272.12        31.62252
272.57        30.82477
273.03        30.06021
273.48        29.44484
273.94        29.00829
274.39        28.66635
274.85        28.34733
275.31        27.88227
275.76        27.24709
276.22        26.55289
276.67         25.8772
277.13        25.39644
277.58        25.10135
278.04        24.94182
278.49        24.83027
278.95        24.71936
279.40        24.53945
279.86        24.33932
280.31        24.05576
280.77        23.67398
281.22        23.18184
281.68        22.65878
282.13        22.14274
282.59        21.76253
283.04         21.5193
283.50        21.39147
283.95         21.3673
284.41        21.45076
284.86        21.60696
285.32        21.83674
285.77        22.03812
286.22        22.07772
286.68        21.96327
287.13        21.70653
287.59        21.47173
288.04        21.40607
288.50        21.51608
288.95        21.87197
289.41        22.40117
289.86        22.49953
290.32        22.06162
290.77        23.09382
291.22        22.35565
291.68        22.60046
292.13        22.89254
292.59        23.30237
293.04        23.83597
293.50        24.57774
293.95        25.54941
294.40        26.70572
294.86          27.978
295.31         29.2412
295.77        30.45948
296.22        31.64781
296.68        32.86426
297.13        34.19646
297.58        35.68087
298.04        37.28946
298.49        38.98082
298.95        40.71194
299.40        42.43818
299.85        44.16938
300.31        45.90089
300.76        47.60123
301.21        49.27671
301.67        50.95965
302.12        52.63669
302.58         54.3945
303.03        56.22601
303.48        58.16356
303.94        60.21298
304.39        62.32459
304.84        64.47855
305.30        66.67559
305.75        68.85309
306.20        71.03085
306.66        73.19286
307.11        75.26817
307.57        77.24087
308.02        79.01472
308.47        80.61119
308.93        82.10806
309.38        83.50992
309.83          84.885
310.29        86.31689
310.74        87.71455
311.19        89.11709
311.65        90.54425
312.10        91.96215
312.55        93.36026
313.00        94.65702
313.46        95.72631
313.91        96.53169
314.36         97.1296
314.82        97.61681
315.27        98.13942
315.72        98.75568
316.18        99.43249
316.63        100.1441
317.08        100.8436
317.53        101.5048
317.99        102.1415
318.44        102.7332
318.89         103.229
319.35        103.6178
319.80        103.9081
320.25        104.1413
320.70        104.3994
321.16        104.6936
321.61        105.0227
322.06        105.3377
322.51        105.5638
322.97        105.6744
323.42        105.7384
323.87        105.7937
324.32          105.92
324.78        106.1228
325.23        106.4117
325.68        106.7443
326.13         107.084
326.59        107.3817
327.04        107.6944
327.49        107.9796
327.94        108.2026
328.39        108.3631
328.85        108.4472
329.30        108.5456
329.75        108.6791
330.20        108.8677
330.66        109.0603
331.11        109.3473
331.56        109.7323
332.01        110.2105
332.46        110.7774
332.92        111.2935
333.37        111.6667
333.82        111.8251
334.27        111.8248
334.72        111.8128
335.17        112.0441
335.63         112.551
336.08        113.3036
336.53        114.1633
336.98        114.9451
337.43         115.564
337.88        116.0625
338.34        116.3917
338.79        116.5378
339.24        116.5068
339.69        116.3345
340.14        116.1426
340.59        116.1316
341.05        116.3547
341.50        116.7656
341.95        117.3171
342.40        117.9158
342.85        118.5062
343.30         119.109
343.75        119.6303
344.20        119.9313
344.66        120.0069
345.11        119.8659
345.56        119.6786
346.01        119.7266
346.46        120.0675
346.91        120.5983
347.36        121.1238
347.81        121.4024
348.26        121.3875
348.72        120.9368
349.17        120.6394
349.62        120.4006
350.07        120.4171
350.52        120.5789
350.97        120.7847
351.42        120.8684
351.87         120.763
352.32        120.5259
352.77        120.1724
353.22        119.7178
353.67        119.1842
354.13        118.5858
354.58        117.9397
355.03        117.3366
355.48        116.8061
355.93        116.3388
356.38        115.9205
356.83        115.5139
357.28        115.0927
357.73        114.6529
358.18        114.1699
358.63        113.6132
359.08        112.9809
359.53        112.2832
359.98        111.5375
360.43        110.7686
360.88        109.9873
361.33         109.193
361.78        108.3995
362.23        107.6287
362.68        106.8852
363.13        106.1629
363.58        105.4422
364.03         104.687
364.48        103.8845
364.93        103.0434
365.38        102.1698
365.83          101.28
366.28        100.3822
366.73        99.46923
367.18        98.56275
367.63        97.69555
368.08        96.88135
368.53        96.13515
368.98         95.4043
369.43        94.59134
369.88         93.6757
370.33        92.66846
370.78        91.68754
371.23        90.95264
371.68        90.51275
372.13        90.29904
372.58        90.12602
373.03        89.69205
373.48        88.92227
373.93        87.90565
374.38        86.80759
374.83        85.91402
375.28        85.31567
375.72        84.91135
376.17        84.61008
376.62        84.20679
377.07        83.63522
377.52        82.93793
377.97        82.19171
378.42        81.53788
378.87        81.02486
379.32        80.61538
379.77        80.20686
380.22        79.63855
380.67        78.87816
381.11         77.9842
381.56        77.08422
382.01         76.4139
382.46        76.04289
382.91        75.90098
383.36        75.84196
383.81        75.63937
384.26        75.22953
384.71        74.67173
385.15        74.05647
385.60        73.58829
386.05        73.28485
386.50        73.08527
386.95        72.88522
387.40        72.53507
387.85        72.02325
388.29        71.38223
388.74        70.81067
389.19        70.39111
389.64        70.13023
390.09        69.96268
390.54        69.82696
390.98        69.61774
391.43        69.35189
391.88        69.06239
392.33        68.75239
392.78        68.45242
393.23        68.18175
393.67        67.80877
394.12        67.47102
394.57        67.41451
395.02        67.53884
395.47        67.33907
395.91        66.85997
396.36        66.58041
396.81        66.53999
397.26        66.48503
397.71        66.33768
398.15        66.08789
398.60        65.80453
399.05        65.37437
399.50        64.94751
399.95        64.87881
400.39         65.1139
400.84        65.23878
401.29        65.14848
401.74        64.84431
402.18        64.39198
402.63        64.02361
403.08        63.77927
403.53        63.47949
403.97        63.15341
404.42        62.99093
404.87        62.95666
405.32        62.93587
405.76        62.90355
406.21        62.81881
406.66        62.68924
407.11        62.73851
407.55        62.88925
408.00        62.61769
408.45        62.01549
408.90        61.67526
409.34        61.65427
409.79        61.67019
410.24        61.65506
410.68        61.62598
411.13        61.56005
411.58        61.45549
412.03        61.34601
412.47        61.30154
412.92        61.31386
413.37        61.37403
413.81        61.42929
414.26         61.4505
414.71        61.41115
415.15        61.33828
415.60        61.23698
416.05        61.17019
416.49        61.15413
416.94        61.16012
417.39        61.16199
417.83        61.10842
418.28        60.99602
418.73        60.85201
419.17        60.69195
419.62         60.5505
420.07         60.4378
420.51        60.33147
420.96        60.28311
421.41        60.29819
421.85        60.33842
422.30        60.51234
422.74         60.7047
423.19        60.65445
423.64        60.41649
424.08        60.48365
424.53        60.77056
424.98        60.85637
425.42        60.73759
425.87         60.5488
426.31        60.40026
426.76        60.58479
427.21        61.00391
427.65        61.06492
428.10        60.75956
428.54        60.64671
428.99        60.77745
429.44        60.85075
429.88        60.79856
430.33        60.72015
430.77         60.5832
431.22        60.46036
431.66        60.40166
432.11        60.55877
432.56        60.91386
433.00        61.16242
433.45        61.03342
433.89        60.83839
434.34        60.82988
434.78        59.95016
435.23        60.04791
435.67        61.12847
436.12        61.10101
436.57        61.21995
437.01        60.83516
437.46        60.69906
437.90        61.52155
438.35        61.00761
438.79        61.53285
439.24        61.45945
439.68        61.45981
440.13        61.40296
440.57        61.32263
441.02        61.43851
441.46        61.67694
441.91        61.64112
442.35        61.38784
442.80        61.75109
443.24        62.51301
443.69        62.58689
444.13        62.00507
444.58        61.66468
445.02        61.65447
445.47        61.81929
445.91        62.04372
446.36        62.11369
446.80        61.99385
447.24        61.80511
447.69        61.64748
448.13        61.77007
448.58        61.96617
449.02        62.05213
449.47        61.97406
449.91        61.98361
450.36        62.09289
450.80        62.06662
451.25        61.94553
451.69        61.94559
452.13        62.03071
452.58        61.89346
453.02        61.56649
453.47        61.37493
453.91        61.32196
454.36        61.24809
454.80        61.16094
455.24        61.06553
455.69        60.95792
456.13        60.97852
456.58        61.12971
457.02        60.67348
457.46        60.53246
457.91        60.37593
458.35        60.52795
458.79        60.51584
459.24        60.38007
459.68        60.29964
460.13        60.31797
460.57        60.21357
461.01        59.97783
461.46         59.9805
461.90        60.04656
462.34        59.43746
462.79        59.30714
463.23        59.28744
463.68        59.64896
464.12        59.55961
464.56        59.10835
465.01        59.20333
465.45        59.62696
465.89        59.69249
466.34        59.13837
466.78        59.03314
467.22        59.22332
467.67        59.36383
468.11         58.7134
468.55         58.5808
468.99          58.732
469.44        58.72176
469.88        58.53468
470.32        58.40139
470.77        58.34692
471.21        58.29073
471.65         58.2324
472.10        58.19191
472.54          58.146
472.98        58.07589
473.42        57.98183
473.87        57.89033
474.31         57.7886
474.75        57.72856
475.20        57.70649
475.64        57.70761
476.08        57.72169
476.52        57.70594
476.97        57.63735
477.41        57.66046
477.85        57.75061
478.29        57.48752
478.74        57.30872
479.18        57.32907
479.62         57.8907
480.06        58.04366
480.50        57.86037
480.95        57.70878
481.39        57.61827
481.83        57.46628
482.27        57.82401
482.72        57.48594
483.16        57.69497
483.60        58.00446
484.04        57.97236
484.48        57.67867
484.93        57.64688
485.37        57.34008
485.81         58.0684
486.25        57.58036
486.69        58.48772
487.14        58.53791
487.58        57.78439
488.02        57.82289
488.46        57.42176
488.90        57.67464
489.34        57.31324
489.79        56.83275
490.23         57.2758
490.67        57.43968
491.11         57.6347
491.55        57.57347
491.99        57.32491
492.43        57.21904
492.88        57.26861
493.32        57.28393
493.76        57.20075
494.20        57.14868
494.64        57.15119
495.08        56.79767
495.52        56.74566
495.96        56.80652
496.41         57.0738
496.85        57.17072
497.29        57.03442
497.73        57.04649
498.17        56.92609
498.61        56.93741
499.05        56.95691
499.49        56.84286
499.93        56.65716
500.37        56.59344
500.82        56.65033
501.26        56.83564
501.70        57.07981
502.14        56.85724
502.58        56.67123
503.02        56.55878
503.46        56.64322
503.90        56.53022
504.34        56.57286
504.78        56.55249
505.22        56.59678
505.66        56.59815
506.10        56.55036
506.54        56.63301
506.98        56.87643
507.42        56.34827
507.86        56.91927
508.30        56.44547
508.74        56.56226
509.18        56.35221
509.62         56.1889
510.06        56.12382
510.50         56.1446
510.94        56.17204
511.38         56.1691
511.82        56.16972
512.26        56.16072
512.70        56.11194
513.14        56.03867
513.58        55.98537
514.02        55.95993
514.46        55.94594
514.90        55.91942
515.34         55.8901
515.78        55.86106
516.22        55.78883
516.66        55.54122
517.10        55.78587
517.54        55.53353
517.98        55.56173
518.42        55.57249
518.86         55.5869
519.30        55.59907
519.74        55.57796
520.18        55.55917
520.62        55.66026
521.06        55.84307
521.50        55.89613
521.93        55.81544
522.37        55.77436
522.81         55.7818
523.25        55.73272
523.69        55.64645
524.13         55.6058
524.57        55.61885
525.01        55.66092
525.45        55.71502
525.89        55.75303
526.32        55.76178
526.76        55.75486
527.20        55.73178
527.64        55.69366
528.08        55.64493
528.52        55.59019
528.96        55.53795
529.40        55.49463
529.83        55.46231
530.27          55.467
530.71        55.49442
531.15         55.5185
531.59        55.53303
532.03        55.54524
532.46        55.55367
532.90        55.56916
533.34        55.58766
533.78        55.60656
534.22        55.61276
534.66        55.58759
535.09        55.52288
535.53        55.44478
535.97         55.3662
536.41        55.32224
536.85         55.3203
537.28         55.3499
537.72        55.39114
538.16        55.41173
538.60        55.40163
539.04        55.37249
539.47        55.32303
539.91        55.29762
540.35        55.28831
540.79        55.28777
541.22        55.28865
541.66        55.29331
542.10        55.29506
542.54        55.29348
542.97         55.2824
543.41        55.28032
543.85        55.28591
544.29        55.30659
544.72        55.32132
545.16        55.34792
545.60         55.3753
546.04        55.33334
546.47        55.26902
546.91        55.38881
547.35        55.61824
547.79        55.67075
548.22        55.52353
548.66        55.31925
549.10        55.14848
549.53        55.17271
549.97        55.36449
550.41        55.43304
550.84        55.34922
551.28        55.32205
551.72        55.36287
552.15        55.33284
552.59        55.23191
553.03        55.31971
553.46        55.17691
553.90        55.14801
554.34        55.10669
554.77        55.06219
555.21        55.03568
555.65        55.05744
556.08        55.12611
556.52        55.22014
556.96        55.31268
557.39        55.42485
557.83        55.53046
558.27        55.49948
558.70        55.36579
559.14        55.29173
559.57         55.2833
560.01        55.33214
560.45        55.37085
560.88        55.26357
561.32        55.09066
561.75        54.94058
562.19        54.89509
562.63        55.05965
563.06        55.32162
563.50          55.287
563.93        54.98419
564.37        54.81683
564.80        54.82414
565.24        54.95464
565.68         55.1517
566.11        55.25702
566.55        55.26566
566.98        55.31477
567.42        55.39365
567.85        55.30957
568.29         55.1492
568.72        55.07492
569.16        55.15561
569.60        55.35381
570.03        55.30091
570.47        55.57441
570.90        56.03299
571.34        55.65194
571.77        55.96503
572.21        55.82792
572.64        55.77248
573.08        55.20916
573.51        55.52985
573.95        55.61035
574.38        55.71255
574.82        56.34042
575.25        56.22907
575.69        55.89769
576.12        55.44668
576.56        55.82798
576.99        55.99371
577.42        55.90956
577.86        56.11075
578.29        56.48915
578.73          56.834
579.16        56.36721
579.60        55.63341
580.03        56.09925
580.47        56.23711
580.90        55.99639
581.33        56.35296
581.77        56.32188
582.20        56.69166
582.64        56.55686
583.07        56.22572
583.51        56.01902
583.94        55.94578
584.37        55.73844
584.81        55.54478
585.24        55.49068
585.68         55.9676
586.11        55.90954
586.54        55.83392
586.98        56.05308
587.41         55.8643
587.85        56.02729
588.28         55.8413
588.71        56.15892
589.15        55.97664
589.58        55.57343
590.01        55.69497
590.45        55.56145
590.88        55.49914
591.31        55.20128
591.75        55.28969
592.18         55.3432
592.61        55.50267
593.05        55.53212
593.48        55.84462
593.91        55.74743
594.35        55.68225
594.78        55.79751
595.21        55.49308
595.65        55.48973
596.08        55.54961
596.51        55.78838
596.94        55.64778
597.38        55.67192
597.81        55.74856
598.24        55.62593
598.68        55.42706
599.11         55.6297
599.54        55.63528
599.97        55.67199
600.41         55.5294
600.84        55.87566
601.27        55.62355
601.70        55.70341
602.14        55.25954
602.57        55.21238
603.00        55.38403
603.43        55.50465
603.87         55.8792
604.30        55.66704
604.73        55.46289
605.16        55.37222
605.60        55.49681
606.03        55.61318
606.46        55.70633
606.89        55.37394
607.32        55.12657
607.76        55.77603
608.19        55.48894
608.62        55.48087
609.05        56.21337
609.48        55.62531
609.92        55.52505
610.35        55.34775
610.78        55.94253
611.21        55.36639
611.64        55.61153
612.07         55.4957
612.50        55.59911
612.94        55.50112
613.37        55.16383
613.80        55.71436
614.23        55.21678
614.66        55.25867
615.09        55.27002
615.52        55.27382
615.96        55.24531
616.39        55.22319
616.82        55.23119
617.25         55.0992
617.68        55.12296
618.11        55.01031
618.54        55.03299
618.97        54.97908
619.40        54.87124
619.84         55.0533
620.27        55.06807
620.70        54.97754
621.13        54.75357
621.56        54.88527
621.99        55.32831
622.42         55.3275
622.85        54.88417
623.28        54.94315
623.71        55.16806
624.14        55.16339
624.57         55.0626
625.00        55.50991
625.43        55.00494
625.86        55.03817
626.29        55.15033
626.72        54.90098
627.15        54.94911
627.58        54.81898
628.01        54.73291
628.44        54.88716
628.87        54.54737
629.30        55.10585
629.73        54.78814
630.16        55.01687
630.59        54.68176
631.02         54.8591
631.45        54.59692
631.88        54.59979
632.31        54.67154
632.74        54.53054
633.17        54.71321
633.60        54.69305
634.03         54.6312
634.46        54.58537
634.89        54.49855
635.32        54.45746
635.75        54.43523
636.18        54.47798
636.61        54.58905
637.04        54.51033
637.47        54.65984
637.89         54.6992
638.32        54.73297
638.75        54.73752
639.18         54.7137
639.61        54.66515
640.04        54.59727
640.47        54.53257
640.90        54.47941
641.33        54.43423
641.76        54.41039
642.18        54.43311
642.61        54.48984
643.04        54.57941
643.47        54.67058
643.90        54.71623
644.33        54.70515
644.76        54.63701
645.18        54.54433
645.61        54.50674
646.04        54.52537
646.47         54.5179
646.90        54.48526
647.33        54.48996
647.75        54.52053
648.18        54.55984
648.61        54.61713
649.04        54.63824
649.47        54.60313
649.89        54.85315
650.32        54.76509
650.75        54.76132
651.18        54.65865
651.61        54.49352
652.03        54.32313
652.46        54.21957
652.89        54.23619
653.32        54.42793
653.74        54.68907
654.17        54.91599
654.60        54.38375
655.03        54.63774
655.46        54.33186
655.88        55.06862
656.31        55.96909
656.74        58.95032
657.16        57.76556
657.59        56.68625
658.02        55.47936
658.45        54.74003
658.87        54.67438
659.30        55.07185
659.73        55.11969
660.15        54.27628
660.58        54.50341
661.01         54.5438
661.44         54.9143
661.86        54.97749
662.29        54.72765
662.72        54.49809
663.14         54.3656
663.57        54.37677
664.00         54.5069
664.42        54.56776
664.85        54.55608
665.27         54.5244
665.70        54.63471
666.13        54.64407
666.55         54.6028
666.98        54.52785
667.41        54.45294
667.83        54.43787
668.26        54.50377
668.69        54.58462
669.11        54.62699
669.54        54.74208
669.96         54.9564
670.39        54.50668
670.82        54.74633
671.24         54.6765
671.67        54.68428
672.09        54.73905
672.52        54.82683
672.94        54.78522
673.37        54.63944
673.80        54.59445
674.22        54.66388
674.65        54.67118
675.07        54.63039
675.50        54.63449
675.92        54.67582
676.35        54.67518
676.77        54.62465
677.20        54.56851
677.62        54.54892
678.05        54.53914
678.47        54.52915
678.90        54.82683
679.32        54.82413
679.75        54.94052
680.17        54.99023
680.60        55.00525
681.02        54.98321
681.45        54.93443
681.87        54.87817
682.30        54.77607
682.72        54.68167
683.15        54.71776
683.57        54.84928
684.00        55.03185
684.42        54.82484
684.85        54.95488
685.27        54.90245
685.70        54.89437
686.12        54.81033
686.54        54.74461
686.97        54.70449
687.39         54.6745
687.82        54.66899
688.24        54.72979
688.66        54.82417
689.09        55.00504
689.51        54.99038
689.94        55.07653
690.36        55.16118
690.78         55.1505
691.21        55.06281
691.63        54.95138
692.06        54.87374
692.48        54.91406
692.90        55.03662
693.33        55.08259
693.75        55.04409
694.17        54.96287
694.60        54.86659
695.02        54.95626
695.44        54.98681
695.87        55.02384
696.29        55.01574
696.71        54.97221
697.14        54.92872
697.56        55.12589
697.98        55.50139
698.41        55.45742
698.83        55.52848
699.25        55.41579
699.68        55.31681
700.10        55.21947
700.52        55.14615
700.94        55.09542
701.37         55.0524
701.79        55.04629
702.21        55.05777
702.64        55.08847
703.06        55.12542
703.48        55.15241
703.90        55.16709
704.33        55.17001
704.75        55.16213
705.17        55.12908
705.59        55.07496
706.01        55.00196
706.44        54.94737
706.86        54.98802
707.28        55.12033
707.70        55.31648
708.12        55.52025
708.55        55.63744
708.97        55.64067
709.39         55.5668
709.81        55.44723
710.23        55.34466
710.66         55.2876
711.08        55.26682
711.50        55.27001
711.92        55.29168
712.34        55.32563
712.76        55.37666
713.19        55.42196
713.61        55.46074
714.03          55.468
714.45        55.45879
714.87        55.45023
715.29         55.4334
715.71        55.40642
716.13        55.51307
716.56        55.47562
716.98        55.51809
717.40        55.54221
717.82        55.58033
718.24        55.63452
718.66        55.58303
719.08          55.633
719.50        55.62014
719.92        55.61121
720.34        55.60945
720.76        55.61963
721.19        55.63206
721.61        55.66003
722.03        55.70304
722.45        55.76043
722.87        55.83166
723.29        55.91084
723.71        55.98863
724.13        56.05998
724.55        56.12006
724.97        56.17352
725.39        56.23097
725.81        56.29155
726.23        56.34982
726.65        56.38699
727.07        56.38004
727.49        56.32928
727.91        56.23209
728.33        56.11982
728.75        56.08373
729.17        56.12242
729.59        56.13313
730.01        56.12143
730.43        56.17748
730.85        56.29593
731.27        56.39853
731.69        56.47647
732.10        56.51722
732.52        56.67259
732.94        56.54281
733.36        56.24303
733.78        56.07782
734.20        56.08434
734.62        56.09271
735.04        56.08817
735.46        56.11667
735.88        56.17779
736.30        56.27753
736.72        56.36553
737.13        56.42204
737.55        56.41498
737.97        56.20125
738.39        55.91961
738.81        56.18066
739.23        56.85362
739.65        56.96393
740.06        56.50131
740.48        56.35572
740.90        56.51574
741.32        56.48357
741.74        56.29634
742.16        56.28809
742.57        56.49269
742.99        56.79393
743.41        57.08567
743.83        57.18594
744.25        57.05557
744.67        56.75426
745.08        56.42236
745.50        56.25156
745.92        56.31272
746.34        56.55141
746.75        56.84289
747.17        56.97974
747.59        56.91354
748.01        56.68158
748.42        56.41574
748.84        56.35593
749.26        56.51971
749.68        56.76768
750.09        56.99285
750.51        57.01073
750.93         56.8587
751.35        56.84688
751.76        56.98697
752.18        57.03097
752.60        56.97993
753.01        57.00889
753.43        57.07284
753.85        57.05873
754.27        56.95712
754.68        56.80534
755.10        56.65833
755.52        56.57337
755.93        56.57159
756.35        56.64922
756.77        56.77325
757.18        56.85643
757.60        56.87388
758.02        56.85866
758.43        56.89832
758.85        56.72176
759.26        57.26283
759.68        57.19523
760.10        57.20775
760.51        56.72697
760.93        56.70931
761.34        56.71557
761.76        56.98815
762.18        57.27242
762.59        57.43737
763.01        57.48235
763.42        56.72466
763.84         56.7553
764.26        56.94607
764.67        57.31678
765.09        57.60349
765.50        57.67368
765.92        57.55767
766.33        57.44234
766.75         57.3761
767.16        57.32638
767.58        57.25575
768.00          57.406
768.41        57.70918
768.83        57.52579
769.24        56.94749
769.66        57.23895
770.07        57.28633
770.49        57.52643
770.90        57.55288
771.32        57.33555
771.73        56.99308
772.15        56.89584
772.56        57.10086
772.97         57.3787
773.39        57.60072
773.80        57.72915
774.22        57.69614
774.63        57.53843
775.05        57.32692
775.46        57.22408
775.88        57.25383
776.29        57.39349
776.70        57.57011
777.12        57.67216
777.53        57.68492
777.95        57.64336
778.36        57.58794
778.77        57.57513
779.19        57.61826
779.60        57.69292
780.02        57.78613
780.43        57.89216
780.84        57.99841
781.26        58.11631
781.67         58.2359
782.09        58.22744
782.50        58.10828
782.91        58.03338
783.33         58.0093
783.74        58.01267
784.15        58.02293
784.57        58.09642
784.98        58.22239
785.39        58.32368
785.81        58.38259
786.22        58.41368
786.63        58.42052
787.04        58.41236
787.46        58.40757
787.87        58.38553
788.28        58.35296
788.70        58.31654
789.11        58.26064
789.52         58.1888
789.93        58.13925
790.35        58.16282
790.76        58.28736
791.17         58.5105
791.58        58.74335
792.00        58.87663
792.41        58.91931
792.82        58.72762
793.23        58.48074
793.65        58.79548
794.06        59.52748
794.47        59.81444
794.88        59.68223
795.29        59.35945
795.71        59.74695
796.12        59.68488
796.53         59.4298
796.94         59.2436
797.35          59.146
797.76        58.97396
798.18        58.75836
798.59        58.66388
799.00        58.70529
799.41        58.74009
799.82         58.8854
800.23        58.90765
800.64        58.83707
801.06        58.67568
801.47        58.52754
801.88        58.49651
802.29        58.60652
802.70        58.81342
803.11        59.05447
803.52        59.22438
803.93        59.29272
804.34        59.29583
804.75         59.2496
805.17        59.21212
805.58        59.23616
805.99        59.16686
806.40        59.05549
806.81        59.29371
807.22        59.73866
807.63         59.6898
808.04        59.23195
808.45         59.1186
808.86        59.40216
809.27        59.64681
809.68        59.76944
810.09        59.83121
810.50        59.80771
810.91        59.69216
811.32        59.53168
811.73        59.40575
812.14        59.34125
812.55        59.31541
812.96        59.33678
813.37        59.41113
813.78        59.52665
814.19        59.68757
814.60        59.82489
815.01        59.82741
815.42        59.67904
815.83        59.40373
816.24        59.10429
816.65        58.98011
817.05        59.09439
817.46        59.36421
817.87        59.69491
818.28        59.90095
818.69        59.93813
819.10        59.86447
819.51         59.7496
819.92        59.71869
820.33        59.80784
820.74        59.95399
821.14        60.12122
821.55        60.28358
821.96        60.40981
822.37        60.52105
822.78        60.56623
823.19        60.45367
823.60        60.17536
824.00         59.7681
824.41         59.3289
824.82        59.08044
825.23        59.08179
825.64        59.29209
826.04        59.59796
826.45        59.77193
826.86        59.76791
827.27        59.64219
827.68        59.50208
828.08        59.55547
828.49        59.78436
828.90        60.16274
829.31        60.58622
829.72        60.78623
830.12         60.7036
830.53        60.83583
830.94          60.415
831.35        60.19787
831.75        59.99792
832.16        59.80195
832.57         59.6435
832.97        59.57691
833.38        59.60876
833.79        59.72155
834.20        59.90068
834.60        60.11631
835.01        60.34656
835.42        60.59526
835.82        60.81577
836.23        60.89575
836.64        60.82798
837.04         60.6407
837.45        60.41627
837.86         60.3484
838.26        60.48849
838.67        60.77837
839.08        61.09649
839.48        61.22844
839.89        61.11895
840.29        60.83044
840.70        60.51451
841.11        60.41391
841.51        60.60126
841.92        60.97167
842.33        61.37891
842.73         61.5773
843.14        61.46614
843.54        61.16685
843.95        60.81501
844.35        60.64837
844.76        60.72513
845.17        60.95835
845.57        61.29076
845.98        61.60075
846.38        61.85602
846.79        62.06705
847.19        62.20921
847.60         62.1659
848.00        61.95988
848.41        61.58163
848.81        61.18215
849.22        60.96931
849.62        61.03532
850.03        61.29562
850.43        61.63797
850.84        61.77285
851.24         61.6751
851.65        61.35327
852.05        60.98633
852.46        60.81274
852.86        60.90172
853.27        61.21059
853.67        61.49689
854.07        61.55248
854.48        61.31499
854.88        60.87312
855.29        60.39426
855.69        60.32671
856.10        60.69715
856.50        61.45201
856.90         62.2541
857.31        62.58328
857.71        62.35056
858.12        61.65907
858.52         60.7915
858.92        60.18135
859.33        59.97144
859.73        60.08714
860.13        60.38075
860.54        60.60203
860.94        60.71587
861.34        60.75514
861.75        60.75503
862.15        60.83406
862.55        60.97343
862.96        61.10362
863.36         61.1536
863.76        60.97865
864.17        60.56462
864.57        60.00922
864.97         59.4247
865.38        58.97687
865.78        58.76703
866.18        58.74983
866.58        58.94939
866.99        59.35084
867.39        59.92164
867.79        60.61576
868.19        61.26003
868.60        61.52204
869.00        61.43833
869.40        61.28133
869.80        61.08362
870.21        60.70577
870.61        60.25684
871.01        59.87787
871.41        59.59834
871.81        59.34333
872.22        59.13314
872.62        58.99755
873.02        58.95403
873.42        59.22105
873.82        59.57093
874.22         59.3811
874.63        58.91566
875.03        58.73689
875.43        58.91119
875.83        60.27099
876.23        59.67496
876.63        58.83491
877.03        57.44273
877.44        54.83162
877.84        180.7884
878.24        55.86568
878.64        56.99258
879.04        59.08708
879.44        60.02285
879.84        56.48322
880.24        62.19737
880.64        62.35453
881.04        59.53765
881.44        57.42547
881.84        56.71491
882.24        57.48575
882.65        58.97847
883.05        59.50679
883.45        58.74198
883.85        57.69932
884.25        56.86222
884.65        56.53108
885.05        56.84806
885.45        57.61789
885.85        58.51091
886.25        59.09558
886.65        59.25907
887.05        59.13974
887.45        58.87986
887.85        58.71233
888.25        58.72424
888.65        58.82804
889.04        58.99296
889.44        59.19054
889.84        59.37854
890.24        59.56109
890.64        59.70394
891.04        59.74698
891.44        59.68621
891.84        59.55265
892.24        59.34996
892.64        59.09511
893.04         58.8267
893.44        58.56306
893.83        58.41948
894.23        58.52727
894.63         58.9113
895.03        59.52715
895.43        60.21772
895.83        60.71496
896.23        60.93409
896.63        60.92131
897.02        60.79992
897.42        60.82163
897.82        61.01168
898.22        61.30015
898.62        61.54031
899.01        61.50755
899.41        61.14152
899.81        60.54622
900.21         59.9002
900.61        59.48494
901.00        59.36344
901.40        59.51711
901.80        59.81491
902.20        59.89128
902.59        59.65207
902.99         59.5027
903.39        59.67276
903.79        58.63396
904.18        59.44537
904.58        59.60035
904.98        59.82664
905.38         59.8024
905.77        59.48051
906.17        58.96463
906.57          58.401
906.96        58.13121
907.36        58.24045
907.76        58.66246
908.15        59.24281
908.55        59.58061
908.95        59.61974
909.34        59.40676
909.74        59.20235
910.14        59.38242
910.53        60.00006
910.93         60.8937
911.33        61.69508
911.72        61.83406
912.12        61.21789
912.52        60.06393
912.91        58.75364
913.31        57.95947
913.70        57.83551
914.10        58.19978
914.49        58.81326
914.89        59.18447
915.29        59.18235
915.68        58.94076
916.08        58.64286
916.47        58.51686
916.87        58.65874
917.26         58.9697
917.66        59.32336
918.05        59.55728
918.45        59.60812
918.84        59.53914
919.24        59.46851
919.64        59.63951
920.03        60.08745
920.42         60.6954
920.82        61.25032
921.21        61.43433
921.61        61.21427
922.00         60.7816
922.40        60.37856
922.79        60.23945
923.19        60.02724
923.58        60.61828
923.98         62.3771
924.37        62.50005
924.77        59.42686
925.16        68.42983
925.55        61.79204
925.95        62.24771
926.34        61.95005
926.74        60.75084
927.13        58.77111
927.52        57.63198
927.92        57.98838
928.31        59.00639
928.70        60.29271
929.10         61.1987
929.49        61.58672
929.89        61.67422
930.28        61.52356
930.67        61.14926
931.07        60.64316
931.46        59.85456
931.85         59.0772
932.24        59.31768
932.64        60.67613
933.03        62.20791
933.42         62.9803
933.82         65.3702
934.21        63.26971
934.60        61.49996
934.99        59.71671
935.39        59.20197
935.78        60.02839
936.17        62.56368
936.56        70.12567
936.96        62.45322
937.35        67.00341
937.74        63.59017
938.13        61.17754
938.53        59.15584
938.92        58.31301
939.31        59.22845
939.70        60.70053
940.09         61.5951
940.49        61.61366
940.88        61.19625
941.27        60.57916
941.66        60.16436
942.05        60.13558
942.44        60.29024
942.84        60.45406
943.23        60.52088
943.62         60.4219
944.01        60.19522
944.40         60.0163
944.79         60.1493
945.18         60.6297
945.57        61.37271
945.97        62.00192
946.36        62.04894
946.75        61.38284
947.14        60.14099
947.53        58.80514
947.92        58.21732
948.31        58.58477
948.70        59.64285
949.09        60.84566
949.48        61.33911
949.87        60.93747
950.26        59.93986
950.65        58.75993
951.04        58.07198
951.43        58.08855
951.82        58.57378
952.21        59.34098
952.60        60.07458
952.99        60.60033
953.38        61.00063
953.77        61.22685
954.16        61.19024
954.55        60.91835
954.94        60.44668
955.33        59.88443
955.72        59.47812
956.11        59.32253
956.50        59.33646
956.89        59.57484
957.28        60.08489
957.66         60.8521
958.05        61.80631
958.44        62.62004
958.83        62.78822
959.22        62.23226
959.61        61.02296
960.00        59.68947
960.39        59.26847
960.78        60.01569
961.16         61.6152
961.55        63.22556
961.94        63.81809
962.33        63.21151
962.72        61.69093
963.11        59.84445
963.49        58.90053
963.88        59.28492
964.27        60.55011
964.66         62.0545
965.04        62.93344
965.43        62.92498
965.82        62.37384
966.21        61.53097
966.60        60.82146
966.98         60.4399
967.37        60.23355
967.76         60.2111
968.15        60.40938
968.53        60.81349
968.92        61.41855
969.31         62.0714
969.69        62.48315
970.08        62.53788
970.47         62.2565
970.86        61.79868
971.24        61.48716
971.63        61.39494
972.02        61.45267
972.40        61.47976
972.79        61.08845
973.17        60.29073
973.56        59.25909
973.95        58.29116
974.33        57.90308
974.72         58.2378
975.11        59.06414
975.49        60.27062
975.88        61.59254
976.26        62.92328
976.65        64.22557
977.04        65.19551
977.42         65.3654
977.81        64.64893
978.19        63.07775
978.58        61.41558
978.96        61.06397
979.35        62.30579
979.74        64.57063
980.12        66.88618
980.51        67.85592
980.89        67.39803
981.28        65.81075
981.66        63.57002
982.05        61.96474
982.43        61.56571
982.82        62.08997
983.20        63.11215
983.59        63.92852
983.97        64.35951
984.35        64.59975
984.74        64.73396
985.12        64.93849
985.51        65.22438
985.89         65.5457
986.28        65.78199
986.66        65.88552
987.04        65.89941
987.43        65.74181
987.81        65.29045
988.20        65.94508
988.58        67.91512
988.96        68.19869
989.35        65.88708
989.73        72.16907
990.12        67.87228
990.50        67.75739
990.88        66.81336
991.27        66.06829
991.65        65.56287
992.03        65.40935
992.42        65.65694
992.80         65.6673
993.18        65.33639
993.56        64.89862
993.95        64.43732
994.33        64.03568
994.71        63.77361
995.10        63.57217
995.48        63.59574
995.86        64.12469
996.24        65.13963
996.63        66.43602
997.01         67.7444
997.39        68.43626
997.77         68.3627
998.15        67.70165
998.54        66.78419
998.92        66.03381
999.30        65.67017
999.68        65.66177
1000.06        65.92876
1000.45        66.22817
1000.83        66.56328
1001.21        66.97787
1001.59        67.64123
1001.97        68.78826
1002.35        70.30117
1002.73        71.88922
1003.12        73.23114
1003.50         74.0251
1003.88         74.2132
1004.26        73.93473
1004.64        73.20469
1005.02        72.10837
1005.40        70.78545
1005.78        69.25555
1006.16        67.88419
1006.54        67.20651
1006.92        67.33555
1007.30        68.21338
1007.69        69.28101
1008.07        69.77129
1008.45        69.49041
1008.83        68.60564
1009.21        67.66206
1009.59        67.81032
1009.97        69.23411
1010.35        71.24496
1010.73        73.16811
1011.11        74.62473
1011.49        75.72265
1011.86        76.35004
1012.24        76.26182
1012.62        78.08772
1013.00        78.78691
1013.38        78.23798
1013.76        75.26125
1014.14        79.15485
1014.52        85.56854
1014.90        77.90907
1015.28        79.65218
1015.66        81.46086
1016.04        78.17043
1016.41        78.55377
1016.79        77.69121
1017.17        77.13831
1017.55        76.35304
1017.93        75.56593
1018.31        75.26129
1018.69        75.65986
1019.06        76.80842
1019.44        78.46026
1019.82        79.92288
1020.20        80.25589
1020.58        79.26276
1020.95        76.88645
1021.33        73.69719
1021.71        71.71266
1022.09        72.12904
1022.46        74.12582
1022.84        76.36093
1023.22        77.85789
1023.60        78.61402
1023.97        79.02211
1024.35        79.24651
1024.73        79.48685
