SpectraSmart Spectrum 2.9.0.0
--------- Device Information -----------
Spectrum Name :  反射率_0
Saving Time :  2024/04/21 00:07:22
Spectro-Module Model Name : SE2030-DUVN
Spectro-Module Serial Number : OS361AC55029948
Wavelength Start : 200
Wavelength End : 1025
Wavelength Unit : Wavelength(nm)
Spectrum Unit : Reflectance(%)
-----------Spectrum Setting ------------
Integration Time : 20ms
Average : 10
Boxcar : 0
Background removal :  enabled
linearity correction :  enabled
SC :  disabled
Intensity correction :  disabled
DWT denoise :  enabled
savitzky-golay :  disabled
FFT :  disabled
Running average :  disabled
Kalman :  disabled
High pass :  disabled
---------------BEGIN--------------------
Wavelength(nm)             Reflectance(%)
200.29               0
200.75       -83.42639
201.21       -17.51904
201.67        17.59831
202.13        29.06393
202.58        26.46828
203.04        15.34294
203.50       -2.169267
203.96       -17.87011
204.42       -25.86166
204.88       -29.65134
205.34       -29.02402
205.80       -23.85903
206.26       -13.69453
206.72        6.933289
207.18        30.41211
207.64        34.46681
208.10        11.27924
208.55       -31.89058
209.01       -63.71929
209.47       -44.36167
209.93       -4.057772
210.39        29.91294
210.85        53.04027
211.31        66.26348
211.77        73.78701
212.23        79.85604
212.69        83.52453
213.14        76.19012
213.60        32.84416
214.06       -149.5354
214.52       -701.6677
214.98       -379.7742
215.44       -106.9845
215.90       -6.197178
216.36        30.25846
216.81         38.3399
217.27        26.81414
217.73        -45.5555
218.19        852.6071
218.65        383.2378
219.11       -807.7628
219.57       -23.02648
220.02        26.46887
220.48        33.68744
220.94        25.57164
221.40      -0.9784051
221.86        -62.3906
222.32         -98.779
222.77       -40.23086
223.23        9.129731
223.69        33.22637
224.15        40.22804
224.61        38.09303
225.06        31.36605
225.52        22.04475
225.98        13.06702
226.44        6.195706
226.90      -0.5109267
227.36        -3.27516
227.81        3.792082
228.27        15.86134
228.73        27.79946
229.19        35.45469
229.65        36.82117
230.10        33.02616
230.56        25.59354
231.02        15.94172
231.48        9.746794
231.93        10.92133
232.39        17.19085
232.85        24.23871
233.31        28.50751
233.77        30.24211
234.22        31.12817
234.68        31.38058
235.14        31.23261
235.60        31.12604
236.05        30.11563
236.51        28.78411
236.97        33.67207
237.43        44.99643
237.88        53.68762
238.34        56.45587
238.80         73.5631
239.26         66.2319
239.71         61.9142
240.17          51.051
240.63        41.35992
241.08        39.32204
241.54        48.47344
242.00        65.05722
242.46        73.76083
242.91        69.77787
243.37        52.52072
243.83        24.97988
244.28        5.333231
244.74        6.589908
245.20        20.34912
245.66        35.87404
246.11        42.59764
246.57        38.92685
247.03        28.82119
247.48        13.96379
247.94       -3.571236
248.40        -26.9617
248.85       -79.80113
249.31       -235.3211
249.77       -344.7734
250.22         -101.48
250.68       -3.843626
251.14        28.31748
251.59        40.61349
252.05        47.16308
252.51        52.90672
252.96        58.04035
253.42        61.07554
253.88        60.92646
254.33        58.45953
254.79        59.83167
255.25        67.42593
255.70        76.56789
256.16        84.47218
256.62        89.17155
257.07         89.6862
257.53        88.05345
257.99        85.41639
258.44         82.4587
258.90        80.64657
259.35        79.28838
259.81        78.41032
260.27        77.61121
260.72        76.62963
261.18        75.86889
261.63        75.00755
262.09        74.18423
262.55        72.89577
263.00        71.09906
263.46        69.23343
263.91        67.41102
264.37         66.3584
264.83        65.96072
265.28         65.8661
265.74        65.89177
266.19        65.49747
266.65        64.69536
267.11        63.58942
267.56        62.23361
268.02         60.8289
268.47        59.39804
268.93         57.9422
269.38        56.51347
269.84        55.28548
270.30        54.26371
270.75        53.41335
271.21        52.64846
271.66        51.73127
272.12        50.65456
272.57        49.45794
273.03        48.26592
273.48        47.18425
273.94        46.27951
274.39        45.46284
274.85        44.73271
275.31        43.99905
275.76        43.22746
276.22        42.49257
276.67        41.78551
277.13        41.20745
277.58        40.69969
278.04        40.26677
278.49        39.79794
278.95        39.26425
279.40        38.60011
279.86        37.88869
280.31        37.11733
280.77        36.38597
281.22        35.68209
281.68        35.06672
282.13        34.50344
282.59        34.04179
283.04        33.64618
283.50        33.33295
283.95        33.10759
284.41        33.02647
284.86        33.05973
285.32        33.20747
285.77        33.34299
286.22        33.32201
286.68        33.15101
287.13          32.835
287.59        32.56525
288.04        32.51647
288.50        32.70456
288.95        33.14863
289.41        33.73355
289.86        33.84147
290.32        33.38418
290.77        34.11837
291.22        33.33154
291.68        33.46632
292.13        33.74509
292.59        34.21268
293.04        34.87828
293.50        35.82785
293.95        37.06219
294.40        38.53125
294.86        40.12043
295.31        41.62934
295.77         43.0049
296.22        44.27232
296.68        45.52391
297.13        46.90009
297.58        48.45634
298.04        50.14732
298.49        51.92606
298.95        53.74236
299.40        55.54896
299.85        57.37841
300.31        59.21254
300.76        60.98114
301.21        62.69528
301.67        64.39532
302.12        66.11883
302.58        68.05585
303.03        70.18951
303.48        72.50893
303.94        74.91727
304.39         77.1973
304.84         79.3011
305.30        81.29408
305.75        83.19665
306.20        85.17044
306.66        87.25446
307.11        89.34436
307.57        91.39467
308.02        93.24116
308.47        94.89214
308.93        96.42698
309.38        97.89259
309.83        99.45927
310.29        101.1627
310.74        102.9087
311.19         104.596
311.65        106.0513
312.10        107.2128
312.55        108.1416
313.00         108.934
313.46        109.7484
313.91        110.6145
314.36        111.5057
314.82        112.3702
315.27        113.1086
315.72        113.7194
316.18        114.2492
316.63        114.7657
317.08        115.3728
317.53        116.0828
317.99        116.8379
318.44        117.5736
318.89        118.1764
319.35        118.6088
319.80        118.9187
320.25         119.118
320.70         119.236
321.16         119.291
321.61        119.2961
322.06        119.3121
322.51        119.4458
322.97        119.6992
323.42        120.0952
323.87        120.5228
324.32        120.8086
324.78        120.8906
325.23        120.8614
325.68         120.811
326.13        120.9266
326.59        121.2288
327.04        121.7203
327.49        122.2802
327.94        122.7473
328.39        123.0681
328.85        123.2493
329.30        123.4284
329.75        123.6804
330.20        124.0367
330.66        124.4178
331.11        124.8417
331.56        125.1852
332.01        125.4243
332.46        125.5925
332.92        125.6952
333.37        125.9012
333.82        126.1997
334.27        126.5887
334.72        127.0392
335.17        127.5008
335.63        127.9236
336.08        128.3781
336.53        128.8989
336.98        129.5965
337.43        130.4752
337.88        131.4885
338.34        132.4406
338.79        133.0896
339.24        133.3482
339.69        133.2974
340.14        133.1591
340.59        133.2924
341.05        133.7871
341.50        134.5561
341.95        135.4146
342.40        136.0523
342.85        136.3885
343.30        136.5333
343.75        136.6217
344.20        136.8694
344.66        137.3362
345.11         137.897
345.56        138.4796
346.01         138.985
346.46        139.3755
346.91        139.6552
347.36        139.7688
347.81        139.7504
348.26        139.6416
348.72        139.0093
349.17        138.8148
349.62        138.6269
350.07        138.7443
350.52        139.0764
350.97        139.4999
351.42        139.7871
351.87        139.8457
352.32        139.7287
352.77        139.4808
353.22        139.1752
353.67        138.8437
354.13        138.4874
354.58        138.0578
355.03         137.547
355.48         136.968
355.93        136.3396
356.38        135.7537
356.83        135.3347
357.28        135.0832
357.73        134.9483
358.18        134.7681
358.63        134.2873
359.08         133.461
359.53        132.3797
359.98        131.2159
360.43        130.2343
360.88        129.4963
361.33        128.9144
361.78         128.385
362.23        127.7432
362.68        126.9416
363.13        126.0469
363.58        125.0886
364.03        124.1049
364.48        123.1179
364.93         122.107
365.38        121.1127
365.83        120.2096
366.28        119.4083
366.73        118.6918
367.18         117.995
367.63        117.2085
368.08        116.3106
368.53        115.3414
368.98        114.3485
369.43        113.3948
369.88        112.4959
370.33        111.6271
370.78        110.7814
371.23        109.9688
371.68        109.1947
372.13        108.4578
372.58        107.7612
373.03        107.0889
373.48        106.4243
373.93        105.7748
374.38        105.0929
374.83        104.3159
375.28        103.4583
375.72        102.5305
376.17        101.6805
376.62        101.0295
377.07         100.576
377.52        100.2513
377.97        99.94286
378.42        99.47648
378.87        98.82124
379.32        98.05989
379.77         97.2522
380.22        96.46397
380.67        95.71413
381.11        94.97933
381.56        94.29728
382.01        93.76648
382.46        93.40833
382.91        93.20399
383.36        93.03942
383.81        92.73057
384.26        92.23322
384.71        91.58942
385.15        90.89572
385.60        90.38023
386.05        90.06081
386.50        89.87711
386.95        89.70757
387.40        89.37228
387.85        88.84634
388.29        88.15045
388.74        87.52417
389.19        87.05698
389.64        86.76559
390.09        86.60222
390.54        86.45963
390.98        86.15076
391.43         85.6846
391.88        85.11637
392.33        84.59206
392.78        84.21121
393.23        83.97421
393.67         84.0352
394.12        84.32737
394.57        83.78634
395.02        83.13268
395.47        82.96865
395.91        83.37326
396.36        83.26018
396.81        82.60355
397.26        82.02143
397.71        81.61735
398.15        81.21955
398.60        80.93214
399.05        80.80587
399.50        80.77675
399.95        80.56242
400.39        80.22649
400.84        80.18484
401.29        80.35793
401.74        80.11338
402.18        79.48344
402.63        79.00208
403.08        78.73492
403.53        78.43879
403.97        78.13375
404.42        77.98705
404.87        77.94906
405.32        77.90477
405.76        77.82035
406.21        77.68835
406.66        77.49955
407.11        77.37587
407.55        77.28508
408.00        76.89965
408.45        76.32557
408.90        75.97343
409.34        75.89239
409.79        75.92989
410.24        75.98611
410.68        75.96007
411.13        75.82101
411.58        75.61015
412.03        75.37962
412.47        75.23933
412.92        75.19109
413.37        75.20488
413.81         75.2448
414.26        75.32019
414.71        75.39417
415.15        75.49184
415.60        75.52505
416.05        75.40996
416.49        75.14132
416.94        74.74448
417.39        74.33272
417.83        74.06537
418.28         73.9846
418.73        74.05217
419.17        74.17084
419.62        74.18409
420.07        74.04694
420.51        73.79663
420.96        73.55546
421.41         73.4269
421.85        73.39864
422.30        73.54814
422.74        73.73133
423.19        73.67406
423.64        73.41036
424.08        73.43681
424.53        73.66378
424.98        73.67091
425.42        73.45308
425.87        73.19447
426.31        73.01086
426.76        73.04364
427.21        73.26958
427.65        73.47865
428.10        73.54158
428.54        73.53393
428.99        73.47519
429.44        73.22655
429.88        72.87514
430.33        72.78355
430.77        72.86026
431.22        72.97164
431.66        73.03065
432.11        72.97424
432.56        72.83765
433.00        72.71677
433.45        72.50879
433.89        72.46305
434.34        72.58907
434.78        72.33563
435.23        71.64674
435.67        72.65952
436.12        72.81683
436.57        72.94896
437.01        72.43638
437.46        72.07627
437.90        72.70977
438.35        72.44494
438.79        72.66234
439.24        72.61691
439.68        72.63505
440.13        72.40849
440.57        72.06665
441.02        72.19361
441.46         72.6758
441.91        72.88675
442.35        72.74731
442.80        72.87778
443.24        73.17482
443.69        73.22015
444.13        73.02084
444.58        72.79578
445.02        72.63492
445.47        72.83912
445.91        73.27869
446.36        73.45903
446.80        73.32446
447.24        73.10655
447.69        72.91128
448.13         72.9558
448.58        73.02762
449.02        73.04824
449.47        72.94647
449.91        72.89297
450.36        72.90215
450.80        72.78197
451.25        72.58502
451.69        72.53754
452.13        72.59211
452.58        72.38387
453.02        71.96184
453.47         71.7243
453.91        71.67942
454.36        71.64027
454.80        71.55273
455.24        71.38583
455.69        71.14415
456.13        70.87229
456.58        70.68317
457.02        70.38422
457.46        70.42156
457.91        70.44295
458.35        70.60781
458.79         70.6268
459.24        70.53831
459.68        70.35582
460.13        70.14292
460.57        69.94003
461.01         69.7976
461.46        69.52808
461.90        69.47108
462.34        69.31279
462.79         68.8075
463.23        68.88696
463.68        69.30698
464.12         69.2988
464.56        68.89148
465.01        68.90836
465.45        69.18192
465.89        69.16299
466.34        68.88487
466.78        68.51109
467.22        68.10177
467.67        68.18758
468.11        67.70261
468.55        67.74359
468.99         67.8912
469.44        67.87585
469.88        67.65874
470.32        67.38922
470.77        67.13476
471.21        66.91952
471.65        66.76801
472.10        66.67158
472.54        66.61608
472.98        66.58348
473.42        66.56177
473.87        66.62088
474.31        66.68472
474.75        66.62342
475.20        66.46394
475.64        66.42611
476.08        66.50745
476.52        66.49374
476.97        66.34694
477.41        66.36716
477.85        66.53545
478.29        66.21693
478.74        65.79762
479.18        66.10706
479.62        66.13301
480.06        66.26467
480.50        66.15858
480.95        66.18968
481.39        66.32176
481.83        66.12038
482.27        66.28492
482.72        66.02998
483.16        66.08199
483.60        65.98193
484.04        66.22891
484.48        66.07634
484.93        66.33636
485.37        65.81266
485.81        66.47443
486.25        65.90969
486.69        67.96542
487.14        68.36071
487.58        66.81018
488.02        65.77448
488.46        65.62915
488.90        65.85828
489.34        65.35117
489.79        64.87315
490.23        65.77927
490.67        65.91262
491.11        65.75797
491.55        65.52424
491.99        65.32771
492.43         65.1494
492.88        64.99542
493.32        65.13761
493.76         65.0619
494.20        65.10178
494.64        65.13566
495.08        64.89565
495.52         64.8874
495.96        64.93641
496.41        65.12166
496.85        65.05178
497.29        64.74592
497.73        64.88293
498.17        65.03345
498.61        65.01915
499.05        64.72863
499.49        64.34428
499.93        64.05268
500.37        64.25823
500.82        64.81827
501.26        65.08743
501.70        64.97874
502.14        64.57744
502.58        64.52907
503.02        64.16655
503.46        64.21178
503.90        64.19077
504.34        64.21138
504.78        64.22551
505.22        64.23468
505.66        64.14044
506.10        63.98458
506.54        64.08623
506.98         64.4387
507.42        63.99032
507.86         64.5561
508.30        63.87457
508.74        64.18876
509.18        63.96381
509.62         63.7588
510.06        63.67134
510.50        63.69529
510.94        63.71804
511.38        63.69801
511.82        63.68836
512.26        63.67448
512.70        63.62202
513.14         63.5446
513.58        63.48287
514.02        63.44457
514.46        63.41916
514.90        63.38601
515.34        63.34739
515.78        63.30556
516.22          63.244
516.66        63.02665
517.10        63.25195
517.54        63.08636
517.98        63.16906
518.42        63.22954
518.86        63.25337
519.30        63.22943
519.74         63.1314
520.18        63.01165
520.62        63.03059
521.06        63.15313
521.50        63.13321
521.93        62.97498
522.37        62.88554
522.81        62.87641
523.25        62.83321
523.69        62.75472
524.13        62.69535
524.57        62.66022
525.01        62.63219
525.45        62.63282
525.89        62.69634
526.32        62.81764
526.76         62.9861
527.20        63.14832
527.64        63.22285
528.08        63.19154
528.52        63.08141
528.96        62.94117
529.40        62.83998
529.83        62.79799
530.27         62.8285
530.71        62.88857
531.15        62.90631
531.59         62.8681
532.03        62.80171
532.46        62.73816
532.90        62.73841
533.34         62.8052
533.78        62.91265
534.22        63.01387
534.66        63.04055
535.09        62.97034
535.53        62.84958
535.97         62.7042
536.41        62.59179
536.85        62.53123
537.28        62.50672
537.72        62.50798
538.16        62.51939
538.60        62.53076
539.04        62.54816
539.47        62.55153
539.91        62.56036
540.35        62.55887
540.79        62.55013
541.22        62.53215
541.66        62.51836
542.10        62.50832
542.54        62.49716
542.97        62.48935
543.41        62.52473
543.85        62.59692
544.29        62.70227
544.72        62.79526
545.16        62.84936
545.60        62.84583
546.04        62.75993
546.47        62.64676
546.91        62.67839
547.35        62.82783
547.79        62.89431
548.22        62.83024
548.66        62.75619
549.10        62.67742
549.53        62.52531
549.97        62.34417
550.41        62.21972
550.84        62.16996
551.28        62.17638
551.72        62.22506
552.15        62.27621
552.59        62.32484
553.03        62.41772
553.46        62.43919
553.90        62.43239
554.34         62.3591
554.77        62.22865
555.21        62.09574
555.65        62.03328
556.08        62.04898
556.52        62.13596
556.96        62.24144
557.39        62.30051
557.83        62.30584
558.27        62.24705
558.70        62.14664
559.14        62.09221
559.57        62.08173
560.01        62.13057
560.45        62.19139
560.88         62.1678
561.32         62.1192
561.75        62.07179
562.19        62.07439
562.63        62.18427
563.06        62.33002
563.50        62.22411
563.93        61.91462
564.37        61.82397
564.80        61.92973
565.24        61.98707
565.68        61.98027
566.11        62.01643
566.55        62.10639
566.98        62.22315
567.42        62.35809
567.85        62.35027
568.29        62.27131
568.72        62.32541
569.16        62.56944
569.60        62.60789
570.03        62.71805
570.47        62.88265
570.90        63.12129
571.34        63.00894
571.77        63.17522
572.21        63.14127
572.64        63.10762
573.08        63.18908
573.51        62.81673
573.95        63.46147
574.38        63.81357
574.82        64.04601
575.25        63.52129
575.69        63.73045
576.12        63.33583
576.56        63.34463
576.99        63.61617
577.42        63.67265
577.86        63.73863
578.29        64.15565
578.73        64.60429
579.16        64.07713
579.60        63.33209
580.03        63.53054
580.47        63.54108
580.90        63.86669
581.33        63.59197
581.77        63.97476
582.20        64.46371
582.64        64.78729
583.07        64.59459
583.51        63.70944
583.94        63.29277
584.37        62.82019
584.81        62.96223
585.24        63.26757
585.68        63.80767
586.11        63.92907
586.54        63.87334
586.98        63.86506
587.41        63.19797
587.85        63.69498
588.28        63.83377
588.71        64.00314
589.15        63.41542
589.58        63.19351
590.01        62.93041
590.45         62.4874
590.88        62.76213
591.31          62.515
591.75        62.49195
592.18        62.46572
592.61        62.56543
593.05         63.1498
593.48         63.0148
593.91        63.38787
594.35        63.64214
594.78        63.14831
595.21        62.70922
595.65        62.59603
596.08          62.998
596.51        63.11647
596.94        62.88158
597.38        62.73947
597.81        62.65931
598.24        63.06424
598.68        62.73357
599.11        62.72072
599.54        62.89452
599.97        63.10614
600.41         63.0246
600.84        63.36164
601.27        63.08971
601.70        63.05439
602.14        62.51813
602.57        62.31755
603.00        62.38903
603.43        62.53561
603.87        63.22173
604.30        63.13929
604.73        62.99175
605.16        62.48105
605.60        62.56743
606.03        62.62308
606.46        62.85161
606.89        62.54488
607.32        61.93011
607.76         62.9259
608.19        62.36152
608.62        62.50221
609.05         63.0564
609.48        62.60737
609.92        62.56276
610.35        62.55408
610.78        62.54489
611.21        62.38181
611.64        62.45979
612.07        62.49257
612.50        62.59003
612.94        62.61212
613.37        62.56657
613.80        62.56112
614.23        62.42186
614.66         62.3413
615.09        62.25262
615.52        62.14767
615.96         62.0559
616.39        61.92879
616.82        61.74036
617.25        62.02448
617.68        61.84783
618.11        61.78107
618.54         61.7135
618.97        61.69297
619.40        61.78922
619.84        61.38667
620.27        61.51608
620.70        61.43762
621.13         61.4444
621.56         61.5136
621.99         61.6701
622.42        61.75921
622.85        61.69294
623.28        61.93014
623.71        62.07909
624.14        61.70826
624.57        61.85597
625.00        62.09502
625.43        61.60835
625.86        61.62971
626.29        61.84124
626.72        61.51354
627.15        61.56666
627.58        61.46401
628.01        61.55373
628.44         61.2968
628.87        61.05803
629.30        61.56857
629.73        61.27812
630.16         61.1381
630.59        61.15438
631.02         61.3883
631.45        61.11177
631.88        61.14866
632.31        61.27576
632.74        61.11942
633.17        61.27472
633.60        61.20839
634.03        61.10931
634.46        61.02279
634.89        60.89405
635.32         60.8661
635.75        60.91414
636.18         61.0251
636.61        61.15556
637.04        61.23108
637.47        61.22257
637.89        61.19059
638.32        61.15595
638.75        61.06696
639.18        60.91538
639.61        61.14315
640.04        60.96836
640.47        61.02087
640.90        61.06378
641.33        61.11542
641.76        61.15977
642.18        61.19134
642.61        61.19744
643.04        61.17796
643.47        61.13569
643.90        61.08019
644.33        61.01868
644.76        60.94306
645.18        60.86498
645.61        60.82375
646.04        60.81118
646.47        60.76332
646.90         60.7002
647.33        60.70346
647.75        60.76954
648.18        60.88477
648.61        61.02154
649.04        61.07043
649.47        61.00105
649.89        61.16397
650.32        60.93693
650.75        60.99566
651.18        61.10175
651.61        61.08344
652.03        60.97649
652.46        60.80863
652.89        60.63769
653.32        60.84888
653.74         61.2774
654.17        60.88409
654.60        60.99354
655.03        60.89774
655.46        60.68772
655.88        61.42069
656.31        63.15871
656.74         68.7345
657.16        67.75101
657.59        65.56435
658.02        62.30365
658.45        61.35566
658.87         61.6143
659.30        61.37106
659.73        61.24601
660.15        60.46109
660.58        60.99189
661.01        61.37504
661.44        61.85526
661.86         61.7788
662.29        61.20162
662.72        60.87974
663.14        60.89645
663.57        60.90654
664.00        60.87669
664.42         60.8742
664.85        60.89569
665.27        60.84362
665.70        60.90914
666.13        60.90806
666.55         60.9004
666.98        60.88054
667.41        60.85635
667.83        60.85147
668.26        60.87663
668.69        60.86722
669.11        60.81583
669.54        60.90823
669.96        61.18671
670.39        60.84144
670.82        61.29935
671.24        61.18605
671.67        60.98088
672.09        60.96168
672.52        61.13446
672.94        61.16908
673.37        61.05718
673.80        60.99501
674.22        61.00816
674.65        61.00796
675.07         61.0142
675.50        61.03707
675.92        61.07909
676.35        61.12246
676.77        61.16048
677.20        61.21081
677.62        61.27561
678.05        61.27959
678.47        61.20689
678.90        61.34348
679.32        61.21551
679.75        61.25352
680.17        61.31266
680.60        61.40693
681.02        61.50231
681.45        61.51506
681.87        61.45682
682.30        61.39992
682.72        61.37815
683.15        61.35151
683.57         61.3072
684.00        61.38096
684.42        61.23237
684.85        61.24301
685.27        61.29924
685.70        61.36857
686.12        61.41175
686.54        61.42376
686.97        61.39248
687.39        61.34932
687.82        61.31202
688.24        61.28234
688.66        61.24835
689.09        61.45099
689.51        61.42079
689.94        61.54875
690.36        61.67422
690.78        61.76297
691.21        61.80376
691.63         61.7675
692.06        61.69971
692.48        61.71289
692.90        61.79606
693.33         61.8147
693.75        61.77901
694.17        61.73326
694.60        61.65837
695.02        61.73428
695.44        61.68279
695.87        61.49441
696.29          61.224
696.71        61.29437
697.14         61.6588
697.56        61.99131
697.98        62.20642
698.41        62.08447
698.83        62.22387
699.25        62.01024
699.68        61.70293
700.10         61.4985
700.52        61.44678
700.94        61.48962
701.37        61.56536
701.79        61.62986
702.21        61.64026
702.64        61.63007
703.06        61.62426
703.48        61.66004
703.90        61.74919
704.33         61.8714
704.75        61.99493
705.17        62.05381
705.59        62.03091
706.01        61.93909
706.44        61.83964
706.86        61.82743
707.28         61.9063
707.70        62.11787
708.12        62.36938
708.55        62.34714
708.97        62.09361
709.39        62.02909
709.81        62.16599
710.23         62.1852
710.66        62.08755
711.08        62.09461
711.50        62.17472
711.92        62.19085
712.34        62.13473
712.76        62.04195
713.19        61.95735
713.61        61.99989
714.03        62.16071
714.45        62.41092
714.87        62.66652
715.29        62.76004
715.71        62.65548
716.13        62.56314
716.56        62.25228
716.98        62.13279
717.40        62.14611
717.82        62.25853
718.24        62.41615
718.66        62.53381
719.08        62.58474
719.50        62.59389
719.92        62.58405
720.34        62.58699
720.76        62.61233
721.19        62.63615
721.61         62.6645
722.03         62.6823
722.45        62.68958
722.87        62.69944
723.29        62.71847
723.71         62.7538
724.13        62.80797
724.55         62.8712
724.97         62.9536
725.39        63.07331
725.81        63.22318
726.23        63.39027
726.65        63.52881
727.07        63.57316
727.49        63.51604
727.91        63.37073
728.33        63.19139
728.75         63.1047
729.17        63.12345
729.59        63.14229
730.01        63.16195
730.43        63.24431
730.85        63.37682
731.27         63.5142
731.69        63.62031
732.10        63.59916
732.52        63.63675
732.94        63.35979
733.36        62.95494
733.78        62.80093
734.20        62.95563
734.62        63.24033
735.04        63.53384
735.46        63.70324
735.88        63.69961
736.30        63.56845
736.72        63.37868
737.13        63.25726
737.55        63.20481
737.97         63.2238
738.39        63.29726
738.81        63.33365
739.23        63.35239
739.65        63.54593
740.06        63.79534
740.48        63.88224
740.90         63.7594
741.32        63.53822
741.74        63.32102
742.16        63.24469
742.57        63.36339
742.99        63.61832
743.41        63.90414
743.83        64.03272
744.25        63.95972
744.67        63.73639
745.08        63.48419
745.50        63.36592
745.92        63.44247
746.34        63.65703
746.75        63.90283
747.17          64.008
747.59        63.93592
748.01        63.71414
748.42        63.45528
748.84        63.38636
749.26        63.51933
749.68        63.66697
750.09        63.76184
750.51        63.79198
750.93        63.75733
751.35         63.7295
751.76        63.72553
752.18        63.69308
752.60        63.64068
753.01        63.63085
753.43        63.61923
753.85        63.55416
754.27        63.43363
754.68        63.27842
755.10        63.14702
755.52        63.10837
755.93        63.17773
756.35        63.32917
756.77        63.50721
757.18         63.6608
757.60        63.77005
758.02        63.77263
758.43        63.70296
758.85        63.86672
759.26        63.96816
759.68        64.08149
760.10        63.45549
760.51        63.22701
760.93        63.89581
761.34        64.11913
761.76        64.07702
762.18        64.09871
762.59        64.12729
763.01        64.10061
763.42        63.27181
763.84        63.24391
764.26        63.44581
764.67        63.93782
765.09        64.42364
765.50        64.62835
765.92        64.54614
766.33        64.34564
766.75        64.11325
767.16        63.96074
767.58        63.87603
768.00         64.0374
768.41        64.35908
768.83        64.16157
769.24        63.54396
769.66        63.83123
770.07        64.04102
770.49        64.20885
770.90        64.04488
771.32        63.94556
771.73        63.96023
772.15        63.98726
772.56        64.05446
772.97        64.18162
773.39        64.29655
773.80        64.35222
774.22        64.30115
774.63        64.17835
775.05        64.03546
775.46        64.00826
775.88        64.10205
776.29        64.30202
776.70        64.50621
777.12        64.55791
777.53         64.4433
777.95        64.21278
778.36        63.96321
778.77        63.84188
779.19        63.88777
779.60        64.05444
780.02        64.28891
780.43        64.52361
780.84         64.7207
781.26        64.88673
781.67        65.02763
782.09        65.06455
782.50        65.00278
782.91        64.92493
783.33        64.82645
783.74        64.73744
784.15        64.64369
784.57        64.58095
784.98         64.5696
785.39        64.59875
785.81        64.66636
786.22        64.77392
786.63        64.89658
787.04        64.99552
787.46        65.07165
787.87        65.10579
788.28         65.1292
788.70          65.186
789.11        65.26357
789.52        65.35659
789.93          65.447
790.35        65.49583
790.76        65.51033
791.17        65.51201
791.58        65.50974
792.00        65.49838
792.41        65.51454
792.82        65.55027
793.23        65.65406
793.65        65.81821
794.06        66.04336
794.47         66.4436
794.88        66.94022
795.29        66.80323
795.71        67.02279
796.12        66.82178
796.53        66.54526
796.94        66.35297
797.35        66.27302
797.76        66.06272
798.18        65.72993
798.59        65.60416
799.00        65.72597
799.41        65.43145
799.82        65.67108
800.23        65.63841
800.64        65.61211
801.06        65.54801
801.47        65.50938
801.88        65.50832
802.29        65.54643
802.70        65.62522
803.11        65.73223
803.52        65.84744
803.93        65.96022
804.34         66.0698
804.75        66.18281
805.17        66.29483
805.58        66.42748
805.99        66.57691
806.40        66.71362
806.81        66.75298
807.22        66.70058
807.63        66.64962
808.04        66.63847
808.45        66.65495
808.86        66.70421
809.27        66.81076
809.68        66.92771
810.09        66.94704
810.50        66.84978
810.91        66.68258
811.32        66.48196
811.73        66.30726
812.14        66.18496
812.55        66.09074
812.96        66.06015
813.37         66.1502
813.78        66.35469
814.19        66.65469
814.60        66.93614
815.01        67.02409
815.42        66.88422
815.83        66.55146
816.24        66.16123
816.65        65.97552
817.05        66.08362
817.46         66.3931
817.87         66.7757
818.28        66.98817
818.69        66.97708
819.10        66.81573
819.51         66.6379
819.92        66.67652
820.33        66.98388
820.74         67.4537
821.14        67.94283
821.55        68.26534
821.96        68.35319
822.37        68.26836
822.78        68.05589
823.19        67.79734
823.60        67.54113
824.00        67.28281
824.41        67.03286
824.82        66.87569
825.23        66.83098
825.64        66.90823
826.04        67.06389
826.45        67.17342
826.86        67.21881
827.27        67.21664
827.68        67.22446
828.08        67.37335
828.49        67.60899
828.90        67.92238
829.31        68.23572
829.72        68.34127
830.12        68.20812
830.53        68.24123
830.94        67.81441
831.35        67.52555
831.75        67.23771
832.16         66.9365
832.57        66.73418
832.97        66.80272
833.38        67.14832
833.79        67.69701
834.20        68.28368
834.60        68.66135
835.01        68.76364
835.42        68.64985
835.82         68.4095
836.23        68.16113
836.64        67.98433
837.04        67.86797
837.45        67.78519
837.86        67.74807
838.26        67.76643
838.67        67.83781
839.08        67.97942
839.48        68.19119
839.89        68.45045
840.29        68.74007
840.70        69.01218
841.11        69.19653
841.51        69.28706
841.92        69.26189
842.33        69.17043
842.73        69.09869
843.14        69.03345
843.54        68.99559
843.95        68.96532
844.35         68.9301
844.76        68.88017
845.17        68.83239
845.57        68.82352
845.98        68.87115
846.38        69.00326
846.79        69.18043
847.19        69.38271
847.60        69.50233
848.00         69.5491
848.41        69.50932
848.81        69.47047
849.22        69.51093
849.62        69.68571
850.03        69.92303
850.43        70.18105
850.84         70.2881
851.24        70.26462
851.65        70.10101
852.05        69.92091
852.46        69.84051
852.86        69.89913
853.27        70.07909
853.67        70.24701
854.07        70.36855
854.48        70.38796
854.88        70.34307
855.29        70.20481
855.69        70.09386
856.10         69.9449
856.50        69.83251
856.90         69.6638
857.31        69.33165
857.71        68.89687
858.12        68.36839
858.52        67.90166
858.92        67.67699
859.33        67.72524
859.73        68.02531
860.13        68.45636
860.54        68.81718
860.94        69.08509
861.34        69.25008
861.75        69.28325
862.15        69.22934
862.55        69.07653
862.96        68.81341
863.36        68.50021
863.76        68.18925
864.17        67.90694
864.57        67.68297
864.97        67.52796
865.38        67.42908
865.78         67.4193
866.18        67.49349
866.58        67.63166
866.99        67.76839
867.39        67.91409
867.79        68.05726
868.19        68.19044
868.60        68.20889
869.00         68.1662
869.40        68.24876
869.80        68.38824
870.21        68.27029
870.61        67.92843
871.01        67.52443
871.41        67.13887
871.81        66.79592
872.22        66.53805
872.62        66.36186
873.02        66.31055
873.42         66.6172
873.82        67.09151
874.22        67.21184
874.63        67.12083
875.03        67.14168
875.43         67.2846
875.83        68.23813
876.23        67.56701
876.63        66.74532
877.03        65.56307
877.44        63.47529
877.84        165.2559
878.24        64.26915
878.64        64.96887
879.04        66.39149
879.44        66.94717
879.84         64.0935
880.24        69.14308
880.64        69.77036
881.04        68.02419
881.44        66.56015
881.84        65.78538
882.24        65.86601
882.65        66.35425
883.05        66.12464
883.45        64.97469
883.85        63.71894
884.25        62.81163
884.65        62.55715
885.05        63.04853
885.45         64.0683
885.85        65.25787
886.25        66.13259
886.65        66.54341
887.05        66.62463
887.45        66.41016
887.85        65.97276
888.25        65.39748
888.65        64.66801
889.04        63.99544
889.44        63.74487
889.84        63.97979
890.24        64.60085
890.64        65.34921
891.04        65.82221
891.44        65.91811
891.84        65.74046
892.24        65.41439
892.64        65.16635
893.04        65.08366
893.44        65.10519
893.83         65.1923
894.23        65.26227
894.63        65.31143
895.03        65.38621
895.43        65.53525
895.83        65.81631
896.23        66.21623
896.63        66.66448
897.02        67.07498
897.42        67.40218
897.82        67.59445
898.22        67.66866
898.62         67.6042
899.01        67.38279
899.41        67.00523
899.81        66.51463
900.21        65.99731
900.61         65.5891
901.00        65.32496
901.40        65.24886
901.80        65.33032
902.20        65.37486
902.59        65.32356
902.99        65.46487
903.39        65.91143
903.79        65.24899
904.18        66.00732
904.58        66.11839
904.98        66.21259
905.38        66.05084
905.77        65.61612
906.17        65.00239
906.57        64.36971
906.96          64.078
907.36        64.20848
907.76        64.68346
908.15        65.33989
908.55         65.7485
908.95        65.83875
909.34        65.66753
909.74        65.44564
910.14        65.47662
910.53        65.81898
910.93        66.34397
911.33        66.80833
911.72        66.83578
912.12        66.37215
912.52        65.57798
912.91        64.69734
913.31        64.18453
913.70         64.1358
914.10         64.4203
914.49        64.90737
914.89         65.2865
915.29        65.47289
915.68        65.53191
916.08        65.53478
916.47        65.54359
916.87        65.61428
917.26        65.70435
917.66        65.78275
918.05        65.83791
918.45        65.84541
918.84        65.82292
919.24        65.81528
919.64        65.94534
920.03        66.22856
920.42        66.61291
920.82        66.94041
921.21        66.97546
921.61        66.70694
922.00        66.27647
922.40        65.93753
922.79        65.96567
923.19        66.06777
923.58        66.96083
923.98        68.79659
924.37        69.04979
924.77         66.3985
925.16        73.59322
925.55        67.66291
925.95        67.86185
926.34        67.67876
926.74         66.9246
927.13        65.58892
927.52        64.81165
927.92        65.05923
928.31        65.69165
928.70        66.52051
929.10        67.19375
929.49        67.62901
929.89        67.94951
930.28        68.05585
930.67        67.68031
931.07        66.85289
931.46        65.55946
931.85        64.28417
932.24        64.28864
932.64        65.74151
933.03        67.66018
933.42         69.0583
933.82        71.60654
934.21        70.18505
934.60        68.83637
934.99        67.30806
935.39        66.71735
935.78        67.18704
936.17        69.02356
936.56        75.06535
936.96        68.43555
937.35        72.12624
937.74        69.14736
938.13        67.07413
938.53        65.40777
938.92        64.80698
939.31        65.76589
939.70        67.13084
940.09        67.76463
940.49        67.40521
940.88         66.4666
941.27        65.36738
941.66        64.88522
942.05        65.28543
942.44        66.23034
942.84        67.27641
943.23        67.91389
943.62        67.99545
944.01        67.68613
944.40        67.27604
944.79        67.24101
945.18        67.69514
945.57        68.45771
945.97        69.18112
946.36        69.45215
946.75        69.12476
947.14        68.35156
947.53        67.42726
947.92        66.85474
948.31        66.79225
948.70        67.08971
949.09        67.50462
949.48        67.65948
949.87        67.46075
950.26        67.04617
950.65         66.5791
951.04        66.31047
951.43        66.32157
951.82        66.52091
952.21        66.81448
952.60        67.06043
952.99        67.18449
953.38        67.20548
953.77        67.16994
954.16        67.13597
954.55        67.12722
954.94        67.16006
955.33        67.13441
955.72        66.88765
956.11         66.4164
956.50        65.77208
956.89        65.26543
957.28        65.37335
957.66        66.18448
958.05        67.45997
958.44        68.73762
958.83        69.32269
959.22        69.05093
959.61        68.05976
960.00        66.76244
960.39        65.98776
960.78        66.01364
961.16         66.6417
961.55        67.31581
961.94        67.34917
962.33        66.61494
962.72        65.32179
963.11        63.94205
963.49        63.43167
963.88        64.07384
964.27         65.4821
964.66        67.05411
965.04        67.99713
965.43        68.08276
965.82        67.61571
966.21        66.83956
966.60         66.1927
966.98        65.86322
967.37        65.67876
967.76        65.67757
968.15        65.93236
968.53        66.42662
968.92        67.16068
969.31        67.86847
969.69        68.06654
970.08        67.63513
970.47        66.69434
970.86        65.64577
971.24        65.22169
971.63        65.57508
972.02        66.45242
972.40        67.46279
972.79        67.93745
973.17        67.78055
973.56        67.22642
973.95        66.49442
974.33         65.9679
974.72        65.80038
975.11        65.82935
975.49        66.16553
975.88        66.92569
976.26        68.10823
976.65        69.56577
977.04        70.88898
977.42        71.43332
977.81        71.02768
978.19        69.77129
978.58        68.26227
978.96        67.62007
979.35        68.15161
979.74         69.4649
980.12        70.91223
980.51        71.48605
980.89        71.14336
981.28        70.07808
981.66        68.68334
982.05        67.94221
982.43        68.21936
982.82        69.25047
983.20        70.52374
983.59        71.24772
983.97         71.2711
984.35        70.78733
984.74        70.08411
985.12         69.7538
985.51        69.91964
985.89        70.42238
986.28        70.95651
986.66        71.15795
987.04        70.99635
987.43        70.53593
987.81        69.73206
988.20        69.93154
988.58        71.42979
988.96        71.47828
989.35        69.34682
989.73        75.24426
990.12        72.03934
990.50         72.8327
990.88        72.91708
991.27        72.62141
991.65        71.82619
992.03        70.74215
992.42        69.82136
992.80        69.30094
993.18        69.31905
993.56        69.85674
993.95        70.64323
994.33        71.17528
994.71        71.31345
995.10        71.15446
995.48         70.9261
995.86        70.99798
996.24        71.45129
996.63        72.07127
997.01        72.72058
997.39        73.00764
997.77        72.82574
998.15        72.28141
998.54        71.62189
998.92        71.11442
999.30        70.89857
999.68        70.97191
1000.06         71.1085
1000.45        70.83546
1000.83        70.15994
1001.21        69.22617
1001.59        68.58463
1001.97        68.99965
1002.35        70.44724
1002.73        72.50204
1003.12        74.48099
1003.50        75.59659
1003.88        75.69778
1004.26        74.99535
1004.64        73.84398
1005.02        73.00671
1005.40        72.80499
1005.78        73.05241
1006.16        73.42677
1006.54         73.3443
1006.92        72.69971
1007.30        71.83075
1007.69        71.01987
1008.07        70.71884
1008.45        71.01292
1008.83         71.7209
1009.21        72.87192
1009.59        74.43115
1009.97        76.08714
1010.35        77.60403
1010.73        78.69114
1011.11        79.30966
1011.49        79.62549
1011.86        79.38668
1012.24         78.4411
1012.62        79.59409
1013.00        80.21262
1013.38        80.09099
1013.76        77.91524
1014.14        81.51117
1014.52        86.99648
1014.90        79.41622
1015.28        80.24955
1015.66        81.59272
1016.04        78.46672
1016.41        79.41267
1016.79          79.314
1017.17        79.29095
1017.55        78.71434
1017.93        77.87697
1018.31        77.34694
1018.69        77.54276
1019.06         78.6033
1019.44         80.2775
1019.82        81.77165
1020.20        82.01803
1020.58        80.78487
1020.95        77.96185
1021.33        74.43776
1021.71         73.0267
1022.09        74.96844
1022.46        78.85641
1022.84        82.44612
1023.22        84.05981
1023.60        83.80143
1023.97        82.25809
1024.35        80.20927
1024.73        79.23969
