SpectraSmart Spectrum 2.9.0.0
--------- Device Information -----------
Spectrum Name :  反射率_0
Saving Time :  2024/04/21 00:52:58
Spectro-Module Model Name : SE2030-DUVN
Spectro-Module Serial Number : OS361AC55029948
Wavelength Start : 200
Wavelength End : 1025
Wavelength Unit : Wavelength(nm)
Spectrum Unit : Reflectance(%)
-----------Spectrum Setting ------------
Integration Time : 20ms
Average : 10
Boxcar : 0
Background removal :  enabled
linearity correction :  enabled
SC :  disabled
Intensity correction :  disabled
DWT denoise :  enabled
savitzky-golay :  disabled
FFT :  disabled
Running average :  disabled
Kalman :  disabled
High pass :  disabled
---------------BEGIN--------------------
Wavelength(nm)             Reflectance(%)
200.29               0
200.75       -32.73257
201.21        10.16232
201.67        32.39791
202.13        40.66375
202.58        40.93914
203.04         36.1545
203.50        27.90383
203.96        20.96841
204.42        17.90889
204.88        16.80762
205.34        15.39963
205.80        9.417023
206.26       -2.770609
206.72       -18.20967
207.18       -36.75393
207.64       -56.96829
208.10       -72.99131
208.55       -85.30621
209.01       -75.74649
209.47       -33.26714
209.93        10.11227
210.39        41.65024
210.85        60.20863
211.31        66.89226
211.77        64.67519
212.23        52.81133
212.69        28.02306
213.14       -6.391246
213.60       -41.76286
214.06       -87.28493
214.52       -87.18633
214.98        13.93055
215.44        23.81509
215.90        24.29485
216.36        22.21892
216.81        15.99498
217.27       0.8612465
217.73       -64.26566
218.19         677.916
218.65        251.6419
219.11       -382.0485
219.57        22.01691
220.02        46.31678
220.48        50.75199
220.94        49.21648
221.40        41.13866
221.86        20.51853
222.32        5.575806
222.77        22.34318
223.23        37.63992
223.69        45.41125
224.15        47.78488
224.61        47.27794
225.06        45.66098
225.52        42.99528
225.98        38.86483
226.44        33.61189
226.90        26.57776
227.36        21.55563
227.81        25.27913
228.27        34.68148
228.73        44.55712
229.19        51.05226
229.65        52.34861
230.10        49.31225
230.56        43.24988
231.02        35.30198
231.48         30.1145
231.93        30.90381
232.39        35.90185
232.85        41.50969
233.31        44.76367
233.77        45.86943
234.22        46.21699
234.68         46.2186
235.14        46.52001
235.60        47.60739
236.05        48.68348
236.51        49.89235
236.97        55.20537
237.43        64.21178
237.88        71.05235
238.34           73.98
238.80        85.10278
239.26         82.1384
239.71        80.81594
240.17        75.87126
240.63        71.56277
241.08        71.53391
241.54        77.25697
242.00        86.94546
242.46        93.47123
242.91        95.11538
243.37        91.66428
243.83         84.6194
244.28        80.57382
244.74         83.2805
245.20        89.62926
245.66        95.18649
246.11        95.44501
246.57        89.94664
247.03        80.07721
247.48        67.59595
247.94        55.30415
248.40        42.27967
248.85        19.13938
249.31       -42.83234
249.77       -89.79828
250.22        3.732656
250.68        43.24637
251.14        57.68893
251.59        65.60189
252.05        73.35638
252.51         83.7162
252.96         96.4455
253.42        105.6646
253.88        105.6311
254.33        98.66418
254.79        92.81863
255.25         92.4035
255.70        94.89637
256.16        98.18038
256.62        100.2289
257.07        99.96484
257.53        98.75062
257.99        96.94889
258.44        94.79754
258.90        93.49351
259.35        92.24134
259.81        91.32887
260.27        90.25407
260.72        88.66455
261.18         87.1791
261.63        85.51978
262.09        84.09015
262.55        82.54517
263.00         80.7567
263.46        79.06626
263.91        77.39222
264.37        76.27771
264.83        75.58984
265.28        75.08434
265.74        74.68011
266.19        73.91321
266.65        72.83199
267.11        71.47836
267.56        69.94133
268.02        68.49313
268.47        67.13973
268.93        65.87127
269.38        64.59668
269.84        63.26879
270.30        61.86794
270.75        60.44028
271.21        59.09484
271.66        57.89381
272.12        56.88721
272.57        55.98838
273.03        55.16707
273.48        54.28945
273.94        53.36395
274.39        52.37724
274.85        51.38308
275.31        50.35815
275.76        49.31122
276.22        48.31539
276.67         47.3893
277.13        46.69655
277.58        46.16802
278.04        45.78507
278.49        45.40095
278.95        44.94949
279.40        44.33307
279.86        43.64895
280.31        42.83631
280.77        41.94522
281.22        40.96656
281.68        39.99878
282.13        39.08487
282.59        38.40269
283.04        37.93258
283.50        37.65643
283.95        37.50907
284.41        37.44579
284.86         37.4096
285.32        37.44112
285.77        37.44643
286.22        37.33815
286.68        37.13284
287.13        36.80144
287.59        36.52332
288.04        36.45416
288.50         36.6077
288.95        37.00699
289.41        37.52056
289.86        37.51854
290.32        36.92199
290.77        37.40857
291.22        36.46321
291.68         36.4957
292.13        36.77166
292.59        37.29636
293.04        38.01195
293.50        38.89789
293.95        39.92888
294.40        41.09773
294.86        42.32817
295.31         43.4819
295.77        44.53821
296.22        45.50963
296.68         46.5116
297.13        47.71521
297.58         49.1716
298.04        50.82457
298.49        52.57284
298.95        54.27909
299.40        55.87119
299.85        57.39443
300.31        58.87474
300.76        60.31749
301.21        61.74862
301.67        63.18501
302.12        64.62125
302.58        66.17773
303.03        67.83501
303.48        69.62384
303.94        71.50182
304.39        73.33324
304.84        75.09582
305.30         76.8283
305.75        78.53459
306.20        80.34695
306.66         82.2772
307.11         84.2147
307.57        86.09155
308.02        87.71808
308.47         89.0946
308.93        90.31737
309.38        91.42928
309.83        92.58028
310.29        93.84663
310.74         95.1377
311.19        96.43376
311.65        97.67382
312.10        98.81409
312.55        99.87676
313.00        100.8654
313.46        101.7876
313.91        102.6266
314.36        103.3864
314.82        104.0683
315.27        104.6663
315.72        105.2035
316.18        105.6994
316.63        106.1828
317.08        106.6987
317.53         107.253
317.99          107.82
318.44        108.3898
318.89        108.9286
319.35        109.4164
319.80        109.8713
320.25        110.2565
320.70        110.5211
321.16        110.6591
321.61        110.7074
322.06         110.747
322.51        110.9197
322.97        111.2417
323.42        111.7123
323.87        112.2288
324.32        112.6338
324.78         112.859
325.23        112.9861
325.68        113.0649
326.13        113.2133
326.59        113.4414
327.04        113.7725
327.49         114.133
327.94         114.441
328.39        114.6752
328.85        114.8325
329.30        115.0357
329.75        115.3404
330.20        115.7642
330.66        116.2336
331.11        116.7536
331.56         117.187
332.01        117.5016
332.46        117.7281
332.92        117.8598
333.37        118.0441
333.82        118.2706
334.27        118.5352
334.72        118.8471
335.17        119.2204
335.63        119.6202
336.08        120.1004
336.53        120.6337
336.98        121.2201
337.43        121.8428
337.88        122.4948
338.34        123.0742
338.79        123.4843
339.24        123.6902
339.69         123.743
340.14        123.7826
340.59        124.0392
341.05        124.5591
341.50        125.2645
341.95        126.0496
342.40        126.7384
342.85        127.2618
343.30        127.6779
343.75        127.9589
344.20        128.0679
344.66        128.0403
345.11          127.87
345.56        127.7143
346.01        127.8249
346.46        128.2508
346.91        128.8947
347.36        129.5522
347.81         129.994
348.26        130.1678
348.72        129.8031
349.17        129.6846
349.62        129.5816
350.07        129.7482
350.52        130.0737
350.97        130.4111
351.42         130.517
351.87        130.3172
352.32        129.8945
352.77        129.3732
353.22        128.9328
353.67        128.6217
354.13        128.4079
354.58        128.1621
355.03        127.7387
355.48        127.1173
355.93        126.3614
356.38        125.6163
356.83        125.0923
357.28        124.8133
357.73        124.6915
358.18         124.559
358.63        124.1524
359.08        123.4159
359.53        122.4531
359.98         121.393
360.43          120.43
360.88        119.6206
361.33        118.8947
361.78        118.2331
362.23        117.6077
362.68        116.9951
363.13        116.4184
363.58        115.8011
364.03        115.0131
364.48        114.0361
364.93        112.8967
365.38        111.7304
365.83        110.7682
366.28        110.0582
366.73        109.5306
367.18        109.0377
367.63        108.3387
368.08        107.3842
368.53        106.2705
368.98        105.1116
369.43        104.0677
369.88        103.1842
370.33        102.4025
370.78        101.6947
371.23        101.0349
371.68        100.4054
372.13        99.81336
372.58         99.2406
373.03        98.63886
373.48        97.98834
373.93        97.30042
374.38        96.55962
374.83        95.76157
375.28        94.93678
375.72        94.08618
376.17        93.32749
376.62        92.74385
377.07        92.32936
377.52        92.03645
377.97        91.77103
378.42        91.38609
378.87        90.85352
379.32        90.23327
379.77        89.57982
380.22        88.95995
380.67        88.38493
381.11        87.82643
381.56        87.28878
382.01        86.81126
382.46        86.40568
382.91        86.07564
383.36        85.75617
383.81        85.33871
384.26        84.80075
384.71        84.16698
385.15        83.51125
385.60        83.01872
386.05        82.69614
386.50        82.49842
386.95        82.31467
387.40        81.97848
387.85        81.47054
388.29        80.81013
388.74        80.21952
389.19        79.78989
389.64        79.53349
390.09        79.39348
390.54        79.27709
390.98        79.02329
391.43        78.64291
391.88        78.18433
392.33        77.73468
392.78        77.38313
393.23        77.14516
393.67        77.02661
394.12        77.03433
394.57        76.81264
395.02        76.41967
395.47        76.31371
395.91        76.45673
396.36        76.35481
396.81        76.00949
397.26        75.73003
397.71        75.50391
398.15        75.18686
398.60        74.87298
399.05        74.43181
399.50        74.01609
399.95        74.03403
400.39        74.38041
400.84        74.54589
401.29        74.40053
401.74         73.8567
402.18        73.09644
402.63         72.7532
403.08        72.81417
403.53         72.6147
403.97        72.14278
404.42        71.87418
404.87        71.82439
405.32         71.7901
405.76        71.74586
406.21        71.78551
406.66        71.82973
407.11        71.71171
407.55        71.45641
408.00         71.1544
408.45        70.89372
408.90        70.71378
409.34        70.62328
409.79        70.61752
410.24        70.63857
410.68        70.61919
411.13        70.53758
411.58        70.39679
412.03        70.22169
412.47        70.09286
412.92        70.00479
413.37        69.94379
413.81        69.88808
414.26        69.86175
414.71        69.84084
415.15        69.84533
415.60        69.82308
416.05        69.74613
416.49        69.61312
416.94        69.42262
417.39        69.22359
417.83        69.08579
418.28        69.02119
418.73        69.00045
419.17        68.97476
419.62        68.87607
420.07         68.7038
420.51        68.49046
420.96        68.29319
421.41        68.20513
421.85         68.2243
422.30        68.18456
422.74        68.09538
423.19        68.47827
423.64        69.12564
424.08        69.10846
424.53        68.43821
424.98        68.16017
425.42        68.36983
425.87        68.41611
426.31        68.29075
426.76        68.35365
427.21         68.5445
427.65          68.565
428.10        68.41201
428.54        68.32352
428.99        68.33825
429.44        68.39406
429.88         68.4197
430.33        68.25166
430.77        67.92405
431.22        67.94988
431.66        68.25007
432.11        68.31075
432.56        68.17999
433.00        68.20027
433.45        68.15395
433.89         68.2318
434.34        68.60206
434.78        67.53011
435.23        67.26009
435.67        68.85909
436.12        68.30032
436.57        68.41483
437.01        67.98799
437.46        67.70646
437.90        68.31927
438.35        68.25343
438.79        68.58221
439.24        68.55708
439.68        68.45852
440.13        68.13631
440.57        67.74793
441.02        67.89523
441.46        68.43726
441.91        68.57146
442.35         68.2849
442.80        68.44121
443.24        68.91428
443.69        69.03956
444.13        68.78225
444.58        68.48959
445.02        68.24053
445.47        68.25256
445.91        68.48042
446.36        68.51363
446.80        68.30407
447.24        68.22643
447.69        68.39847
448.13        68.03803
448.58        68.60741
449.02        68.55221
449.47          68.347
449.91        68.27671
450.36        68.37923
450.80        68.36162
451.25        68.23778
451.69        68.24946
452.13        68.34261
452.58        68.17297
453.02        67.78806
453.47         67.5633
453.91        67.51494
454.36        67.46913
454.80        67.38303
455.24        67.27567
455.69        67.15791
456.13        66.96559
456.58        66.79691
457.02        66.72577
457.46        66.91246
457.91         66.8261
458.35        66.64698
458.79        66.52877
459.24        66.53365
459.68        66.46945
460.13        66.37652
460.57        66.34272
461.01        66.13036
461.46        66.12487
461.90        66.22964
462.34        65.74969
462.79        65.95461
463.23        65.95847
463.68        66.05801
464.12        65.72835
464.56        65.13071
465.01        65.20242
465.45        65.69802
465.89        65.67165
466.34        65.20312
466.78        64.95445
467.22        64.95936
467.67         65.1123
468.11        64.80347
468.55        64.69353
468.99        64.60822
469.44        64.50739
469.88         64.3895
470.32         64.2588
470.77        64.12971
471.21        64.01937
471.65        63.92987
472.10        63.85589
472.54        63.79413
472.98        63.74484
473.42        63.70337
473.87        63.72898
474.31        63.75944
474.75        63.68667
475.20        63.54384
475.64        63.54515
476.08        63.65633
476.52        63.67291
476.97        63.58161
477.41        63.53126
477.85        63.46034
478.29         63.4603
478.74        63.33841
479.18        63.23991
479.62        63.45845
480.06        63.53519
480.50         63.5711
480.95        63.66784
481.39          63.771
481.83        63.73941
482.27        63.95287
482.72        63.49454
483.16        63.65529
483.60        63.43757
484.04        63.63334
484.48        63.39323
484.93        63.16219
485.37        63.10867
485.81         63.7604
486.25        62.85806
486.69        64.27374
487.14        64.54589
487.58        63.90556
488.02        63.12508
488.46        62.69291
488.90        63.16498
489.34        62.90866
489.79        62.52425
490.23          63.134
490.67        63.13012
491.11        63.01481
491.55        62.85233
491.99        62.73576
492.43        62.66413
492.88        62.64836
493.32        62.74107
493.76        62.84615
494.20         62.9092
494.64        62.93383
495.08        62.57983
495.52        62.45412
495.96        62.53617
496.41        62.86908
496.85        62.90335
497.29        62.61065
497.73        62.54045
498.17        62.39203
498.61        62.50697
499.05        62.69627
499.49        62.45626
499.93         61.9319
500.37        61.95321
500.82        62.44689
501.26        62.54126
501.70        62.49884
502.14        62.10638
502.58        62.04405
503.02        61.93933
503.46        61.91222
503.90        61.97737
504.34        62.05144
504.78        62.01682
505.22        61.89647
505.66        61.75664
506.10        61.62796
506.54        61.65805
506.98        61.89756
507.42         61.4214
507.86        62.14123
508.30        61.77156
508.74        61.99829
509.18        61.87012
509.62        61.76589
510.06        61.72135
510.50        61.72192
510.94         61.6872
511.38         61.5938
511.82        61.50911
512.26        61.43166
512.70        61.32345
513.14        61.21553
513.58        61.17483
514.02        61.20938
514.46        61.30015
514.90        61.38619
515.34        61.40664
515.78        61.34909
516.22        61.20583
516.66        60.88516
517.10        61.07784
517.54        60.92304
517.98        61.07982
518.42        61.23012
518.86        61.30501
519.30        61.27868
519.74        61.14445
520.18        60.98742
520.62         61.0126
521.06        61.19646
521.50        61.28221
521.93          61.235
522.37        61.19703
522.81        61.16414
523.25        61.04082
523.69        60.86469
524.13        60.74824
524.57         60.7102
525.01        60.71851
525.45         60.7542
525.89        60.78663
526.32        60.80101
526.76        60.81257
527.20        60.82145
527.64        60.82884
528.08        60.83379
528.52          60.833
528.96        60.82524
529.40        60.80373
529.83        60.76796
530.27        60.75354
530.71         60.7462
531.15        60.72002
531.59        60.67547
532.03        60.62394
532.46        60.58428
532.90        60.59951
533.34        60.66753
533.78        60.77243
534.22        60.87249
534.66        60.90444
535.09        60.84827
535.53        60.74589
535.97        60.62394
536.41        60.54162
536.85        60.51679
537.28          60.533
537.72         60.5736
538.16        60.61248
538.60         60.6365
539.04        60.65233
539.47        60.64756
539.91        60.65332
540.35        60.65493
540.79        60.64914
541.22        60.62445
541.66        60.57894
542.10        60.51035
542.54        60.42435
542.97        60.33429
543.41        60.28832
543.85        60.29095
544.29        60.34694
544.72        60.41648
545.16        60.47536
545.60        60.49911
546.04        60.46122
546.47         60.4254
546.91        60.52776
547.35        60.73807
547.79        60.98223
548.22        61.13811
548.66        60.98302
549.10        60.61145
549.53        60.44488
549.97        60.51078
550.41        60.47952
550.84        60.36331
551.28        60.35429
551.72        60.43197
552.15        60.53336
552.59        60.66505
553.03        60.46695
553.46        60.71184
553.90        60.53194
554.34        60.28002
554.77        60.30188
555.21        59.96344
555.65        59.89599
556.08        60.09159
556.52        60.43334
556.96        60.81218
557.39        60.84065
557.83        60.56281
558.27        60.33873
558.70        60.25883
559.14        60.18581
559.57        60.13399
560.01        60.33694
560.45        60.64912
560.88        60.60387
561.32        60.30358
561.75        60.13089
562.19        60.17229
562.63        60.31744
563.06          60.481
563.50        60.46436
563.93        60.27719
564.37        60.17414
564.80        60.17908
565.24         60.2949
565.68         60.4573
566.11         60.5138
566.55        60.46806
566.98        60.39552
567.42        60.35744
567.85        60.34426
568.29        60.39189
568.72         60.4763
569.16        60.66081
569.60        60.66272
570.03        60.72623
570.47        60.88789
570.90        61.25676
571.34        60.68361
571.77        61.30212
572.21         61.2565
572.64        61.12594
573.08        60.93483
573.51        60.85051
573.95        61.32181
574.38        61.30902
574.82        61.83143
575.25        61.64312
575.69        61.56796
576.12        60.96464
576.56        61.27974
576.99        61.72656
577.42        61.61106
577.86        61.80258
578.29        61.98819
578.73        62.21481
579.16        61.71251
579.60        61.16558
580.03        61.64701
580.47        61.56307
580.90        61.21202
581.33         61.5834
581.77        61.68649
582.20        62.13969
582.64        62.15948
583.07        61.68673
583.51        61.52696
583.94        61.47966
584.37        61.25727
584.81        61.02135
585.24        61.07351
585.68        61.75424
586.11        61.76062
586.54        61.61286
586.98        61.45549
587.41        61.28344
587.85        61.43227
588.28        61.60334
588.71        61.59821
589.15        61.38667
589.58        61.08271
590.01        60.79457
590.45          60.833
590.88        61.04473
591.31        60.77712
591.75        60.73886
592.18        60.59813
592.61        60.54608
593.05        61.29841
593.48        61.57862
593.91        61.44007
594.35        61.56002
594.78        61.47869
595.21        60.94335
595.65        60.88624
596.08        61.10532
596.51        61.27497
596.94        60.96891
597.38        60.90731
597.81         61.0489
598.24         60.8556
598.68        60.84746
599.11        60.71239
599.54         61.3614
599.97        60.95367
600.41        61.14902
600.84        61.29708
601.27        61.24649
601.70        61.17493
602.14         60.8032
602.57        60.65737
603.00        60.74337
603.43        60.90995
603.87        61.44949
604.30        61.31848
604.73        61.08393
605.16        60.49009
605.60        60.83828
606.03        61.03535
606.46        61.32814
606.89        61.04026
607.32        60.51633
607.76        61.05424
608.19        60.96481
608.62        60.70684
609.05        61.52315
609.48        60.88084
609.92        60.63126
610.35        60.86848
610.78        61.15796
611.21        61.02458
611.64        61.06607
612.07        60.93671
612.50        60.89913
612.94        60.83077
613.37        60.77674
613.80        60.73092
614.23        60.67983
614.66        60.64847
615.09        60.63359
615.52         60.5629
615.96        60.44786
616.39        60.43762
616.82        60.55883
617.25        60.40223
617.68        60.57803
618.11         60.5243
618.54        60.59678
618.97        60.42335
619.40        60.08173
619.84        60.22573
620.27        60.24921
620.70        60.18631
621.13        59.92147
621.56        59.96772
621.99        60.29334
622.42         60.4799
622.85        60.46044
623.28        60.40412
623.71        60.24171
624.14        60.45012
624.57        60.22687
625.00         60.5117
625.43        60.14008
625.86        60.26239
626.29        60.58229
626.72        60.30772
627.15        60.30332
627.58        60.11749
628.01         60.1287
628.44         59.7398
628.87        59.67928
629.30        60.25087
629.73        59.95302
630.16        60.18859
630.59        59.90273
631.02        60.14057
631.45        59.89275
631.88        59.91617
632.31        59.98676
632.74        59.90101
633.17        60.05383
633.60         60.0248
634.03        59.93624
634.46         59.8532
634.89        59.71558
635.32        59.65545
635.75         59.6531
636.18        59.69644
636.61         59.7592
637.04        59.80241
637.47        59.81382
637.89        59.81059
638.32        59.78905
638.75         59.7681
639.18         59.7544
639.61        59.74314
640.04        59.73636
640.47        59.73939
640.90        59.75203
641.33        59.77224
641.76         59.7982
642.18        59.83194
642.61        59.85703
643.04        59.87978
643.47        59.89116
643.90        59.88225
644.33        59.85234
644.76        59.79175
645.18        59.72099
645.61        59.69478
646.04         59.7099
646.47         59.7009
646.90        59.66267
647.33        59.64913
647.75         59.6488
648.18        59.62302
648.61        59.60779
649.04        59.63783
649.47        59.67152
649.89        59.96171
650.32        59.82648
650.75        59.81327
651.18        59.76003
651.61        59.68655
652.03        59.66282
652.46        59.78765
652.89        59.97317
653.32         60.0553
653.74        60.09622
654.17        59.51342
654.60        59.47089
655.03        59.54491
655.46        59.48672
655.88        60.16685
656.31         61.3465
656.74        65.62669
657.16        64.27547
657.59        62.94534
658.02        60.77055
658.45        60.03436
658.87         60.1932
659.30        60.53228
659.73        60.01083
660.15         59.1724
660.58        60.01549
661.01        60.13533
661.44        60.09953
661.86        60.01568
662.29        59.90619
662.72        59.70319
663.14        59.48817
663.57        59.52102
664.00         59.7448
664.42        59.82545
664.85        59.74694
665.27        59.58914
665.70         59.5793
666.13        59.54245
666.55        59.55202
666.98        59.59509
667.41        59.65042
667.83        59.69581
668.26        59.73046
668.69        59.70401
669.11        59.62285
669.54        59.70877
669.96        60.01523
670.39        59.68734
670.82        60.12805
671.24         60.1127
671.67        60.05611
672.09        59.96671
672.52        59.90122
672.94        59.86746
673.37        59.85812
673.80        59.82092
674.22        59.77001
674.65        59.74524
675.07        59.76538
675.50        59.78316
675.92        59.79554
676.35        59.79943
676.77        59.78991
677.20        59.78329
677.62        59.80225
678.05        59.80033
678.47        59.76664
678.90        59.98917
679.32        59.94822
679.75        60.04573
680.17        60.12357
680.60        60.19541
681.02        60.25264
681.45        60.29429
681.87        60.32793
682.30        60.31042
682.72        60.26947
683.15        60.29127
683.57        60.33383
684.00        60.34343
684.42        59.98902
684.85        59.95437
685.27        59.94284
685.70        59.99298
686.12        60.00983
686.54        60.03473
686.97        60.05098
687.39        60.07492
687.82        60.11288
688.24        60.14156
688.66        60.14101
689.09        60.35314
689.51        60.30822
689.94        60.39413
690.36        60.46046
690.78        60.43189
691.21        60.33609
691.63        60.31106
692.06        60.36725
692.48        60.37344
692.90        60.33391
693.33        60.34351
693.75        60.41338
694.17        60.44238
694.60        60.41477
695.02        60.54971
695.44        60.56328
695.87         60.5121
696.29        60.38936
696.71        60.32097
697.14        60.34488
697.56        60.62305
697.98         61.0501
698.41        60.98198
698.83        60.99752
699.25        60.74734
699.68        60.49076
700.10        60.30344
700.52        60.22966
700.94        60.24184
701.37        60.29009
701.79        60.34963
702.21        60.38042
702.64        60.40133
703.06        60.41676
703.48        60.43746
703.90        60.46899
704.33        60.50009
704.75        60.52015
705.17        60.49859
705.59        60.43488
706.01        60.33727
706.44        60.25527
706.86        60.28532
707.28        60.42889
707.70        60.65598
708.12        60.89481
708.55        61.02738
708.97        61.02076
709.39        60.91496
709.81        60.76738
710.23        60.68523
710.66        60.70409
711.08        60.80221
711.50        60.91591
711.92        60.96239
712.34         60.9224
712.76        60.82397
713.19        60.70835
713.61        60.68626
714.03        60.75772
714.45        60.90417
714.87        61.07652
715.29        61.15987
715.71        61.12594
716.13        61.16324
716.56        61.01107
716.98        61.00728
717.40         61.0708
717.82        61.18238
718.24        61.29884
718.66        61.35673
719.08        61.34245
719.50        61.27727
719.92        61.19692
720.34         61.1537
720.76        61.16314
721.19        61.20155
721.61        61.26429
722.03        61.31565
722.45        61.34565
722.87         61.3651
723.29        61.38547
723.71        61.42359
724.13        61.48353
724.55        61.55544
724.97        61.62936
725.39        61.69225
725.81        61.73811
726.23        61.76819
726.65        61.78593
727.07        61.80178
727.49        61.82067
727.91         61.8296
728.33        61.82561
728.75        61.84013
729.17        61.85922
729.59        61.80434
730.01        61.71374
730.43        61.72559
730.85        61.85241
731.27        62.00538
731.69        62.13634
732.10        62.21889
732.52        62.30107
732.94        62.10527
733.36        61.74746
733.78        61.63456
734.20        61.83369
734.62        62.02158
735.04        62.06935
735.46        62.59101
735.88        62.37108
736.30        62.34953
736.72        62.22076
737.13        62.22751
737.55        62.31264
737.97        62.19237
738.39        61.93567
738.81         61.9525
739.23        62.20727
739.65         62.2602
740.06        62.07507
740.48        62.02022
740.90        62.06818
741.32        62.04113
741.74        61.96804
742.16        61.99156
742.57         62.1337
742.99        62.33406
743.41        62.52992
743.83        62.60358
744.25        62.53026
744.67        62.34139
745.08        62.14156
745.50        62.06198
745.92        62.15452
746.34        62.38331
746.75        62.63765
747.17        62.73352
747.59        62.63214
748.01        62.35871
748.42         62.0579
748.84        61.98512
749.26        62.15382
749.68        62.44373
750.09        62.72184
750.51        62.68714
750.93        62.41139
751.35         62.3989
751.76        62.63762
752.18        62.68035
752.60        62.52155
753.01        62.45424
753.43        62.45956
753.85        62.41697
754.27        62.32839
754.68        62.23506
755.10        62.17456
755.52        62.17739
755.93        62.24975
756.35        62.37999
756.77        62.53858
757.18         62.6614
757.60        62.72868
758.02        62.76097
758.43        62.77954
758.85        62.65531
759.26        62.97749
759.68        62.86028
760.10        62.49419
760.51        62.60056
760.93        62.59368
761.34        62.42521
761.76        62.91768
762.18        63.15588
762.59        63.30406
763.01        63.30621
763.42        62.43294
763.84        62.38837
764.26        62.59478
764.67        62.93004
765.09        63.18078
765.50        63.42431
765.92        63.61233
766.33        63.55866
766.75        63.30301
767.16        63.15617
767.58        63.09443
768.00        63.11596
768.41        63.21379
768.83        62.97572
769.24        62.49127
769.66        62.94562
770.07        63.25636
770.49        63.33718
770.90        62.93932
771.32        62.76911
771.73        62.87552
772.15        62.88177
772.56        62.81373
772.97        62.86789
773.39        62.99767
773.80         63.0942
774.22        63.10904
774.63        63.09948
775.05        63.07363
775.46        63.09313
775.88        63.15043
776.29        63.24334
776.70        63.32988
777.12        63.36113
777.53         63.3436
777.95        63.28813
778.36        63.22337
778.77        63.18833
779.19        63.19672
779.60        63.24291
780.02        63.31844
780.43        63.43713
780.84        63.59439
781.26         63.7374
781.67        63.87411
782.09        64.03403
782.50        64.15434
782.91        64.08569
783.33        63.86657
783.74        63.76775
784.15        63.78329
784.57        63.88527
784.98        64.01952
785.39        63.91018
785.81        63.64371
786.22        63.71693
786.63        64.07178
787.04        64.20457
787.46        64.09965
787.87        64.00542
788.28        63.99364
788.70        64.02755
789.11        64.09203
789.52        64.25951
789.93        64.45087
790.35         64.3801
790.76        64.11411
791.17        64.04219
791.58        64.15885
792.00        64.16399
792.41        64.09201
792.82         64.0247
793.23        64.03371
793.65        64.37136
794.06        64.97014
794.47        65.27291
794.88        65.19138
795.29        65.47353
795.71        65.31921
796.12        65.13632
796.53        64.76096
796.94        64.61636
797.35        64.69979
797.76        64.65913
798.18        64.50327
798.59        64.47849
799.00        64.58154
799.41        64.66775
799.82         64.7025
800.23         64.7065
800.64        64.67494
801.06         64.5796
801.47        64.49991
801.88        64.50054
802.29        64.59745
802.70        64.76304
803.11        64.96146
803.52        65.12715
803.93        65.23816
804.34        65.31488
804.75        65.34997
805.17        65.35248
805.58        65.36293
805.99         65.2745
806.40        65.14385
806.81        65.28972
807.22        65.61671
807.63        65.60186
808.04        65.30283
808.45        65.26158
808.86        65.50715
809.27        65.71944
809.68        65.83131
810.09        65.87617
810.50        65.83337
810.91          65.703
811.32        65.51965
811.73        65.34203
812.14        65.19882
812.55        65.08231
812.96        65.02386
813.37        65.06782
813.78        65.21138
814.19        65.43744
814.60         65.6713
815.01        65.79651
815.42         65.7858
815.83        65.66376
816.24        65.48608
816.65        65.36579
817.05         65.3539
817.46         65.4006
817.87        65.49538
818.28        65.57737
818.69         65.6318
819.10        65.67857
819.51        65.75079
819.92        65.89847
820.33        66.11902
820.74        66.37244
821.14        66.59589
821.55        66.72272
821.96        66.72542
822.37        66.63023
822.78        66.46449
823.19        66.28156
823.60        66.11015
824.00        65.95187
824.41        65.80466
824.82         65.7258
825.23        65.72163
825.64        65.79645
826.04        65.90386
826.45        65.92187
826.86        65.84309
827.27        65.69889
827.68        65.56775
828.08        65.61442
828.49        65.80386
828.90        66.12237
829.31        66.50752
829.72        66.76606
830.12        66.85618
830.53        67.18237
830.94        67.02575
831.35        66.89234
831.75        66.60423
832.16        66.16666
832.57        65.75121
832.97        65.64158
833.38        65.88548
833.79        66.38972
834.20        66.95403
834.60        67.26962
835.01        67.25911
835.42        67.01112
835.82        66.65626
836.23         66.3784
836.64        66.27113
837.04        66.29276
837.45        66.37191
837.86        66.45387
838.26        66.52108
838.67        66.58073
839.08         66.6652
839.48        66.80166
839.89        66.98164
840.29         67.1889
840.70        67.36808
841.11         67.4351
841.51        67.39111
841.92         67.2299
842.33        67.04844
842.73         67.0043
843.14        67.09354
843.54        67.30581
843.95        67.55027
844.35         67.7004
844.76        67.71156
845.17        67.62534
845.57        67.51865
845.98        67.48283
846.38        67.57104
846.79        67.72334
847.19        67.90719
847.60         67.9945
848.00        67.99097
848.41        67.90373
848.81        67.82522
849.22        67.83751
849.62         67.9984
850.03        68.22871
850.43        68.49503
850.84         68.6465
851.24        68.69496
851.65        68.61248
852.05        68.48859
852.46         68.3821
852.86        68.32908
853.27        68.36208
853.67         68.3653
854.07        68.31356
854.48        68.17334
854.88        67.98148
855.29        67.80259
855.69        67.91568
856.10        68.27409
856.50        68.87825
856.90        69.46009
857.31        69.62384
857.71        69.32819
858.12        68.63004
858.52        67.77386
858.92         67.1174
859.33        66.78302
859.73        66.73993
860.13        66.87504
860.54        66.98517
860.94        67.06145
861.34        67.12453
861.75        67.19985
862.15        67.39807
862.55        67.68193
862.96         67.9635
863.36        68.17072
863.76        68.15736
864.17        67.89409
864.57        67.47669
864.97        66.95786
865.38        66.40843
865.78        65.92966
866.18        65.50972
866.58        65.28931
866.99        65.47128
867.39        66.08698
867.79        67.00891
868.19        67.95624
868.60        68.46572
869.00        68.52361
869.40        68.39979
869.80        68.13522
870.21        67.66033
870.61         67.1131
871.01        66.58159
871.41         66.1263
871.81        65.73211
872.22        65.41972
872.62        65.23206
873.02        65.16069
873.42        65.33204
873.82        65.55152
874.22        65.31705
874.63        64.90532
875.03         64.8828
875.43        65.31059
875.83         66.8222
876.23        66.73304
876.63         66.4249
877.03         65.6123
877.44        63.76018
877.84        164.5557
878.24        64.71766
878.64        65.45083
879.04        66.86434
879.44        67.29525
879.84        64.04434
880.24        68.49018
880.64        68.37631
881.04        65.83064
881.44         64.0154
881.84        63.54622
882.24        64.47715
882.65        66.02086
883.05        66.58173
883.45        65.84099
883.85        64.67697
884.25        63.64731
884.65        63.26981
885.05        63.70851
885.45        64.69334
885.85        65.77882
886.25        66.35563
886.65        66.27941
887.05        65.76418
887.45        65.03423
887.85        64.45781
888.25        64.18612
888.65        64.10477
889.04        64.19784
889.44        64.45055
889.84         64.8038
890.24         65.2494
890.64        65.68571
891.04        65.95174
891.44        66.01797
891.84        65.92879
892.24        65.71143
892.64        65.43875
893.04         65.1618
893.44        64.86749
893.83        64.66973
894.23         64.7039
894.63        64.98996
895.03        65.50124
895.43        66.04899
895.83        66.30561
896.23        66.20653
896.63        65.84939
897.02        65.44584
897.42        65.37826
897.82        65.68789
898.22        66.24799
898.62          66.857
899.01        67.20069
899.41        67.16505
899.81        66.86441
900.21        66.42681
900.61        66.05735
901.00        65.82289
901.40        65.73554
901.80        65.75251
902.20        65.68233
902.59        65.47523
902.99        65.43199
903.39          65.738
903.79        65.06748
904.18        65.97382
904.58        66.35154
904.98         66.7113
905.38        66.62548
905.77        66.05038
906.17        65.14224
906.57         64.2001
906.96        63.81424
907.36        64.11872
907.76        64.95392
908.15        66.03725
908.55          66.737
908.95         66.9103
909.34        66.67404
909.74        66.28489
910.14        66.12007
910.53        66.28294
910.93        66.63383
911.33        66.95246
911.72        66.90615
912.12        66.44086
912.52        65.69379
912.91        64.90273
913.31        64.50189
913.70        64.57011
914.10         64.9904
914.49        65.54453
914.89        65.78162
915.29         65.6092
915.68        65.13704
916.08        64.63779
916.47          64.491
916.87         64.8111
917.26        65.46399
917.66        66.18255
918.05        66.56545
918.45        66.49297
918.84        66.10047
919.24        65.63649
919.64        65.56302
920.03        65.98399
920.42        66.72308
920.82        67.47623
921.21        67.78368
921.61         67.5596
922.00        67.02158
922.40        66.47895
922.79        66.29047
923.19        66.21003
923.58        66.93404
923.98         68.6298
924.37        68.77857
924.77        66.03304
925.16        73.27885
925.55         67.2952
925.95        67.57868
926.34        67.52135
926.74        66.91999
927.13        65.68246
927.52        64.79682
927.92        64.72128
928.31        64.90864
928.70        65.30074
929.10        65.71769
929.49        66.11411
929.89        66.55067
930.28        66.91698
930.67        66.91927
931.07        66.53725
931.46        65.75071
931.85        64.90868
932.24        65.03643
932.64         66.2775
933.03        67.75604
933.42        68.65954
933.82        70.97984
934.21        69.56412
934.60        68.44846
934.99        67.30084
935.39        67.08736
935.78        67.83687
936.17        69.87784
936.56        75.86604
936.96        69.36215
937.35        72.66405
937.74        69.23848
938.13        66.61904
938.53        64.68391
938.92        64.25198
939.31        65.73841
939.70        67.71879
940.09        68.72923
940.49        68.45362
940.88         67.3779
941.27        66.03857
941.66        65.44482
942.05        65.93188
942.44        67.07656
942.84        68.29612
943.23        68.88574
943.62        68.66559
944.01         67.8756
944.40        66.94921
944.79        66.59984
945.18        67.01726
945.57        67.95813
945.97        68.94134
946.36        69.34105
946.75        68.95589
947.14        67.99818
947.53        66.87552
947.92        66.28497
948.31        66.42314
948.70        67.05011
949.09        67.80006
949.48          68.117
949.87         67.8665
950.26        67.25936
950.65        66.52372
951.04        66.01357
951.43        65.85849
951.82        65.93578
952.21         66.1896
952.60        66.53777
952.99        66.89911
953.38        67.27419
953.77         67.5965
954.16        67.76001
954.55        67.75476
954.94        67.61892
955.33        67.35822
955.72        67.01723
956.11        66.64461
956.50        66.22672
956.89        65.93072
957.28         66.0021
957.66        66.49302
958.05        67.27269
958.44        68.02396
958.83        68.25063
959.22        67.84367
959.61        66.88145
960.00        65.74455
960.39        65.18684
960.78         65.4347
961.16        66.30529
961.55        67.19957
961.94        67.38819
962.33        66.74002
962.72        65.44205
963.11        64.02057
963.49          63.546
963.88        64.32658
964.27        65.95734
964.66        67.70119
965.04        68.57024
965.43        68.31447
965.82        67.28728
966.21        65.94578
966.60        65.10023
966.98        65.03374
967.37        65.48169
967.76          66.189
968.15        66.73909
968.53        67.00537
968.92        67.13473
969.31        67.17986
969.69        67.19013
970.08        67.16898
970.47        67.03491
970.86        66.90962
971.24        67.04456
971.63        67.43879
972.02        68.02802
972.40        68.53153
972.79        68.42824
973.17        67.70072
973.56        66.51794
973.95        65.26191
974.33        64.62149
974.72        64.80106
975.11        65.56659
975.49        66.71042
975.88        67.79826
976.26        68.70431
976.65        69.45602
977.04        69.95033
977.42        69.99981
977.81        69.57052
978.19        68.65463
978.58        67.73342
978.96        67.65204
979.35        68.55614
979.74        70.08799
980.12        71.70076
980.51         72.5417
980.89        72.60988
981.28        72.07859
981.66        71.14993
982.05         70.3969
982.43        70.06246
982.82        70.00314
983.20        70.16437
983.59        70.40198
983.97         70.6923
984.35        71.09423
984.74        71.43186
985.12        71.45721
985.51        71.10635
985.89        70.52533
986.28        69.95139
986.66        69.79838
987.04        70.17968
987.43        70.87003
987.81        71.46592
988.20        72.52413
988.58        74.02424
988.96        73.76041
989.35        71.15883
989.73        76.10989
990.12        72.34548
990.50        72.39549
990.88        71.85812
991.27        71.44259
991.65        71.12387
992.03        71.06509
992.42        71.34396
992.80        71.50332
993.18        71.45554
993.56        71.32174
993.95        71.13914
994.33         70.9523
994.71        70.80982
995.10        70.67243
995.48        70.61929
995.86        70.77757
996.24        71.15117
996.63        71.61708
997.01        72.16244
997.39        72.55847
997.77        72.72748
998.15        72.71806
998.54        72.59167
998.92        72.34305
999.30        72.05003
999.68        71.75074
1000.06        71.48589
1000.45        71.30951
1000.83        71.35371
1001.21        71.55698
1001.59        72.00653
1001.97        72.80582
1002.35        73.85542
1002.73        75.02297
1003.12        76.01518
1003.50        76.51447
1003.88        76.48843
1004.26        76.04917
1004.64        75.39857
1005.02         74.9866
1005.40        74.98251
1005.78        75.22371
1006.16        75.61613
1006.54        75.95652
1006.92        76.16353
1007.30        76.39895
1007.69         76.4275
1008.07        75.97221
1008.45         74.9985
1008.83        73.50262
1009.21        72.16975
1009.59         72.4057
1009.97        74.36475
1010.35         77.2784
1010.73        79.97982
1011.11        81.43705
1011.49        81.66027
1011.86        80.69546
1012.24        78.73092
1012.62        79.42989
1013.00        80.45048
1013.38        81.18374
1013.76        80.11391
1014.14        83.72937
1014.52        88.43159
1014.90        81.08093
1015.28        81.00041
1015.66        81.49552
1016.04        77.59883
1016.41        77.96304
1016.79        77.47387
1017.17         77.4967
1017.55        77.37283
1017.93        77.46648
1018.31        78.05069
1018.69        78.95877
1019.06        80.14937
1019.44         81.4349
1019.82         82.4901
1020.20        82.94298
1020.58        82.73367
1020.95        81.77889
1021.33        80.33828
1021.71        79.21899
1022.09        79.02551
1022.46        79.60955
1022.84        80.33928
1023.22        80.67104
1023.60        80.59645
1023.97        80.27898
1024.35        80.06979
1024.73        80.61559
