SpectraSmart Spectrum 2.9.0.0
--------- Device Information -----------
Spectrum Name :  反射率_0
Saving Time :  2024/04/21 00:18:16
Spectro-Module Model Name : SE2030-DUVN
Spectro-Module Serial Number : OS361AC55029948
Wavelength Start : 200
Wavelength End : 1025
Wavelength Unit : Wavelength(nm)
Spectrum Unit : Reflectance(%)
-----------Spectrum Setting ------------
Integration Time : 20ms
Average : 10
Boxcar : 0
Background removal :  enabled
linearity correction :  enabled
SC :  disabled
Intensity correction :  disabled
DWT denoise :  enabled
savitzky-golay :  disabled
FFT :  disabled
Running average :  disabled
Kalman :  disabled
High pass :  disabled
---------------BEGIN--------------------
Wavelength(nm)             Reflectance(%)
200.29               0
200.75       -70.61925
201.21       -18.52414
201.67        8.433811
202.13        16.84252
202.58        14.00684
203.04        3.529105
203.50       -11.59495
203.96       -22.15742
204.42       -23.21902
204.88       -18.14145
205.34       -11.99431
205.80       -12.49309
206.26       -21.75929
206.72       -36.17341
207.18       -53.64703
207.64       -68.17152
208.10       -72.87316
208.55       -70.96454
209.01       -52.95153
209.47       -16.69922
209.93        14.66515
210.39         35.3863
210.85        46.36215
211.31        48.50008
211.77        43.37913
212.23        29.82915
212.69        2.024248
213.14       -46.35612
213.60       -125.2398
214.06       -328.5263
214.52       -720.9419
214.98       -278.1729
215.44       -56.66626
215.90        11.58042
216.36        32.02278
216.81        31.18426
217.27        10.52728
217.73        -91.6172
218.19        1136.545
218.65        485.8153
219.11       -1067.891
219.57       -45.73641
220.02        19.44662
220.48        31.03928
220.94        24.99249
221.40      0.03486621
221.86        -59.3432
222.32       -93.52317
222.77       -35.44593
223.23        12.60675
223.69        35.75656
224.15        42.15012
224.61         39.5744
225.06        32.60275
225.52        23.15232
225.98        14.05249
226.44        7.072135
226.90       0.1744343
227.36       -2.365485
227.81        5.966213
228.27        19.68471
228.73        32.98426
229.19        41.31419
229.65        42.54534
230.10        37.83625
230.56         28.5112
231.02        16.20173
231.48        8.105834
231.93        9.139446
232.39         16.4655
232.85        24.64623
233.31        29.11417
233.77        30.07314
234.22        29.50844
234.68        28.02473
235.14        26.63968
235.60        26.13079
236.05        25.28169
236.51        24.26819
236.97        29.17898
237.43        40.11253
237.88        47.63865
238.34        48.09799
238.80        67.12988
239.26        57.82578
239.71        54.04604
240.17        43.85524
240.63        35.03294
241.08        33.71707
241.54        43.69765
242.00         61.5629
242.46        72.58261
242.91        72.73025
243.37        61.66278
243.83        42.32068
244.28        30.36391
244.74        35.53175
245.20        50.14548
245.66         64.3295
246.11        68.28081
246.57        60.84899
247.03        45.44594
247.48        24.59698
247.94        1.622452
248.40       -27.04816
248.85       -87.43027
249.31       -265.1548
249.77       -415.5885
250.22       -148.3945
250.68       -32.51935
251.14        7.542775
251.59        23.50702
252.05        32.25779
252.51        39.48779
252.96        46.35943
253.42        52.92648
253.88        57.19466
254.33        58.63836
254.79        60.40485
255.25        63.62695
255.70         67.1805
256.16        70.60572
256.62        73.32529
257.07        75.11583
257.53         76.7082
257.99        77.93318
258.44        78.58018
258.90        79.30016
259.35        79.46307
259.81        79.57404
260.27        79.27967
260.72        78.31795
261.18        77.30062
261.63        76.01587
262.09         74.9061
262.55        73.77862
263.00        72.50712
263.46        71.34173
263.91        70.15639
264.37        69.36412
264.83        68.83109
265.28        68.38612
265.74        67.95446
266.19        67.10854
266.65        65.91608
267.11         64.4327
267.56        62.81071
268.02        61.41159
268.47        60.25111
268.93        59.27021
269.38        58.31282
269.84        57.22062
270.30         55.9371
270.75        54.53954
271.21        53.13523
271.66        51.79386
272.12        50.59219
272.57        49.46995
273.03        48.45712
273.48         47.5197
273.94        46.67642
274.39        45.88591
274.85        45.15418
275.31        44.39415
275.76        43.57924
276.22        42.77612
276.67        41.99419
277.13        41.36771
277.58        40.84919
278.04        40.44535
278.49        40.03088
278.95        39.55513
279.40        38.94302
279.86        38.26962
280.31        37.54351
280.77        36.89893
281.22        36.31361
281.68        35.82975
282.13        35.34542
282.59        34.81739
283.04        34.21095
283.50        33.59486
283.95        33.06084
284.41        32.79413
284.86        32.79341
285.32        33.01052
285.77        33.27394
286.22        33.37314
286.68        33.28526
287.13        33.03008
287.59        32.78353
288.04        32.69487
288.50        32.78693
288.95        33.09425
289.41          33.534
289.86        33.53883
290.32        33.03226
290.77        33.76159
291.22        33.00183
291.68         33.2086
292.13        33.58848
292.59        34.18504
293.04        34.95813
293.50        35.91484
293.95        37.04667
294.40         38.3285
294.86        39.71679
295.31        41.12831
295.77        42.53403
296.22        43.91751
296.68        45.30761
297.13        46.74671
297.58        48.25913
298.04        49.82576
298.49        51.42371
298.95         53.0427
299.40        54.65228
299.85        56.27388
300.31        57.88715
300.76        59.42081
301.21        60.89082
301.67        62.35011
302.12        63.84428
302.58        65.56704
303.03        67.49989
303.48        69.62035
303.94        71.83496
304.39        73.93355
304.84         75.8691
305.30        77.71384
305.75        79.45536
306.20         81.2046
306.66        82.99438
307.11        84.72803
307.57        86.43974
308.02        88.09087
308.47        89.69818
308.93        91.30935
309.38         92.8344
309.83        94.21433
310.29        95.47308
310.74        96.58559
311.19        97.64826
311.65         98.7896
312.10        100.0129
312.55        101.2797
313.00        102.5053
313.46        103.5559
313.91        104.3834
314.36        105.0521
314.82        105.6271
315.27        106.1976
315.72        106.8074
316.18        107.4221
316.63        108.0493
317.08        108.7045
317.53        109.3705
317.99        110.0385
318.44        110.6375
318.89        111.0342
319.35        111.2073
319.80        111.2086
320.25        111.1396
320.70        111.1768
321.16        111.3633
321.61        111.6717
322.06        112.0368
322.51        112.3553
322.97        112.5789
323.42        112.7849
323.87        112.9764
324.32        113.1759
324.78        113.3748
325.23        113.5922
325.68        113.8312
326.13        114.1391
326.59        114.4901
327.04        114.9293
327.49        115.3682
327.94        115.6945
328.39        115.8824
328.85        115.9279
329.30        115.9774
329.75        116.1359
330.20        116.4409
330.66        116.8154
331.11        117.2652
331.56        117.6442
332.01        117.9198
332.46        118.1361
332.92        118.2801
333.37         118.485
333.82        118.7349
334.27        119.0172
334.72        119.3626
335.17        119.8242
335.63        120.3705
336.08        121.0465
336.53        121.7605
336.98         122.411
337.43        122.9561
337.88        123.4024
338.34        123.7467
338.79        124.0618
339.24         124.346
339.69        124.6033
340.14         124.836
340.59        125.0491
341.05        125.2588
341.50        125.4862
341.95        125.7826
342.40        126.2254
342.85        126.8159
343.30        127.5161
343.75        128.2201
344.20        128.7679
344.66         129.123
345.11           129.3
345.56        129.3825
346.01        129.5098
346.46        129.7321
346.91        129.9932
347.36        130.2179
347.81        130.3865
348.26        130.5009
348.72        130.2344
349.17        130.3125
349.62        130.3773
350.07        130.6424
350.52        131.0298
350.97        131.3954
351.42         131.499
351.87        131.2723
352.32        130.7894
352.77        130.1908
353.22        129.6885
353.67        129.3441
354.13         129.129
354.58        128.9093
355.03        128.5262
355.48        127.9513
355.93        127.2405
356.38        126.5475
356.83        126.0983
357.28        125.9083
357.73        125.8748
358.18        125.7808
358.63        125.2884
359.08        124.3352
359.53        123.0601
359.98        121.6612
360.43        120.4345
360.88        119.4699
361.33          118.68
361.78        118.0155
362.23        117.3959
362.68        116.7774
363.13        116.1917
363.58        115.5797
364.03        114.8383
364.48        113.9476
364.93        112.9176
365.38        111.8368
365.83        110.8665
366.28        110.0473
366.73        109.3378
367.18        108.6579
367.63        107.8744
368.08        106.9614
368.53        105.9779
368.98        104.9844
369.43        104.0568
369.88        103.2147
370.33        102.4287
370.78        101.6832
371.23        100.9716
371.68        100.2944
372.13         99.6544
372.58        99.05735
373.03        98.49654
373.48        97.95275
373.93        97.41534
374.38         96.8388
374.83        96.16582
375.28        95.40362
375.72        94.56678
376.17        93.75885
376.62         93.0433
377.07        92.42284
377.52        91.85946
377.97        91.32407
378.42        90.78159
378.87         90.2332
379.32        89.71211
379.77        89.19781
380.22        88.64269
380.67        88.03177
381.11        87.36555
381.56        86.70772
382.01        86.19749
382.46        85.87116
382.91        85.69849
383.36        85.54527
383.81        85.20253
384.26        84.62675
384.71        83.87167
385.15        83.08593
385.60        82.56931
386.05        82.34869
386.50        82.33996
386.95        82.34338
387.40         82.0517
387.85        81.42625
388.29        80.54985
388.74        79.73615
389.19         79.2006
389.64        78.97427
390.09        78.94639
390.54        78.97878
390.98        78.83728
391.43        78.50431
391.88        78.06112
392.33        77.59222
392.78        77.15048
393.23        76.75831
393.67         76.4637
394.12        76.36337
394.57        75.89501
395.02        75.85123
395.47        75.69781
395.91        75.63513
396.36        75.47201
396.81        75.20799
397.26         74.9251
397.71        74.63409
398.15        74.30166
398.60        74.02042
399.05        73.74178
399.50        73.49348
399.95         73.3165
400.39        73.20496
400.84         73.0984
401.29        72.97192
401.74        72.70331
402.18        72.34431
402.63        72.13231
403.08        72.03329
403.53        71.78233
403.97        71.36858
404.42        70.96058
404.87        70.63887
405.32        70.45579
405.76        70.40348
406.21        70.54763
406.66        70.74088
407.11        70.54533
407.55        70.01778
408.00        69.70182
408.45        69.63508
408.90        69.28304
409.34        68.72078
409.79        68.51291
410.24        68.61436
410.68           68.61
411.13        68.47446
411.58        68.39941
412.03        68.39226
412.47         68.4025
412.92        68.39941
413.37        68.39684
413.81        68.37222
414.26        68.35635
414.71        68.33084
415.15        68.30117
415.60        68.23714
416.05        68.15391
416.49        68.05575
416.94        67.93201
417.39        67.78833
417.83        67.62175
418.28        67.43584
418.73        67.23286
419.17        67.01259
419.62        66.78439
420.07        66.55988
420.51        66.34209
420.96        66.17096
421.41         66.0517
421.85        65.95781
422.30        65.93035
422.74        65.93098
423.19        65.98455
423.64        66.07563
424.08        66.27264
424.53        66.44958
424.98         66.4939
425.42        66.39924
425.87        66.11366
426.31        65.78368
426.76         65.7884
427.21        66.08116
427.65        66.21438
428.10        66.10276
428.54        66.02734
428.99        66.01176
429.44        65.87593
429.88        65.61814
430.33        65.41653
430.77        65.24429
431.22        65.12373
431.66        65.03738
432.11         65.0745
432.56        65.25284
433.00        65.23013
433.45        64.78415
433.89        64.79118
434.34         65.3947
434.78        64.19142
435.23         63.5643
435.67        65.17363
436.12        64.82294
436.57        65.03797
437.01        64.46262
437.46        64.40319
437.90        64.85002
438.35        64.57078
438.79        64.77731
439.24        64.66073
439.68        64.58842
440.13        64.52042
440.57        64.45429
441.02         64.3904
441.46        64.33141
441.91        64.27262
442.35        64.18072
442.80         64.5109
443.24        65.10855
443.69          65.118
444.13        64.51443
444.58        64.75667
445.02        64.45261
445.47        64.56163
445.91        64.60891
446.36        64.61866
446.80        64.56278
447.24        64.45155
447.69        64.33121
448.13        64.39114
448.58        64.40211
449.02        64.20286
449.47        63.81347
449.91         63.6139
450.36        63.64969
450.80        63.64489
451.25        63.59826
451.69        63.66513
452.13        63.77951
452.58        63.63512
453.02        63.27672
453.47        63.05738
453.91        62.99417
454.36        62.91584
454.80        62.78394
455.24        62.65123
455.69        62.53846
456.13         62.3452
456.58        62.13165
457.02        62.19806
457.46        62.16927
457.91        62.13316
458.35        62.08252
458.79        62.02885
459.24        62.01195
459.68        61.96224
460.13        61.90197
460.57        61.78181
461.01        61.47585
461.46        61.45886
461.90        61.07687
462.34        60.90036
462.79        61.01905
463.23         60.7063
463.68        61.10788
464.12        60.83816
464.56        60.37357
465.01        60.44014
465.45        60.84222
465.89        60.93902
466.34        60.75644
466.78        60.49145
467.22        60.13759
467.67        60.59591
468.11          59.939
468.55        59.83253
468.99        59.71163
469.44         59.6014
469.88        59.49223
470.32        59.41253
470.77        59.36262
471.21         59.2772
471.65        59.15232
472.10        59.01181
472.54        58.86754
472.98         58.7613
473.42        58.70676
473.87        58.68828
474.31         58.6713
474.75        58.73196
475.20        58.82402
475.64        58.81036
476.08        58.72757
476.52        58.66851
476.97        58.60896
477.41        58.70056
477.85        58.91812
478.29        58.35088
478.74        58.26805
479.18        58.11617
479.62        58.20894
480.06        58.25159
480.50         58.2423
480.95         58.3702
481.39        58.54638
481.83        58.51363
482.27        59.06601
482.72        58.38182
483.16        58.66439
483.60        58.76347
484.04        58.53597
484.48        58.24591
484.93        58.38471
485.37        58.10597
485.81        58.59533
486.25        58.27871
486.69        60.25641
487.14        60.03204
487.58        59.03769
488.02        58.42005
488.46        58.34793
488.90        58.42689
489.34        58.08896
489.79        57.37523
490.23        57.77445
490.67        57.80736
491.11        57.87918
491.55        57.70021
491.99        57.35382
492.43        57.19132
492.88        57.23084
493.32        57.29871
493.76        57.30277
494.20        57.31102
494.64        57.33154
495.08        56.96205
495.52        56.87035
495.96        56.90907
496.41        57.16135
496.85        57.20041
497.29        56.97885
497.73         56.8954
498.17        56.68777
498.61        56.72871
499.05        56.86733
499.49        56.72682
499.93        56.40105
500.37        56.39065
500.82        56.64837
501.26        56.83961
501.70        56.89077
502.14        56.54245
502.58        56.33928
503.02        56.18502
503.46        56.20013
503.90        56.26424
504.34        56.30735
504.78        56.33203
505.22         56.3409
505.66        56.23179
506.10        56.03666
506.54        56.10427
506.98        56.44928
507.42        55.89073
507.86         56.3107
508.30        55.94267
508.74        56.18478
509.18        56.18464
509.62        56.17373
510.06        56.14545
510.50        56.06495
510.94        55.87794
511.38        55.62913
511.82        55.47652
512.26        55.44173
512.70        55.46161
513.14        55.49607
513.58         55.5149
514.02        55.50467
514.46        55.44072
514.90        55.31792
515.34        55.37638
515.78        55.31168
516.22        55.31113
516.66        55.13349
517.10        55.44044
517.54        55.22287
517.98        55.27218
518.42        55.28646
518.86        55.27375
519.30        55.23058
519.74        55.13297
520.18        55.02668
520.62        55.04484
521.06        55.15469
521.50        55.14196
521.93        55.00986
522.37         54.9379
522.81        54.93417
523.25        54.89619
523.69        54.81758
524.13        54.73995
524.57        54.66717
525.01        54.58665
525.45        54.52731
525.89        54.53528
526.32        54.61571
526.76        54.76008
527.20        54.91253
527.64        55.00595
528.08        55.02481
528.52        54.93004
528.96        54.78606
529.40        54.82949
529.83        55.00842
530.27        55.00471
530.71         54.8251
531.15        54.75489
531.59        54.80296
532.03        54.80277
532.46        54.75259
532.90        54.74378
533.34        54.77267
533.78        54.81087
534.22        54.84136
534.66        54.83932
535.09        54.79233
535.53        54.73181
535.97        54.65937
536.41        54.59096
536.85        54.53447
537.28        54.48624
537.72        54.45543
538.16        54.45644
538.60        54.48765
539.04        54.54598
539.47          54.595
539.91        54.62388
540.35        54.61377
540.79        54.57518
541.22        54.52784
541.66        54.51854
542.10        54.55051
542.54        54.60393
542.97        54.65561
543.41        54.69712
543.85        54.71835
544.29        54.74094
544.72        54.74076
545.16        54.72139
545.60        54.67298
546.04        54.54918
546.47        54.42542
546.91        54.49242
547.35        54.70806
547.79        54.91362
548.22        54.99907
548.66        54.83317
549.10        54.50174
549.53        54.34615
549.97        54.39702
550.41        54.37574
550.84        54.28564
551.28        54.32291
551.72        54.45501
552.15        54.52586
552.59        54.53061
553.03        54.46915
553.46        54.42202
553.90        54.33169
554.34        54.22133
554.77        54.07743
555.21        53.96603
555.65        53.96019
556.08        54.05684
556.52        54.29695
556.96        54.56596
557.39        54.58419
557.83        54.38629
558.27        54.25425
558.70         54.2338
559.14        54.17817
559.57        54.09366
560.01        54.17128
560.45        54.32103
560.88        54.25345
561.32        54.04731
561.75        53.88702
562.19        53.85914
562.63        54.01264
563.06        54.25257
563.50        54.26191
563.93        54.05541
564.37        53.95049
564.80        53.98016
565.24        54.14141
565.68        54.37183
566.11        54.46216
566.55        54.40451
566.98         54.3915
567.42        54.48028
567.85        54.28787
568.29        54.35509
568.72        54.42556
569.16        54.67965
569.60        54.74934
570.03        54.85746
570.47        55.03948
570.90        55.33012
571.34        55.04574
571.77        55.22753
572.21        55.22459
572.64        55.08332
573.08        55.01121
573.51        55.12524
573.95         55.4973
574.38        55.21245
574.82        56.02934
575.25         55.9265
575.69        55.71393
576.12        55.38793
576.56        55.65119
576.99        55.57562
577.42        55.77341
577.86         55.8756
578.29        56.30628
578.73        57.00306
579.16        56.09011
579.60        55.59296
580.03        55.57129
580.47        55.68631
580.90        55.79019
581.33        56.08084
581.77        56.19653
582.20        56.90047
582.64        56.88055
583.07        56.43755
583.51        55.82012
583.94        55.44794
584.37        55.29725
584.81        54.99131
585.24        55.09835
585.68        55.68386
586.11        55.78284
586.54        55.85626
586.98        55.77121
587.41        55.12486
587.85        55.35368
588.28         55.9236
588.71         55.8983
589.15        55.54249
589.58        55.30642
590.01        54.86658
590.45        54.88413
590.88        55.10335
591.31        54.81868
591.75        54.66167
592.18        54.41889
592.61        54.38563
593.05        55.03224
593.48        55.57637
593.91         55.8587
594.35        55.65364
594.78        55.43837
595.21        54.92624
595.65        54.86761
596.08         55.0974
596.51        55.26464
596.94        54.82562
597.38        54.73272
597.81        54.92586
598.24        54.78387
598.68        54.48728
599.11        54.77437
599.54        55.18944
599.97        54.76696
600.41        55.03402
600.84        55.27641
601.27        55.07707
601.70        54.94287
602.14        54.85201
602.57        54.69596
603.00        54.57013
603.43        54.59977
603.87        55.02723
604.30        54.92045
604.73        54.77162
605.16        54.64835
605.60        54.65727
606.03        54.71767
606.46         54.8091
606.89        54.72894
607.32        54.36053
607.76        55.06985
608.19         54.8583
608.62        54.73045
609.05        55.75294
609.48        54.72252
609.92        54.90861
610.35         54.5373
610.78        54.77776
611.21        54.87493
611.64        54.63489
612.07        54.57475
612.50        54.56275
612.94        54.66635
613.37        54.52095
613.80        54.45747
614.23        54.37922
614.66        54.32663
615.09        54.29676
615.52        54.23081
615.96        54.13563
616.39        54.07622
616.82        54.06079
617.25        53.95611
617.68        54.00964
618.11        53.86395
618.54        53.77569
618.97        53.71388
619.40        53.72322
619.84        53.68169
620.27        53.64734
620.70        53.59697
621.13        53.55975
621.56        53.45727
621.99        53.40945
622.42        53.59295
622.85        53.89275
623.28        54.12303
623.71        53.91417
624.14        53.94778
624.57        53.76117
625.00        54.19664
625.43         53.6601
625.86        53.64687
626.29        53.70157
626.72         53.6777
627.15        53.54141
627.58        53.50533
628.01        53.60311
628.44        53.41129
628.87        53.32728
629.30        53.59257
629.73        53.67855
630.16         53.7521
630.59        53.53077
631.02        53.69173
631.45        53.45641
631.88        53.45255
632.31        53.48066
632.74        53.28672
633.17        53.39941
633.60        53.32924
634.03        53.24151
634.46        53.18116
634.89        53.09243
635.32        53.08608
635.75        53.13559
636.18        53.22876
636.61        53.32849
637.04        53.38019
637.47        53.36942
637.89        53.31724
638.32        53.23353
638.75        53.15895
639.18        53.10864
639.61        53.07479
640.04        53.05783
640.47        53.05782
640.90        53.07283
641.33        53.10488
641.76        53.14858
642.18        53.19857
642.61        53.23741
643.04         53.2682
643.47        53.28941
643.90        53.30565
644.33        53.31807
644.76         53.3138
645.18        53.29632
645.61        53.28794
646.04         53.2733
646.47        53.20249
646.90         53.1143
647.33        53.01915
647.75        53.10607
648.18        53.19654
648.61        53.31366
649.04        53.34887
649.47        53.27867
649.89        53.41516
650.32        53.20534
650.75        53.25832
651.18        53.36146
651.61        53.26824
652.03        53.02646
652.46         52.9596
652.89        53.13537
653.32        53.35084
653.74         53.4675
654.17        53.80599
654.60        53.02045
655.03        52.85512
655.46        53.01652
655.88        53.67114
656.31        55.45848
656.74        60.45103
657.16        59.40371
657.59        57.79865
658.02        54.82795
658.45        53.19947
658.87         53.3081
659.30         53.5509
659.73         53.6546
660.15        52.63927
660.58        53.06654
661.01        53.36521
661.44        54.04592
661.86        54.02781
662.29        53.38525
662.72        53.06871
663.14        53.16642
663.57        53.29169
664.00        53.37646
664.42        53.42842
664.85        53.43304
665.27        53.34204
665.70        53.34804
666.13         53.3111
666.55         53.2944
666.98        53.28898
667.41        53.28739
667.83        53.28411
668.26        53.28513
668.69        53.24594
669.11        53.17045
669.54        53.24881
669.96        53.52333
670.39        53.23956
670.82         53.6463
671.24        53.61887
671.67        53.53379
672.09        53.46758
672.52        53.45184
672.94        53.37748
673.37        53.25674
673.80        53.17616
674.22        53.15576
674.65        53.14118
675.07        53.14892
675.50        53.19287
675.92        53.25892
676.35        53.29717
676.77        53.29469
677.20        53.28299
677.62         53.2963
678.05        53.29376
678.47        53.26057
678.90        53.53328
679.32         53.5025
679.75        53.58015
680.17         53.5695
680.60        53.66979
681.02        53.59316
681.45        53.54696
681.87           53.47
682.30        53.41117
682.72        53.39555
683.15        53.37855
683.57        53.34441
684.00        53.47601
684.42        53.35181
684.85        53.39155
685.27        53.45768
685.70        53.52348
686.12        53.55947
686.54        53.57366
686.97        53.55932
687.39        53.53889
687.82        53.52105
688.24        53.49631
688.66        53.45261
689.09        53.59945
689.51        53.53782
689.94        53.63253
690.36        53.74261
690.78        53.80831
691.21        53.82139
691.63        53.77464
692.06        53.71104
692.48        53.72406
692.90        53.79634
693.33        53.80473
693.75         53.7545
694.17        53.67757
694.60        53.59014
695.02        53.68919
695.44        53.73486
695.87        53.74226
696.29        53.68006
696.71        53.70768
697.14        53.80582
697.56        53.92612
697.98         54.0521
698.41        53.90725
698.83        54.02715
699.25         53.9551
699.68        53.86192
700.10        53.78328
700.52         53.7497
700.94        53.70148
701.37        53.60427
701.79        53.62656
702.21        53.78878
702.64        53.40056
703.06        53.66935
703.48        53.65266
703.90        53.70823
704.33        53.79536
704.75        53.89406
705.17        53.93093
705.59         53.8841
706.01        53.78179
706.44        53.67739
706.86        53.67752
707.28        53.79109
707.70        53.98209
708.12        54.18676
708.55        54.30042
708.97        54.29203
709.39        54.20169
709.81        54.06782
710.23        53.96245
710.66        53.91671
711.08        53.92069
711.50        53.94727
711.92        53.96807
712.34        53.97478
712.76        53.97836
713.19        53.98552
713.61        54.04383
714.03        54.13517
714.45        54.25383
714.87        54.37586
715.29        54.43096
715.71         54.4036
716.13         54.4538
716.56        54.33368
716.98         54.3185
717.40        54.33259
717.82        54.37042
718.24        54.42145
718.66        54.47164
719.08        54.51669
719.50        54.55988
719.92        54.59957
720.34        54.63018
720.76        54.65158
721.19        54.65673
721.61        54.66479
722.03        54.68358
722.45        54.71561
722.87        54.75653
723.29        54.80231
723.71        54.84566
724.13        54.88334
724.55        54.91706
724.97        54.94469
725.39        54.96309
725.81        54.97379
726.23         54.9784
726.65        54.98301
727.07         55.0036
727.49        55.04469
727.91        55.08579
728.33         55.1254
728.75        55.20241
729.17        55.29519
729.59        55.30913
730.01         55.2644
730.43        55.27992
730.85         55.3638
731.27        55.43348
731.69        55.47761
732.10        55.48425
732.52        55.60284
732.94        55.43719
733.36        55.12066
733.78        54.99137
734.20        55.08792
734.62        55.22343
735.04        55.34694
735.46        55.45067
735.88        55.51787
736.30        55.56618
736.72        55.57348
737.13        55.55552
737.55        55.49361
737.97        55.28199
738.39         55.0342
738.81        55.20587
739.23        55.70463
739.65        55.83851
740.06        55.55679
740.48        55.44796
740.90        55.48774
741.32        55.34103
741.74         55.0687
742.16        54.96908
742.57         55.0907
742.99        55.32782
743.41        55.59443
743.83        55.73827
744.25        55.71776
744.67        55.57972
745.08        55.41036
745.50        55.31234
745.92        55.33495
746.34        55.44762
746.75         55.5833
747.17        55.63103
747.59        55.56799
748.01        55.40419
748.42         55.2324
748.84         55.2226
749.26        55.37287
749.68        55.58161
750.09        55.76033
750.51         55.7249
750.93        55.53312
751.35        55.53492
751.76        55.72537
752.18        55.78381
752.60        55.70322
753.01        55.70342
753.43        55.73581
753.85        55.66356
754.27         55.4829
754.68        55.23978
755.10        55.02227
755.52        54.94137
755.93        55.02262
756.35        55.23891
756.77        55.51563
757.18        55.69378
757.60        55.72862
758.02        55.69632
758.43        55.70036
758.85        55.47021
759.26        55.89926
759.68        55.85599
760.10        55.63525
760.51         55.2044
760.93        55.33187
761.34        55.60863
761.76        56.08583
762.18        56.14233
762.59        55.77399
763.01        55.76691
763.42        55.44201
763.84        55.63885
764.26        55.69449
764.67        55.96967
765.09        56.25718
765.50        56.58736
765.92         56.8513
766.33        56.62681
766.75        56.01448
767.16        55.69962
767.58        55.71312
768.00          55.832
768.41        56.01437
768.83        55.89592
769.24        55.51517
769.66        56.06535
770.07        56.30381
770.49        56.34756
770.90        55.91193
771.32        55.69171
771.73        55.74934
772.15        55.72415
772.56        55.64801
772.97        55.73402
773.39        55.91079
773.80         56.0054
774.22        55.96062
774.63        55.84664
775.05        55.71783
775.46        55.70522
775.88        55.81641
776.29        56.02528
776.70        56.23263
777.12        56.29181
777.53        56.18758
777.95        55.97027
778.36        55.72976
778.77        55.60358
779.19        55.62857
779.60        55.76271
780.02         55.9644
780.43        56.17126
780.84        56.34704
781.26         56.5299
781.67        56.71202
782.09        56.71875
782.50        56.58856
782.91        56.57922
783.33        56.65732
783.74        56.62693
784.15        56.46059
784.57        56.31769
784.98        56.24565
785.39         56.2286
785.81        56.27487
786.22        56.37852
786.63        56.51919
787.04        56.66591
787.46        56.80985
787.87        56.92979
788.28        57.00724
788.70        57.01165
789.11        56.92453
789.52        56.76346
789.93          56.588
790.35        56.48676
790.76        56.50301
791.17        56.63114
791.58        56.80559
792.00        56.92271
792.41        56.98775
792.82        56.93415
793.23        56.86729
793.65        57.16502
794.06        57.78513
794.47        58.17644
794.88        58.22942
795.29        58.51665
795.71        58.43549
796.12        58.25816
796.53        57.88477
796.94         57.7073
797.35        57.73225
797.76         57.6444
798.18        57.44182
798.59        57.32681
799.00        57.29866
799.41        57.23963
799.82        57.15365
800.23        57.11242
800.64        57.11856
801.06        57.12437
801.47        57.15734
801.88        57.19897
802.29        57.24432
802.70         57.2991
803.11        57.34917
803.52        57.36835
803.93        57.35258
804.34        57.30651
804.75        57.26775
805.17        57.28152
805.58        57.37928
805.99        57.55539
806.40        57.75456
806.81        57.82684
807.22        57.77068
807.63        57.73217
808.04        57.75098
808.45        57.77967
808.86        57.82832
809.27         57.9473
809.68        58.09405
810.09        58.15897
810.50        58.11975
810.91        58.01076
811.32        57.88099
811.73        57.80126
812.14        57.79033
812.55        57.84937
812.96        57.94022
813.37        57.92727
813.78        57.82529
814.19        57.82183
814.60        57.89173
815.01        57.85092
815.42        57.69588
815.83        57.52652
816.24        57.40275
816.65        57.38676
817.05         57.5104
817.46        57.73249
817.87        58.00902
818.28        58.23671
818.69         58.3897
819.10        58.48817
819.51         58.5666
819.92        58.69035
820.33        58.86446
820.74        59.04289
821.14        59.18555
821.55        59.25823
821.96        59.24183
822.37        59.16795
822.78        59.02642
823.19        58.80009
823.60        58.50526
824.00        58.15912
824.41        57.84271
824.82         57.7395
825.23        57.88248
825.64        58.23537
826.04        58.64431
826.45         58.8223
826.86        58.71756
827.27        58.39926
827.68        58.04246
828.08        57.98105
828.49        58.23489
828.90        58.74665
829.31        59.35023
829.72        59.66774
830.12        59.60804
830.53        59.71645
830.94         59.2296
831.35        58.97189
831.75        58.76981
832.16         58.5925
832.57        58.47346
832.97        58.47223
833.38         58.5882
833.79        58.79769
834.20        59.06595
834.60        59.33372
835.01        59.56749
835.42        59.77124
835.82        59.90598
836.23        59.87501
836.64        59.68779
837.04        59.39204
837.45        59.06388
837.86        58.88257
838.26        58.90524
838.67        59.07349
839.08        59.33883
839.48        59.59972
839.89        59.80637
840.29        59.98091
840.70        60.11565
841.11        60.19263
841.51        60.22358
841.92        60.16913
842.33        60.06777
842.73        59.99196
843.14        59.92547
843.54        59.89613
843.95        59.87592
844.35        59.82898
844.76        59.74657
845.17        59.64906
845.57        59.59586
845.98        59.64943
846.38        59.84061
846.79         60.1111
847.19        60.40957
847.60        60.58555
848.00        60.62695
848.41        60.53442
848.81        60.39321
849.22        60.29335
849.62        60.30379
850.03        60.37248
850.43         60.4724
850.84        60.45605
851.24        60.34539
851.65        60.12343
852.05        59.94067
852.46        59.97301
852.86        60.24584
853.27         60.7139
853.67        61.13231
854.07        61.29607
854.48        61.14145
854.88        60.75083
855.29        60.25446
855.69        60.04264
856.10        60.14465
856.50        60.54289
856.90        60.99064
857.31        61.11221
857.71        60.86082
858.12        60.30709
858.52          59.675
858.92        59.28817
859.33        59.23752
859.73        59.46675
860.13        59.81536
860.54        60.01775
860.94        60.04734
861.34        59.94195
861.75        59.77739
862.15          59.748
862.55         59.8608
862.96        60.02972
863.36         60.1776
863.76        60.14211
864.17        59.88941
864.57         59.5137
864.97        59.07913
865.38        58.67305
865.78        58.37674
866.18        58.15961
866.58        58.09811
866.99         58.2853
867.39        58.73581
867.79        59.38994
868.19        60.04366
868.60        60.30993
869.00        60.21052
869.40        60.03739
869.80        59.83758
870.21        59.48688
870.61        59.09168
871.01        58.77866
871.41        58.54134
871.81        58.25851
872.22        57.94246
872.62        57.63438
873.02        57.39134
873.42        57.51172
873.82        57.79642
874.22        57.59891
874.63        57.16341
875.03        57.01993
875.43        57.22313
875.83        58.64254
876.23        58.07604
876.63         57.4179
877.03        56.37398
877.44        54.26289
877.84        180.8414
878.24        56.05125
878.64        57.01731
879.04        58.70003
879.44        59.18496
879.84        55.34411
880.24        61.30344
880.64        61.74356
881.04        59.22828
881.44         57.2662
881.84        56.45052
882.24        56.95948
882.65         58.0994
883.05        58.24186
883.45         57.0939
883.85        55.67439
884.25        54.58635
884.65        54.29983
885.05        54.95714
885.45        56.27661
885.85        57.73888
886.25        58.63488
886.65        58.78246
887.05        58.39119
887.45        57.69324
887.85        57.08575
888.25        56.73636
888.65        56.53861
889.04         56.4718
889.44        56.51794
889.84        56.64168
890.24        56.86103
890.64         57.1481
891.04        57.44258
891.44        57.71302
891.84        57.95109
892.24        58.08462
892.64         58.0107
893.04        57.73045
893.44        57.30161
893.83        56.87788
894.23        56.65268
894.63        56.69346
895.03        56.95758
895.43        57.36268
895.83        57.75553
896.23        58.06674
896.63        58.30484
897.02        58.48723
897.42        58.70171
897.82        58.93064
898.22        59.13552
898.62         59.2292
899.01         59.0918
899.41         58.6971
899.81        58.12637
900.21        57.51395
900.61        57.06633
901.00        56.84574
901.40        56.88416
901.80        57.12891
902.20        57.31936
902.59        57.37164
902.99        57.64218
903.39        58.29362
903.79        57.64176
904.18        58.77435
904.58        59.15724
904.98        59.47493
905.38        59.31315
905.77        58.65028
906.17        57.63361
906.57        56.59373
906.96        56.18079
907.36        56.53451
907.76        57.47736
908.15        58.66352
908.55        59.35649
908.95        59.38719
909.34        58.91211
909.74        58.24594
910.14         57.8574
910.53        57.88587
910.93        58.16888
911.33        58.48591
911.72        58.50001
912.12        58.14321
912.52        57.55353
912.91        56.93143
913.31        56.65216
913.70          56.772
914.10        57.16851
914.49        57.65493
914.89        57.84924
915.29        57.67589
915.68        57.24407
916.08        56.75683
916.47        56.47928
916.87        56.51956
917.26        56.78446
917.66        57.15644
918.05        57.47036
918.45        57.64215
918.84        57.71536
919.24        57.74467
919.64         57.8754
920.03        58.12685
920.42        58.42147
920.82        58.60599
921.21         58.4616
921.61        57.99859
922.00        57.39358
922.40        56.91498
922.79        56.81391
923.19        56.71062
923.58        57.56347
923.98         59.6832
924.37        59.94528
924.77        56.68113
925.16         66.2309
925.55        59.06028
925.95        59.65354
926.34        59.63937
926.74        58.80219
927.13        57.18833
927.52        56.32266
927.92        56.80325
928.31        57.81461
928.70        58.99714
929.10        59.74947
929.49        59.95499
929.89        59.81925
930.28        59.42767
930.67        58.84027
931.07        58.17593
931.46        57.29846
931.85        56.48591
932.24        56.72825
932.64          58.129
933.03        59.70624
933.42        60.54079
933.82         63.2816
934.21        61.44631
934.60        60.09201
934.99        58.74509
935.39        58.55016
935.78        59.51086
936.17        62.05705
936.56        69.58674
936.96        61.44914
937.35        65.72456
937.74        61.62945
938.13        58.55626
938.53        56.19572
938.92        55.51366
939.31        57.07145
939.70          59.272
940.09        60.50928
940.49         60.4177
940.88        59.54291
941.27        58.38164
941.66        57.84592
942.05        58.24895
942.44         59.1794
942.84        60.12947
943.23        60.53078
943.62        60.22521
944.01        59.41645
944.40        58.49885
944.79        58.11469
945.18         58.4307
945.57        59.23507
945.97        60.05821
946.36        60.28382
946.75        59.72396
947.14        58.59544
947.53        57.33202
947.92        56.67868
948.31        56.84347
948.70        57.56623
949.09        58.46729
949.48        58.96745
949.87        58.91419
950.26        58.51735
950.65        57.95731
951.04        57.51679
951.43        57.30745
951.82        57.20933
952.21        57.23805
952.60        57.44603
952.99        57.78315
953.38        58.21646
953.77        58.58588
954.16        58.63322
954.55        58.33033
954.94        57.78743
955.33        57.11309
955.72         56.5378
956.11          56.185
956.50        55.97954
956.89        56.06218
957.28        56.63185
957.66        57.68126
958.05        59.05342
958.44        60.33095
958.83        60.88076
959.22        60.57964
959.61         59.5473
960.00        58.23479
960.39        57.55113
960.78         57.7831
961.16        58.69715
961.55        59.69724
961.94        60.07528
962.33        59.69165
962.72        58.76289
963.11        57.67705
963.49        57.21376
963.88        57.63251
964.27        58.62105
964.66        59.72494
965.04        60.35965
965.43        60.33182
965.82        59.87066
966.21        59.19374
966.60        58.67993
966.98        58.47696
967.37        58.46756
967.76        58.56152
968.15        58.61596
968.53        58.60999
968.92        58.61407
969.31        58.66661
969.69        58.79791
970.08        58.98351
970.47        59.15113
970.86        59.35427
971.24        59.70377
971.63        60.16516
972.02        60.71232
972.40        61.11198
972.79        60.92002
973.17         60.1552
973.56         58.9659
973.95        57.78614
974.33        57.39212
974.72          57.986
975.11        59.28834
975.49        60.95288
975.88        62.31427
976.26        63.19979
976.65        63.72084
977.04        63.88105
977.42        63.65825
977.81        63.06773
978.19        62.01942
978.58        61.05612
978.96        61.10611
979.35        62.28135
979.74         64.1837
980.12        66.04492
980.51        66.70174
980.89        66.11396
981.28        64.48882
981.66        62.25438
982.05        60.62893
982.43        60.14993
982.82        60.59387
983.20        61.53236
983.59         62.2378
983.97         62.5243
984.35        62.56083
984.74        62.49696
985.12        62.63043
985.51        62.99029
985.89          63.506
986.28        63.90445
986.66        63.91324
987.04        63.55319
987.43        62.81076
987.81        61.75256
988.20        62.30997
988.58        64.79807
988.96         65.7479
989.35        64.08065
989.73        71.21565
990.12        67.10641
990.50        67.11589
990.88        66.16329
991.27        65.45046
991.65        65.07117
992.03        65.10386
992.42        65.47342
992.80        65.33688
993.18        64.55857
993.56        63.45292
993.95        62.37261
994.33        61.80524
994.71        61.92722
995.10        62.56594
995.48         63.5458
995.86        64.58405
996.24        65.51428
996.63        66.26142
997.01        66.92661
997.39        67.48552
997.77        67.89118
998.15        68.09955
998.54        68.01008
998.92        67.36439
999.30        66.19527
999.68         64.6504
1000.06        63.02407
1000.45        61.88983
1000.83        61.61885
1001.21        62.05604
1001.59        63.14423
1001.97        64.72511
1002.35        66.52667
1002.73        68.40388
1003.12        69.95853
1003.50        70.77412
1003.88        70.80805
1004.26        70.18316
1004.64        69.13335
1005.02        68.23335
1005.40        67.73399
1005.78        67.46663
1006.16        67.42662
1006.54        67.51743
1006.92        67.68076
1007.30        68.10297
1007.69        68.38692
1008.07           67.99
1008.45        66.84022
1008.83        64.99824
1009.21        63.36869
1009.59        63.81366
1009.97        66.51414
1010.35        70.36757
1010.73        73.95858
1011.11        76.11095
1011.49        76.84522
1011.86        76.24059
1012.24        74.30093
1012.62        74.87057
1013.00        75.12371
1013.38        74.57142
1013.76        71.52862
1014.14        76.18398
1014.52        83.41994
1014.90        74.30154
1015.28        75.99212
1015.66        78.02526
1016.04        74.35943
1016.41        75.20426
1016.79        74.59586
1017.17        74.11482
1017.55        73.09705
1017.93         71.9231
1018.31        71.23129
1018.69        71.40596
1019.06        72.60416
1019.44        74.52895
1019.82         76.4695
1020.20        77.52836
1020.58        77.55227
1020.95        76.53962
1021.33        75.00546
1021.71        74.31685
1022.09        75.12508
1022.46        76.81579
1022.84        78.30845
1023.22        78.81275
1023.60        78.38289
1023.97        77.30651
1024.35        76.12038
1024.73        75.87607
