SpectraSmart Spectrum 2.9.0.0
--------- Device Information -----------
Spectrum Name :  反射率_0
Saving Time :  2024/04/21 00:40:51
Spectro-Module Model Name : SE2030-DUVN
Spectro-Module Serial Number : OS361AC55029948
Wavelength Start : 200
Wavelength End : 1025
Wavelength Unit : Wavelength(nm)
Spectrum Unit : Reflectance(%)
-----------Spectrum Setting ------------
Integration Time : 20ms
Average : 10
Boxcar : 0
Background removal :  enabled
linearity correction :  enabled
SC :  disabled
Intensity correction :  disabled
DWT denoise :  enabled
savitzky-golay :  disabled
FFT :  disabled
Running average :  disabled
Kalman :  disabled
High pass :  disabled
---------------BEGIN--------------------
Wavelength(nm)             Reflectance(%)
200.29               0
200.75       -23.50844
201.21         11.4198
201.67         30.4318
202.13         36.7235
202.58        35.25782
203.04        29.33658
203.50        21.10854
203.96        16.56795
204.42         18.3779
204.88        23.21952
205.34        28.75438
205.80         31.9953
206.26        32.19355
206.72        31.97359
207.18        28.02831
207.64        13.36002
208.10       -11.29968
208.55       -42.81157
209.01       -57.69587
209.47       -31.48497
209.93        6.546584
210.39        37.26989
210.85        56.55914
211.31        64.08472
211.77        62.75083
212.23         53.0436
212.69        31.28568
213.14       -3.670895
213.60       -53.19125
214.06       -166.8242
214.52       -361.5277
214.98       -114.2809
215.44       -2.043761
215.90        32.04859
216.36        41.66979
216.81        39.24686
217.27        23.99776
217.73       -48.09537
218.19        812.0835
218.65        353.1113
219.11       -708.9667
219.57       -11.91392
220.02        32.34694
220.48        40.09176
220.94        35.83744
221.40        19.12778
221.86       -21.60674
222.32       -49.82402
222.77       -15.01489
223.23        15.80773
223.69        32.13575
224.15        39.38428
224.61        42.38454
225.06        44.08057
225.52        43.93732
225.98        39.97751
226.44        32.10416
226.90        19.96557
227.36        8.979204
227.81        10.14481
228.27        20.70668
228.73        33.12756
229.19        41.71212
229.65        43.66019
230.10        40.01099
230.56        32.49367
231.02        22.42267
231.48         15.3932
231.93        15.53451
232.39        20.73169
232.85        26.84964
233.31        30.38337
233.77        31.44005
234.22        31.59969
234.68        31.14292
235.14        30.44829
235.60        30.00722
236.05        28.88641
236.51         27.2785
236.97        31.13663
237.43        40.83101
237.88        47.05107
238.34        46.07171
238.80        65.33804
239.26        55.89353
239.71        53.43766
240.17        45.22704
240.63        37.54659
241.08         34.9484
241.54        40.81789
242.00        53.20542
242.46        59.62021
242.91         56.6032
243.37        43.87059
243.83        25.48581
244.28        18.67857
244.74        31.93497
245.20        55.23073
245.66        76.39655
246.11        83.90982
246.57        77.03217
247.03        59.73463
247.48        35.28361
247.94        8.154727
248.40       -25.29548
248.85       -94.55827
249.31       -293.5396
249.77       -440.4857
250.22        -133.935
250.68        -7.77973
251.14        34.39207
251.59        50.76524
252.05        59.19584
252.51        64.69508
252.96        66.60055
253.42         62.4399
253.88        52.84954
254.33        42.26997
254.79        37.69426
255.25        41.15722
255.70        48.28443
256.16        55.59331
256.62        61.59741
257.07        65.66225
257.53         68.5138
257.99        70.34581
258.44        70.76662
258.90        70.17105
259.35        68.33495
259.81        66.10088
260.27        63.73906
260.72        61.66435
261.18         60.3001
261.63        59.18062
262.09        58.26604
262.55        57.03748
263.00        55.42854
263.46        53.82207
263.91          52.332
264.37        51.55537
264.83         51.3866
265.28        51.51746
265.74         51.7356
266.19        51.55343
266.65        50.96289
267.11        50.04792
267.56        48.90957
268.02        47.80353
268.47        46.75159
268.93        45.72862
269.38        44.66224
269.84        43.51691
270.30         42.2871
270.75        41.02849
271.21        39.84568
271.66        38.80922
272.12        37.96379
272.57        37.24656
273.03        36.62633
273.48        36.00092
273.94        35.37193
274.39         34.7444
274.85        34.13918
275.31         33.5147
275.76         32.8706
276.22        32.24382
276.67        31.69833
277.13        31.41856
277.58        31.35078
278.04        31.44321
278.49        31.48422
278.95        31.27024
279.40        30.72604
279.86        29.98394
280.31        29.13853
280.77        28.42396
281.22        27.86592
281.68        27.46626
282.13        27.13284
282.59        26.81644
283.04        26.46944
283.50        26.13623
283.95        25.87156
284.41        25.78407
284.86        25.86539
285.32        26.09118
285.77        26.30675
286.22        26.31667
286.68        26.11755
287.13        25.73385
287.59        25.39916
288.04        25.35766
288.50        25.62489
288.95        26.21762
289.41        26.94857
289.86        27.06754
290.32        26.45712
290.77        27.07967
291.22        26.00348
291.68        26.04008
292.13          26.343
292.59        26.91651
293.04        27.66773
293.50        28.52403
293.95        29.46052
294.40        30.48233
294.86        31.58175
295.31        32.72859
295.77        33.91395
296.22        35.11565
296.68        36.35117
297.13        37.64812
297.58        39.03115
298.04        40.50045
298.49        42.05162
298.95        43.69415
299.40        45.40142
299.85        47.17324
300.31        48.97823
300.76        50.74197
301.21        52.45829
301.67        54.16194
302.12        55.86698
302.58         57.7107
303.03        59.67714
303.48        61.76669
303.94        63.91892
304.39        65.98392
304.84        67.93203
305.30        69.81575
305.75        71.63857
306.20        73.51857
306.66        75.48082
307.11        77.43991
307.57        79.37201
308.02        81.16236
308.47         82.8165
308.93        84.39994
309.38        85.91191
309.83        87.41966
310.29        88.97976
310.74        90.49297
311.19        91.94144
311.65        93.26462
312.10        94.43094
312.55        95.47849
313.00        96.41413
313.46        97.25189
313.91         97.9958
314.36        98.65784
314.82        99.30733
315.27          100.04
315.72        100.8795
316.18         101.801
316.63         102.712
317.08        103.4612
317.53        104.0049
317.99        104.3744
318.44        104.6516
318.89         104.962
319.35        105.3379
319.80         105.745
320.25        106.1218
320.70         106.397
321.16        106.5094
321.61         106.551
322.06        106.5685
322.51         106.656
322.97        106.8276
323.42         107.091
323.87        107.4014
324.32        107.7031
324.78        107.9526
325.23        108.2011
325.68        108.4374
326.13        108.6757
326.59        108.8941
327.04        109.1393
327.49        109.3755
327.94        109.5867
328.39        109.7723
328.85        109.9067
329.30        110.0845
329.75        110.3252
330.20        110.6346
330.66        110.9585
331.11        111.3189
331.56        111.6068
332.01        111.8056
332.46        111.9489
332.92        112.0214
333.37        112.1497
333.82        112.3184
334.27        112.5152
334.72        112.7855
335.17        113.2016
335.63        113.7341
336.08        114.4225
336.53        115.1339
336.98        115.6937
337.43        116.0532
337.88        116.2492
338.34        116.3568
338.79        116.5758
339.24        116.9343
339.69        117.3851
340.14         117.862
340.59        118.2643
341.05        118.5662
341.50        118.8121
341.95        119.0494
342.40        119.3523
342.85        119.7393
343.30        120.1835
343.75        120.6246
344.20        120.9774
344.66        121.2271
345.11        121.3715
345.56        121.4797
346.01        121.6595
346.46        121.9332
346.91        122.2467
347.36        122.4919
347.81        122.5761
348.26        122.4935
348.72        122.0426
349.17        121.8087
349.62        121.6314
350.07        121.6997
350.52        121.9365
350.97        122.2231
351.42        122.3565
351.87         122.268
352.32        122.0121
352.77        121.6704
353.22        121.3679
353.67        121.1343
354.13        120.9428
354.58        120.6928
355.03        120.2863
355.48         119.713
355.93        119.0255
356.38        118.3279
356.83        117.7685
357.28        117.3645
357.73        117.0504
358.18        116.7235
358.63         116.225
359.08        115.5175
359.53         114.665
359.98        113.7214
360.43        112.7624
360.88        111.8212
361.33        110.8763
361.78        109.9615
362.23        109.1332
362.68        108.3996
363.13        107.7568
363.58        107.1342
364.03        106.4092
364.48        105.5555
364.93        104.6043
365.38        103.6362
365.83        102.7906
366.28        102.0947
366.73        101.4897
367.18        100.9042
367.63        100.2288
368.08        99.43288
368.53        98.56622
368.98        97.63837
369.43        96.64762
369.88        95.60803
370.33           94.52
370.78        93.45866
371.23        92.57265
371.68        91.90758
372.13        91.42801
372.58        91.05102
373.03        90.62473
373.48        90.08982
373.93        89.47588
374.38        88.79813
374.83        88.09867
375.28        87.41051
375.72        86.71228
376.17        86.05067
376.62        85.42272
377.07        84.81611
377.52        84.21589
377.97        83.63384
378.42        83.09995
378.87        82.62617
379.32        82.21589
379.77        81.80254
380.22        81.27455
380.67        80.60655
381.11        79.82507
381.56        79.02764
382.01        78.40793
382.46        78.02279
382.91          77.825
383.36        77.67952
383.81        77.37176
384.26        76.85552
384.71        76.19828
385.15        75.51921
385.60        75.06734
386.05        74.86165
386.50        74.81485
386.95        74.79267
387.40        74.59585
387.85        74.18461
388.29         73.5965
388.74        73.01688
389.19        72.50243
389.64        72.07323
390.09        71.69022
390.54         71.3372
390.98        70.98411
391.43        70.66723
391.88        70.39075
392.33        70.15575
392.78        69.95193
393.23        69.76918
393.67        69.57272
394.12        69.42153
394.57        69.21882
395.02        68.95953
395.47        68.69348
395.91        68.43345
396.36        68.12781
396.81        67.81059
397.26        67.55565
397.71        67.32903
398.15        67.05547
398.60        66.80978
399.05        66.43739
399.50        66.07198
399.95        66.14366
400.39        66.52934
400.84         66.6055
401.29        66.31017
401.74        65.83446
402.18        65.34151
402.63        65.20096
403.08        65.34553
403.53        65.18791
403.97        64.71025
404.42        64.34676
404.87        64.12583
405.32        63.93993
405.76         63.7916
406.21        63.63035
406.66         63.4883
407.11        63.59464
407.55        63.85809
408.00        63.85528
408.45        63.57689
408.90        63.16975
409.34        62.78778
409.79        62.79451
410.24        63.08613
410.68        63.12199
411.13         62.8713
411.58        62.67168
412.03        62.56958
412.47        62.48834
412.92        62.42326
413.37        62.41395
413.81        62.43366
414.26        62.48923
414.71        62.55474
415.15         62.6349
415.60        62.69293
416.05        62.72294
416.49        62.72151
416.94        62.68478
417.39        62.61217
417.83        62.49792
418.28        62.35325
418.73        62.18098
419.17         62.0246
419.62        61.96386
420.07        62.01241
420.51         62.1413
420.96        62.30786
421.41        62.40688
421.85          62.393
422.30        62.30561
422.74        62.17986
423.19        62.23475
423.64        62.43759
424.08        62.61105
424.53        62.65386
424.98         62.6716
425.42        62.66492
425.87        62.51604
426.31        62.30154
426.76        62.23593
427.21        62.31081
427.65        62.36822
428.10        62.36614
428.54         62.3814
428.99        62.43589
429.44        62.52908
429.88        62.62254
430.33        62.60011
430.77        62.48439
431.22        62.69048
431.66        63.12189
432.11        63.33227
432.56         63.2949
433.00        63.15742
433.45        62.81769
433.89           62.64
434.34        62.79086
434.78        62.09312
435.23        62.07994
435.67         63.0006
436.12        63.64867
436.57        63.73552
437.01        62.98152
437.46        62.64821
437.90        63.48846
438.35        63.18879
438.79        63.55173
439.24        63.47589
439.68        63.45787
440.13        63.44724
440.57        63.45801
441.02        63.48108
441.46        63.52682
441.91         63.6594
442.35        63.82109
442.80        64.30151
443.24        64.93063
443.69        65.11006
444.13        64.81359
444.58         64.5295
445.02         64.3334
445.47        64.25816
445.91         64.2886
446.36        64.25132
446.80        64.12976
447.24        64.13892
447.69        64.24104
448.13        64.22646
448.58        63.96389
449.02        63.89122
449.47        63.97802
449.91        64.03166
450.36        64.06596
450.80        64.11897
451.25        64.18963
451.69        64.29427
452.13        64.37057
452.58        64.15388
453.02        63.71347
453.47        63.44085
453.91        63.36212
454.36        63.29459
454.80        63.20584
455.24        63.10342
455.69          62.989
456.13        62.88021
456.58        62.82961
457.02        62.65326
457.46        62.64802
457.91        62.59308
458.35        62.65009
458.79        62.61493
459.24        62.51022
459.68        62.42307
460.13        62.42354
460.57        62.23957
461.01        61.84764
461.46        62.27826
461.90        61.89632
462.34        61.61668
462.79        61.66766
463.23        61.41227
463.68        61.60673
464.12        61.44224
464.56        61.19093
465.01        61.29671
465.45        61.61618
465.89        61.79371
466.34        61.75378
466.78        61.48645
467.22        61.12441
467.67        60.75257
468.11        60.74879
468.55         60.6695
468.99        60.57903
469.44        60.49586
469.88         60.4079
470.32        60.30024
470.77        60.18121
471.21        60.07022
471.65        59.97502
472.10        59.90039
472.54        59.82762
472.98        59.77219
473.42        59.74987
473.87        59.67818
474.31          59.547
474.75        59.68089
475.20        60.00817
475.64        59.71709
476.08        59.52822
476.52        59.36171
476.97         59.4246
477.41        59.48892
477.85        59.45215
478.29        59.50979
478.74        58.94867
479.18        59.02598
479.62        59.45105
480.06        59.59295
480.50        59.42191
480.95        59.34872
481.39        59.38562
481.83        59.34266
482.27        59.54961
482.72        59.51854
483.16        59.51024
483.60        59.83419
484.04         59.8066
484.48        59.44994
484.93        59.21855
485.37        59.22455
485.81        59.30849
486.25        59.28859
486.69        61.35216
487.14        61.80449
487.58        60.12541
488.02        59.23836
488.46        59.34482
488.90        59.42005
489.34        59.14039
489.79        58.48096
490.23         59.0014
490.67        59.19112
491.11        59.41331
491.55        59.18645
491.99        58.63321
492.43        58.36183
492.88        58.41459
493.32        58.48377
493.76        58.47606
494.20        58.49925
494.64        58.55125
495.08        58.26508
495.52         58.2535
495.96        58.23597
496.41        58.32553
496.85        58.31573
497.29         58.1497
497.73        58.08848
498.17        57.85515
498.61        57.80005
499.05        57.83284
499.49        57.86721
499.93        57.83825
500.37        57.99977
500.82        58.24949
501.26        58.43478
501.70        58.50465
502.14        58.15964
502.58        57.95631
503.02        57.76572
503.46        57.71627
503.90         57.7281
504.34        57.76085
504.78        57.80975
505.22        57.85525
505.66        57.89063
506.10        57.91768
506.54         57.9052
506.98        57.84024
507.42        57.62587
507.86         57.9099
508.30        57.26458
508.74        57.64387
509.18        57.58327
509.62        57.59173
510.06         57.6147
510.50         57.6286
510.94        57.55908
511.38        57.41323
511.82        57.31693
512.26        57.28042
512.70        57.24026
513.14        57.18231
513.58        57.12841
514.02        57.08162
514.46        56.94717
514.90        56.89568
515.34        56.82207
515.78        56.79031
516.22        56.74347
516.66        56.54526
517.10        56.84642
517.54        56.67057
517.98        56.77615
518.42        56.85504
518.86        56.90097
519.30        56.90218
519.74        56.83232
520.18         56.7439
520.62        56.78529
521.06        56.92571
521.50        56.94362
521.93        56.82827
522.37        56.74394
522.81        56.69719
523.25        56.58847
523.69        56.44357
524.13        56.35341
524.57        56.32938
525.01        56.34645
525.45        56.38617
525.89        56.41665
526.32        56.42674
526.76        56.43513
527.20        56.44534
527.64        56.46498
528.08        56.49503
528.52         56.5263
528.96        56.56577
529.40        56.62055
529.83        56.68487
530.27        56.78197
530.71        56.86688
531.15        56.86556
531.59        56.77126
532.03        56.61497
532.46         56.4473
532.90        56.36233
533.34        56.37529
533.78        56.45448
534.22        56.55493
534.66        56.60628
535.09         56.5807
535.53        56.52222
535.97        56.43377
536.41        56.33435
536.85        56.23778
537.28        56.13979
537.72          56.062
538.16        56.04266
538.60        56.08405
539.04        56.17262
539.47        56.26438
539.91        56.33772
540.35        56.36499
540.79        56.35885
541.22        56.32352
541.66        56.27962
542.10        56.23426
542.54        56.18689
542.97        56.14231
543.41        56.13224
543.85        56.14203
544.29        56.19852
544.72        56.28995
545.16        56.32203
545.60        56.25372
546.04        56.49988
546.47        56.37675
546.91        56.38853
547.35        56.34853
547.79        56.39603
548.22        56.47846
548.66        56.42541
549.10        56.28136
549.53         56.2543
549.97         56.3482
550.41        56.37691
550.84        56.33683
551.28        56.31791
551.72        56.30924
552.15          56.308
552.59         56.3367
553.03        56.15438
553.46        56.22087
553.90        56.18646
554.34        56.17091
554.77        56.28348
555.21        56.29549
555.65        56.38874
556.08        56.47346
556.52        56.55673
556.96        56.60529
557.39        56.63585
557.83        56.63205
558.27        56.46778
558.70          56.217
559.14        56.09316
559.57        56.10805
560.01        56.26892
560.45         56.4634
560.88        56.39136
561.32        56.15275
561.75        56.06945
562.19        56.19426
562.63        56.35026
563.06        56.46189
563.50        56.44453
563.93        56.30035
564.37         56.1701
564.80         56.0902
565.24        56.15596
565.68        56.32671
566.11         56.4135
566.55        56.42002
566.98        56.47703
567.42        56.58007
567.85        56.58916
568.29        56.58221
568.72        56.61938
569.16        56.72465
569.60        57.09706
570.03        57.02103
570.47        57.24521
570.90        57.53483
571.34        57.42692
571.77        57.66985
572.21        57.82925
572.64        57.41749
573.08        57.54882
573.51        57.52952
573.95        57.94656
574.38           57.71
574.82         58.3732
575.25        58.30044
575.69        58.42935
576.12        57.70683
576.56        57.75723
576.99        58.02148
577.42        57.95836
577.86        58.21277
578.29        58.76171
578.73         59.3349
579.16        59.00607
579.60        58.17032
580.03        57.95596
580.47        58.17544
580.90         58.1726
581.33        58.36298
581.77        58.42279
582.20        59.13347
582.64        59.33572
583.07         58.9796
583.51        58.39183
583.94        57.91307
584.37        57.43237
584.81        57.29631
585.24        57.55731
585.68        58.43272
586.11        58.21728
586.54        58.48187
586.98        58.05001
587.41         57.8223
587.85        58.02577
588.28        58.17136
588.71         58.2247
589.15        57.68928
589.58        57.79874
590.01        57.61805
590.45        57.21996
590.88        57.47764
591.31        57.08924
591.75        57.07845
592.18          57.078
592.61        57.28889
593.05         57.7021
593.48        58.00375
593.91        58.09937
594.35        57.87458
594.78        57.75591
595.21        57.48563
595.65        57.45289
596.08        57.51771
596.51        57.67604
596.94        57.39311
597.38        57.30534
597.81        57.28377
598.24        57.35537
598.68        57.25013
599.11        57.15928
599.54        57.69979
599.97        57.77922
600.41        57.74207
600.84        57.95599
601.27        58.05987
601.70        57.55834
602.14        57.30476
602.57        57.09455
603.00        57.24028
603.43        57.46413
603.87        57.80271
604.30        57.74821
604.73        57.80324
605.16        57.18427
605.60        57.55017
606.03        57.49538
606.46        57.39061
606.89        57.65402
607.32        57.13509
607.76        57.56958
608.19        57.49847
608.62        57.48075
609.05        58.09518
609.48        57.44916
609.92        57.31361
610.35        57.16211
610.78        57.37345
611.21        57.45139
611.64        57.28017
612.07        57.25421
612.50        57.32615
612.94        57.34146
613.37        57.31136
613.80        57.25967
614.23        57.20054
614.66        57.16918
615.09        57.15868
615.52        57.14079
615.96        57.11862
616.39        57.08069
616.82        56.97046
617.25        57.11558
617.68        56.95498
618.11        56.92459
618.54        56.98715
618.97        56.99098
619.40        56.96262
619.84        56.63305
620.27        56.45667
620.70        56.36829
621.13        56.46218
621.56        56.47918
621.99        56.40379
622.42        56.42201
622.85        56.52135
623.28        56.54849
623.71        56.46174
624.14        56.79272
624.57        56.71752
625.00        57.02324
625.43        56.73632
625.86        56.72925
626.29        56.78001
626.72        56.67008
627.15        56.49797
627.58        56.39505
628.01        56.47205
628.44        56.13378
628.87        56.04295
629.30        56.45512
629.73        56.33907
630.16        56.20012
630.59        56.16657
631.02        56.37691
631.45        56.16954
631.88        56.21621
632.31        56.30581
632.74        56.17903
633.17        56.32087
633.60        56.24915
634.03        56.11884
634.46        55.98524
634.89        55.81079
635.32        55.74641
635.75        55.77591
636.18        55.88146
636.61        56.01003
637.04        56.07829
637.47        56.06375
637.89         55.9952
638.32        55.89566
638.75        55.82777
639.18        55.80971
639.61        55.82281
640.04        55.84824
640.47        55.85789
640.90         55.8423
641.33        55.81139
641.76        55.77766
642.18        55.76461
642.61        55.76453
643.04        55.77719
643.47        55.78714
643.90        55.77555
644.33        55.73965
644.76        55.67427
645.18         55.6047
645.61        55.59497
646.04        55.64034
646.47        55.66375
646.90        55.65992
647.33        55.68283
647.75         55.7198
648.18        55.74659
648.61        55.78593
649.04         55.8256
649.47        55.84494
649.89        56.14047
650.32        56.06724
650.75        56.11718
651.18        56.09075
651.61        55.91055
652.03        55.67925
652.46        55.65424
652.89        55.85587
653.32        56.12512
653.74        56.38189
654.17        56.32835
654.60         55.9121
655.03        55.78272
655.46        55.50417
655.88        56.41356
656.31         58.2944
656.74        64.39399
657.16        63.40269
657.59        61.44027
658.02        58.17633
658.45        56.57781
658.87         56.7251
659.30        56.74746
659.73        56.07346
660.15        55.85085
660.58        56.16195
661.01        56.54535
661.44        56.84784
661.86        56.76983
662.29        56.35102
662.72        56.04285
663.14        55.95166
663.57        55.95698
664.00        56.02783
664.42        56.08503
664.85        56.11774
665.27        56.09861
665.70        56.20227
666.13        56.23565
666.55        56.25097
666.98        56.24109
667.41        56.21606
667.83        56.20645
668.26        56.22739
668.69         56.2198
669.11        56.16648
669.54        56.24101
669.96        56.48481
670.39        56.09977
670.82        56.43443
671.24        56.38997
671.67        56.35008
672.09         56.3034
672.52        56.28792
672.94        56.22077
673.37        56.14447
673.80        56.24192
674.22        56.47417
674.65        56.57119
675.07        56.52229
675.50        56.45424
675.92        56.41942
676.35        56.38391
676.77        56.34969
677.20        56.42746
677.62        56.64305
678.05        56.45801
678.47        56.62617
678.90        56.84604
679.32         56.7855
679.75        56.85396
680.17        56.88742
680.60        56.88936
681.02        56.86752
681.45         56.8674
681.87        56.90476
682.30        56.94828
682.72        56.98884
683.15        57.00829
683.57        56.96082
684.00        56.90834
684.42        56.54641
684.85        56.49985
685.27        56.66795
685.70        56.92877
686.12        57.16077
686.54        57.25275
686.97        57.16523
687.39        56.96205
687.82        56.73196
688.24        56.59629
688.66        56.57946
689.09        56.86571
689.51        56.96642
689.94        57.16029
690.36        57.27137
690.78        57.28419
691.21        57.23264
691.63        57.16588
692.06        57.14604
692.48        57.25158
692.90         57.4319
693.33        57.50142
693.75        57.44827
694.17        57.33247
694.60        57.19019
695.02        57.22706
695.44        57.20123
695.87        57.21439
696.29        57.21534
696.71        57.18021
697.14        57.14444
697.56        57.38908
697.98        57.82593
698.41        57.77575
698.83        57.78942
699.25        57.57699
699.68        57.36872
700.10        57.18893
700.52        57.07574
700.94         57.0215
701.37         57.0005
701.79        57.02412
702.21        57.06371
702.64        57.12251
703.06        57.19379
703.48        57.27084
703.90        57.35109
704.33        57.43126
704.75         57.4896
705.17        57.47704
705.59        57.39394
706.01        57.25347
706.44        57.13448
706.86        57.18293
707.28        57.40686
707.70        57.75285
708.12        58.11437
708.55        58.32323
708.97        58.33266
709.39        58.19841
709.81        57.98495
710.23        57.81293
710.66        57.73359
711.08        57.72923
711.50         57.7583
711.92        57.76981
712.34        57.74993
712.76        57.71708
713.19        57.69824
713.61        57.77384
714.03        57.92677
714.45        58.13782
714.87        58.34439
715.29        58.41578
715.71        58.32634
716.13        58.26642
716.56         58.0114
716.98        57.92577
717.40        57.94939
717.82        58.05503
718.24        58.20216
718.66        58.32664
719.08        58.40495
719.50        58.45311
719.92        58.47622
720.34         58.4793
720.76        58.46806
721.19        58.43139
721.61        58.39244
722.03        58.36539
722.45         58.3594
722.87        58.37768
723.29        58.42141
723.71        58.48809
724.13        58.57363
724.55        58.67118
724.97        58.77868
725.39        58.89417
725.81        59.00902
726.23        59.11623
726.65        59.19175
727.07        59.20645
727.49        59.16136
727.91        59.05812
728.33        58.93405
728.75        58.88952
729.17        58.92744
729.59        58.94538
730.01        58.95285
730.43        59.03715
730.85        59.19104
731.27        59.34724
731.69        59.47456
732.10        59.50863
732.52        59.61296
732.94        59.40466
733.36        59.04502
733.78        58.89421
734.20        59.00694
734.62        59.20724
735.04        59.41288
735.46        59.56073
735.88         59.6146
736.30        59.59024
736.72        59.52374
737.13        59.49721
737.55        59.48583
737.97         59.4781
738.39        59.47195
738.81        59.42613
739.23        59.38253
739.65        59.50612
740.06        59.68909
740.48        59.77713
740.90        59.74176
741.32        59.39967
741.74        59.36208
742.16        59.27501
742.57        59.34099
742.99        59.50322
743.41        59.69857
743.83        59.79652
744.25        59.75948
744.67        59.62495
745.08        59.47129
745.50        59.39194
745.92        59.43058
746.34        59.55688
746.75        59.69959
747.17        59.74163
747.59        59.65937
748.01        59.46324
748.42        59.25361
748.84        59.21064
749.26        59.33416
749.68        59.53242
750.09        59.71888
750.51        59.67078
750.93        59.46854
751.35         59.5644
751.76        59.91687
752.18         60.0513
752.60        59.94485
753.01        59.89422
753.43        59.88302
753.85        59.80008
754.27        59.65542
754.68        59.48627
755.10        59.35318
755.52        59.32666
755.93        59.41857
756.35        59.60674
756.77        59.84317
757.18        60.00711
757.60        60.05473
758.02        60.08018
758.43        60.15943
758.85        59.88384
759.26        60.21367
759.68        60.24299
760.10        59.59809
760.51        59.33009
760.93        59.98116
761.34        59.92497
761.76         60.1418
762.18         60.3169
762.59        60.56842
763.01        60.59069
763.42        59.69117
763.84        59.65373
764.26        59.87799
764.67        60.34768
765.09        60.74908
765.50        60.80238
765.92        60.55369
766.33        60.33349
766.75        60.20652
767.16        60.11882
767.58        60.04065
768.00        60.14103
768.41        60.40865
768.83        60.42435
769.24        60.15751
769.66         60.5601
770.07        60.54767
770.49        60.32921
770.90        59.75308
771.32         59.6727
771.73        60.07872
772.15        60.27451
772.56        60.25003
772.97        60.40114
773.39        60.66267
773.80        60.78125
774.22        60.70013
774.63        60.52254
775.05        60.29221
775.46        60.12811
775.88        60.05008
776.29        60.04107
776.70        60.07569
777.12        60.13079
777.53        60.20318
777.95         60.2892
778.36        60.36594
778.77        60.38902
779.19        60.35938
779.60        60.30116
780.02        60.23749
780.43        60.26546
780.84        60.40757
781.26         60.5033
781.67         60.5974
782.09        60.97157
782.50        61.46608
782.91        61.51554
783.33        61.15021
783.74        61.00326
784.15        61.09488
784.57        61.07771
784.98        60.98172
785.39        60.99359
785.81        61.11976
786.22        61.30724
786.63         61.5002
787.04        61.60898
787.46        61.62173
787.87        61.54584
788.28        61.43846
788.70        61.37707
789.11        61.36551
789.52        61.39563
789.93        61.44209
790.35        61.45276
790.76        61.43217
791.17        61.40693
791.58        61.40033
792.00        61.43283
792.41        61.54006
792.82        61.68732
793.23        61.87585
793.65        62.10885
794.06        62.38107
794.47         62.6601
794.88        62.87642
795.29        62.97191
795.71        62.93601
796.12        62.76039
796.53         62.4943
796.94        62.37591
797.35        62.39042
797.76        62.23726
798.18        61.95295
798.59        61.83946
799.00        61.91065
799.41        62.00557
799.82        62.07422
800.23        62.11194
800.64        62.09886
801.06        62.00991
801.47        61.91892
801.88          61.881
802.29        61.91533
802.70        62.00663
803.11        62.11939
803.52        62.19046
803.93        62.20658
804.34        62.18851
804.75        62.17833
805.17        62.24929
805.58        62.44082
805.99        62.65916
806.40        62.86055
806.81        63.09304
807.22        63.27019
807.63        63.14522
808.04        62.81425
808.45        62.68541
808.86        62.81052
809.27        62.97978
809.68        63.12146
810.09        63.19136
810.50        63.15897
810.91        63.05622
811.32        62.90759
811.73        62.75039
812.14         62.6058
812.55        62.45283
812.96         62.3467
813.37        62.38004
813.78        62.55786
814.19        62.85619
814.60        63.14113
815.01        63.20195
815.42        62.99896
815.83        62.58356
816.24        62.11557
816.65        61.90069
817.05        62.04264
817.46        62.43155
817.87        62.92155
818.28        63.25013
818.69        63.34941
819.10        63.28919
819.51        63.18356
819.92        63.23169
820.33        63.48035
820.74        63.84059
821.14        64.18645
821.55        64.35796
821.96        64.30338
822.37        64.08419
822.78        63.77873
823.19        63.52088
823.60         63.3672
824.00        63.29767
824.41        63.26428
824.82        63.24379
825.23        63.22163
825.64        63.22496
826.04        63.26006
826.45        63.29091
826.86        63.32388
827.27        63.35389
827.68        63.39885
828.08         63.5182
828.49        63.64763
828.90        63.81687
829.31        64.00281
829.72        64.06454
830.12         63.9868
830.53        64.19852
830.94        63.94959
831.35        63.84966
831.75        63.70265
832.16        63.50199
832.57        63.34807
832.97        63.40061
833.38        63.67387
833.79        64.10796
834.20        64.55521
834.60        64.79401
835.01        64.77464
835.42        64.55872
835.82        64.27238
836.23        64.09441
836.64        64.10355
837.04        64.25891
837.45        64.46063
837.86        64.60057
838.26        64.65502
838.67        64.65411
839.08        64.65236
839.48        64.71935
839.89        64.86146
840.29        65.03674
840.70         65.2202
841.11        65.37535
841.51        65.49571
841.92        65.56319
842.33        65.56177
842.73        65.46146
843.14        65.23089
843.54        64.92515
843.95        64.61953
844.35        64.45542
844.76         64.4625
845.17        64.61134
845.57        64.85764
845.98        65.08535
846.38        65.27963
846.79        65.43982
847.19        65.59233
847.60        65.70931
848.00        65.81967
848.41        65.87588
848.81        65.93355
849.22         66.0278
849.62        66.19718
850.03        66.39445
850.43        66.58077
850.84        66.58839
851.24         66.4385
851.65        66.11038
852.05        65.76575
852.46        65.59908
852.86        65.66937
853.27        65.95728
853.67         66.2378
854.07        66.33032
854.48        66.16898
854.88        65.82677
855.29        65.43065
855.69         65.3745
856.10        65.66015
856.50        66.25724
856.90         66.8587
857.31         66.9985
857.71        66.61771
858.12        65.81261
858.52        64.87109
858.92        64.22062
859.33        63.99984
859.73        64.13892
860.13        64.48749
860.54        64.78884
860.94        64.99973
861.34        65.14315
861.75        65.23111
862.15        65.34996
862.55        65.47984
862.96        65.57233
863.36        65.57849
863.76        65.39298
864.17        65.00672
864.57        64.48437
864.97        63.96648
865.38        63.66273
865.78        63.67595
866.18        63.96881
866.58        64.40449
866.99        64.69256
867.39        64.77769
867.79        64.71637
868.19        64.65219
868.60        64.68111
869.00        64.89417
869.40        65.43651
869.80        66.04954
870.21        66.04617
870.61        65.36213
871.01        64.30518
871.41        63.21626
871.81        62.47446
872.22        62.21293
872.62        62.32989
873.02        62.71981
873.42         63.3571
873.82        63.93068
874.22        63.95404
874.63        63.68798
875.03        63.65428
875.43        63.91845
875.83        65.17439
876.23        64.66119
876.63        63.89169
877.03        62.59604
877.44        60.17951
877.84        171.4545
878.24        60.87221
878.64        61.82438
879.04        63.67778
879.44        64.49342
879.84        61.23724
880.24        66.14001
880.64        66.03693
881.04        63.24175
881.44        61.17438
881.84        60.52356
882.24        61.33976
882.65        62.86187
883.05        63.46949
883.45        62.83451
883.85        61.89351
884.25        61.11387
884.65        60.82584
885.05        61.16141
885.45        61.90285
885.85        62.71932
886.25         63.1765
886.65        63.16575
887.05        62.84783
887.45        62.35244
887.85        61.88915
888.25        61.56409
888.65        61.31322
889.04         61.2056
889.44        61.36547
889.84        61.77212
890.24        62.37151
890.64        62.98918
891.04        63.36277
891.44         63.4385
891.84        63.29117
892.24        63.01073
892.64        62.76741
893.04         62.6394
893.44        62.59015
893.83        62.65049
894.23        62.83437
894.63        63.13923
895.03        63.56144
895.43        64.02612
895.83        64.39207
896.23        64.61089
896.63        64.69857
897.02        64.68673
897.42        64.69702
897.82        64.73009
898.22        64.75247
898.62        64.73191
899.01        64.62921
899.41        64.41724
899.81         64.1402
900.21         63.8223
900.61        63.49105
901.00        63.15933
901.40        62.90241
901.80        62.75164
902.20        62.60704
902.59        62.44184
902.99        62.54649
903.39        63.04444
903.79        62.39931
904.18        63.33706
904.58        63.62116
904.98        63.89217
905.38        63.82626
905.77        63.39415
906.17        62.70485
906.57        61.96869
906.96        61.63808
907.36        61.81643
907.76          62.395
908.15        63.16516
908.55        63.62455
908.95         63.6743
909.34        63.39064
909.74        63.01353
910.14        62.88755
910.53        63.09657
910.93        63.52332
911.33        63.90649
911.72        63.83921
912.12        63.27125
912.52        62.37157
912.91        61.46332
913.31        61.12377
913.70        61.45137
914.10        62.26011
914.49        63.26619
914.89        63.90236
915.29        64.01997
915.68        63.77048
916.08        63.35739
916.47        63.06246
916.87        63.00995
917.26        63.08202
917.66         63.2329
918.05        63.42147
918.45         63.5927
918.84        63.79127
919.24        63.95589
919.64        64.02762
920.03        64.00122
920.42        63.87077
920.82        63.67506
921.21        63.50138
921.61        63.41079
922.00        63.45909
922.40        63.68842
922.79        64.01223
923.19        64.03225
923.58        64.63255
923.98        66.18829
924.37        66.26839
924.77        63.49593
925.16        71.55938
925.55        65.54747
925.95        66.03201
926.34        65.94972
926.74        65.17627
927.13        63.68943
927.52        62.65932
927.92        62.62272
928.31        62.94127
928.70        63.53073
929.10        64.18442
929.49        64.83013
929.89        65.53509
930.28        66.11539
930.67        66.14395
931.07         65.5772
931.46        64.43617
931.85        63.16506
932.24        62.98829
932.64        64.11464
933.03        65.56777
933.42        66.48003
933.82        68.97485
934.21        67.52738
934.60        66.48466
934.99        65.38731
935.39        65.07936
935.78        65.57562
936.17         67.2991
936.56        73.44678
936.96        66.21706
937.35        70.18495
937.74        67.15506
938.13         65.1572
938.53        63.48937
938.92        62.77825
939.31        63.58569
939.70        64.86693
940.09        65.63851
940.49        65.64813
940.88        65.28581
941.27        64.74883
941.66        64.38735
942.05        64.36792
942.44        64.50602
942.84        64.71328
943.23        64.99473
943.62        65.29113
944.01        65.60246
944.40        65.93304
944.79        66.25923
945.18         66.5441
945.57        66.77779
945.97        66.81414
946.36        66.54537
946.75        65.93645
947.14        65.05657
947.53        64.16251
947.92        63.69752
948.31        63.78302
948.70        64.29042
949.09        64.96985
949.48        65.42152
949.87        65.52979
950.26          65.406
950.65        65.15933
951.04        64.97089
951.43        64.91116
951.82        64.91544
952.21        64.95475
952.60         65.0054
952.99        65.03905
953.38        65.05074
953.77        65.06712
954.16        65.10706
954.55        65.17799
954.94        65.31546
955.33        65.39069
955.72        65.18475
956.11        64.67985
956.50        63.92762
956.89        63.29471
957.28        63.36014
957.66        64.22552
958.05         65.6118
958.44        66.98647
958.83        67.54429
959.22        67.10171
959.61         65.8485
960.00        64.25053
960.39        63.24008
960.78        63.16497
961.16        63.81578
961.55        64.64159
961.94        64.98316
962.33        64.69944
962.72        63.96847
963.11        63.21032
963.49        63.22993
963.88        64.21552
964.27        65.81782
964.66        67.36959
965.04        68.00906
965.43        67.53281
965.82        66.24319
966.21        64.66628
966.60        63.73767
966.98         63.7597
967.37        64.46012
967.76         65.4175
968.15        65.92527
968.53         65.8001
968.92        65.27114
969.31        64.61695
969.69        64.26133
970.08        64.30817
970.47        64.57192
970.86        64.96777
971.24         65.3875
971.63        65.72307
972.02        66.02268
972.40        66.17656
972.79        65.90755
973.17        65.26282
973.56        64.34257
973.95         63.4106
974.33        62.95496
974.72        63.11938
975.11        63.72845
975.49        64.71553
975.88        65.86814
976.26        67.10077
976.65        68.35182
977.04        69.33485
977.42         69.6095
977.81        69.07536
978.19        67.76829
978.58         66.3293
978.96        65.93204
979.35        66.84764
979.74        68.64551
980.12        70.53789
980.51        71.36011
980.89        71.05713
981.28        69.83433
981.66        68.17096
982.05        67.26924
982.43        67.57153
982.82        68.75515
983.20        70.14631
983.59        70.70138
983.97        70.21928
984.35         68.9844
984.74         67.4733
985.12        66.60019
985.51        66.61219
985.89         67.2871
986.28        68.14529
986.66        68.57837
987.04        68.50044
987.43        68.01998
987.81        67.23998
988.20        67.87125
988.58        70.17545
988.96        71.10867
989.35        69.80235
989.73        75.91572
990.12        72.64117
990.50        72.85573
990.88        72.19476
991.27        71.42169
991.65         70.5696
992.03        69.75391
992.42        69.18898
992.80        68.64904
993.18        68.14289
993.56        67.82279
993.95        67.65779
994.33         67.5024
994.71          67.353
995.10        67.22165
995.48        67.22815
995.86        67.57899
996.24        68.27055
996.63        69.08833
997.01        69.97451
997.39        70.65265
997.77        71.01891
998.15         71.1518
998.54        71.05286
998.92        70.61733
999.30        69.91661
999.68        69.00066
1000.06           68.12
1000.45        67.74049
1000.83        68.12833
1001.21         69.1391
1001.59         70.5126
1001.97        71.82881
1002.35        72.89117
1002.73        73.70959
1003.12        74.31636
1003.50        74.84966
1003.88        75.34087
1004.26         75.7789
1004.64        76.02683
1005.02        75.83376
1005.40        75.13445
1005.78        73.99956
1006.16        72.81152
1006.54        72.16356
1006.92         72.2236
1007.30        72.92225
1007.69        73.73911
1008.07        73.97594
1008.45        73.46468
1008.83          72.356
1009.21        71.30215
1009.59        71.61795
1009.97        73.45892
1010.35        76.03963
1010.73        78.41514
1011.11        79.85372
1011.49        80.41011
1011.86        80.10392
1012.24         78.9112
1012.62         79.8577
1013.00        80.48312
1013.38        80.40102
1013.76        78.35519
1014.14        82.08049
1014.52        87.62209
1014.90        80.94976
1015.28         82.1999
1015.66        83.39269
1016.04        79.88692
1016.41        79.58608
1016.79        78.28136
1017.17        77.87651
1017.55        77.90073
1017.93        78.51902
1018.31         79.6598
1018.69        80.58572
1019.06        81.14944
1019.44        81.47319
1019.82        81.57632
1020.20        81.45121
1020.58        81.12923
1020.95        80.45085
1021.33        79.71935
1021.71        79.58243
1022.09        80.27605
1022.46        81.48573
1022.84        82.57945
1023.22        83.11002
1023.60        83.15233
1023.97        82.90573
1024.35        82.61933
1024.73        82.78374
