SpectraSmart Spectrum 2.9.0.0
--------- Device Information -----------
Spectrum Name :  反射率_0
Saving Time :  2024/04/21 00:06:44
Spectro-Module Model Name : SE2030-DUVN
Spectro-Module Serial Number : OS361AC55029948
Wavelength Start : 200
Wavelength End : 1025
Wavelength Unit : Wavelength(nm)
Spectrum Unit : Reflectance(%)
-----------Spectrum Setting ------------
Integration Time : 20ms
Average : 10
Boxcar : 0
Background removal :  enabled
linearity correction :  enabled
SC :  disabled
Intensity correction :  disabled
DWT denoise :  enabled
savitzky-golay :  disabled
FFT :  disabled
Running average :  disabled
Kalman :  disabled
High pass :  disabled
---------------BEGIN--------------------
Wavelength(nm)             Reflectance(%)
200.29               0
200.75       -6.698576
201.21        28.11858
201.67        45.42684
202.13        48.33677
202.58         41.7304
203.04        28.36247
203.50        11.14937
203.96       0.2886033
204.42        1.113964
204.88        9.232721
205.34        19.62204
205.80        25.48476
206.26        25.05378
206.72        21.62693
207.18        13.56334
207.64       -1.745597
208.10       -21.34098
208.55       -43.97756
209.01        -50.4737
209.47       -22.62847
209.93        12.68114
210.39        40.15424
210.85        57.19577
211.31        64.09997
211.77        63.52359
212.23        55.86732
212.69        37.69223
213.14        6.308136
213.60       -44.11684
214.06       -172.7323
214.52       -438.5088
214.98       -180.5851
215.44       -37.84395
215.90        9.580847
216.36        24.31331
216.81        22.85103
217.27         5.18102
217.73       -80.75619
218.19        949.3779
218.65        401.6119
219.11       -884.4844
219.57       -39.16262
220.02        14.67078
220.48        23.91576
220.94        18.44553
221.40        -2.97209
221.86       -53.24162
222.32       -80.68323
222.77       -29.80321
223.23        11.34872
223.69        31.31301
224.15        37.58636
224.61        36.78176
225.06        32.68165
225.52        26.39216
225.98        19.21104
226.44        12.31426
226.90        4.330344
227.36      -0.2580544
227.81         6.04923
228.27        18.61306
228.73        31.28465
229.19        39.49384
229.65        41.12267
230.10        37.31222
230.56         29.6147
231.02        19.28177
231.48        11.90668
231.93        11.72604
232.39        16.75657
232.85        22.92558
233.31        26.69884
233.77        28.16423
234.22        28.94019
234.68        29.09139
235.14        28.56436
235.60        27.72731
236.05        25.69092
236.51        23.02423
236.97        26.80491
237.43        37.64168
237.88        45.40466
238.34        46.18774
238.80        66.31416
239.26        57.39991
239.71        54.40261
240.17        45.08617
240.63        36.60903
241.08        34.43966
241.54        41.87937
242.00         56.3819
242.46        64.60124
242.91        62.72534
243.37        50.60219
243.83        31.11971
244.28         19.0834
244.74        23.95092
245.20          38.409
245.66        52.83624
246.11        57.82772
246.57        52.36744
247.03        39.70579
247.48        22.61227
247.94        5.596996
248.40        -12.4349
248.85       -47.48053
249.31       -143.7117
249.77       -210.7847
250.22       -63.30552
250.68       -3.757796
251.14        14.74146
251.59        18.72943
252.05        16.50342
252.51         10.8774
252.96        1.405747
253.42       -6.936625
253.88       -7.985633
254.33        -3.18944
254.79        9.658177
255.25        29.00295
255.70        47.54091
256.16        62.17912
256.62        70.88989
257.07        72.79993
257.53        70.90723
257.99        67.28969
258.44        63.73225
258.90        62.52828
259.35        62.77679
259.81         63.7444
260.27        64.41148
260.72        63.85007
261.18        62.59172
261.63        60.94472
262.09        59.32342
262.55        57.57575
263.00        55.69044
263.46        53.87633
263.91        52.28487
264.37        51.59777
264.83        51.66806
265.28        52.15142
265.74        52.67957
266.19        52.53905
266.65        51.71756
267.11        50.39115
267.56        48.80864
268.02        47.45659
268.47        46.41033
268.93        45.56168
269.38        44.75737
269.84        43.83592
270.30        42.74287
270.75        41.57204
271.21        40.42493
271.66        39.36239
272.12        38.44263
272.57        37.60569
273.03        36.85443
273.48        36.14757
273.94        35.49108
274.39        34.85754
274.85        34.26023
275.31        33.63934
275.76        32.98581
276.22        32.36144
276.67         31.7715
277.13        31.31528
277.58        30.95329
278.04        30.67051
278.49        30.40235
278.95        30.15039
279.40        29.85012
279.86        29.54737
280.31        29.15465
280.77        28.64001
281.22        27.98604
281.68        27.28946
282.13         26.6169
282.59        26.14749
283.04        25.88075
283.50        25.78296
283.95         25.7919
284.41        25.84521
284.86        25.89685
285.32        25.98024
285.77         26.0399
286.22        26.01894
286.68        25.93698
287.13        25.76985
287.59        25.64643
288.04        25.65637
288.50        25.79364
288.95         26.1355
289.41        26.61777
289.86         26.6658
290.32        26.19114
290.77        27.09542
291.22        26.33132
291.68        26.54262
292.13        26.84825
292.59        27.31236
293.04        27.92587
293.50        28.74445
293.95        29.78055
294.40        30.99814
294.86        32.33569
295.31        33.68261
295.77        34.99981
296.22        36.27951
296.68        37.57749
297.13        38.97725
297.58         40.5143
298.04        42.17558
298.49         43.8884
298.95        45.55901
299.40        47.15312
299.85        48.71275
300.31        50.32904
300.76        52.10989
301.21        54.07571
301.67        56.19477
302.12        58.34606
302.58        60.46656
303.03        62.50027
303.48        64.52263
303.94        66.57433
304.39        68.65742
304.84        70.78202
305.30        72.94208
305.75        75.08602
306.20        77.26011
306.66        79.45823
307.11        81.60585
307.57        83.68644
308.02        85.58643
308.47        87.31887
308.93        88.95284
309.38        90.47525
309.83        91.94902
310.29        93.43024
310.74        94.84783
311.19        96.23594
311.65        97.61834
312.10        98.96959
312.55         100.287
313.00        101.5121
313.46        102.5538
313.91          103.38
314.36        104.0334
314.82        104.5926
315.27        105.1702
315.72        105.8135
316.18        106.4983
316.63        107.1875
317.08        107.8193
317.53        108.3684
317.99        108.8474
318.44        109.2785
318.89         109.678
319.35        110.0507
319.80         110.401
320.25        110.7055
320.70        110.9373
321.16        111.0894
321.61        111.1917
322.06        111.2975
322.51        111.4982
322.97         111.795
323.42        112.2014
323.87        112.6251
324.32        112.9289
324.78        113.0606
325.23        113.1024
325.68        113.1204
326.13        113.2603
326.59         113.531
327.04        113.9362
327.49        114.3861
327.94        114.7696
328.39        115.0477
328.85        115.2267
329.30        115.3886
329.75        115.5249
330.20        115.6547
330.66        115.7288
331.11        115.8631
331.56        116.1046
332.01        116.4705
332.46        116.9525
332.92        117.4254
333.37         117.823
333.82        118.0647
334.27        118.1919
334.72        118.3107
335.17        118.6042
335.63        119.0855
336.08        119.7572
336.53        120.4927
336.98        121.1335
337.43        121.6226
337.88        122.0016
338.34         122.285
338.79        122.5673
339.24        122.8529
339.69         123.122
340.14        123.3852
340.59        123.6672
341.05        123.9752
341.50         124.323
341.95           124.7
342.40         125.083
342.85        125.4624
343.30        125.8395
343.75        126.2045
344.20        126.5496
344.66        126.8769
345.11        127.1566
345.56        127.4016
346.01         127.635
346.46         127.868
346.91         128.077
347.36        128.2125
347.81        128.2897
348.26         128.321
348.72        127.9875
349.17        127.9584
349.62        127.9065
350.07        128.0326
350.52        128.2757
350.97        128.5031
351.42        128.4872
351.87        128.1719
352.32        127.6327
352.77        127.0149
353.22        126.5384
353.67        126.2556
354.13        126.1191
354.58         125.984
355.03        125.6742
355.48        125.1516
355.93        124.4829
356.38        123.7879
356.83         123.244
357.28        122.8697
357.73        122.5759
358.18        122.2414
358.63        121.6835
359.08        120.8634
359.53        119.8686
359.98        118.7618
360.43        117.6268
360.88        116.5095
361.33        115.3906
361.78        114.3417
362.23        113.4771
362.68        112.8071
363.13        112.3027
363.58        111.8258
364.03        111.1478
364.48        110.2133
364.93        109.0769
365.38        107.8726
365.83        106.8304
366.28        106.0096
366.73        105.3391
367.18        104.7104
367.63        103.9512
368.08        103.0252
368.53        102.0099
368.98        100.9779
369.43        100.0218
369.88         99.1646
370.33        98.36153
370.78        97.60098
371.23        96.88808
371.68        96.21713
372.13        95.58684
372.58        94.96889
373.03        94.29929
373.48        93.55959
373.93        92.77459
374.38        91.95127
374.83        91.11903
375.28        90.31174
375.72        89.51063
376.17        88.80814
376.62        88.25815
377.07        87.84193
377.52           87.52
377.97        87.18652
378.42        86.67924
378.87        85.98055
379.32        85.16544
379.77        84.32867
380.22        83.59157
380.67        82.97331
381.11         82.4293
381.56        81.93845
382.01        81.49112
382.46        81.08426
382.91        80.73917
383.36        80.39854
383.81        79.96527
384.26        79.42513
384.71        78.79665
385.15        78.16687
385.60        77.74369
386.05        77.52892
386.50        77.45679
386.95         77.3913
387.40        77.12392
387.85        76.62552
388.29        75.94271
388.74        75.28474
389.19         74.7372
389.64        74.32148
390.09        73.97983
390.54         73.6915
390.98        73.41685
391.43        73.17896
391.88        72.98013
392.33        72.78454
392.78        72.53448
393.23        72.22722
393.67        71.84192
394.12        71.50303
394.57        71.23256
395.02        71.02916
395.47        70.84341
395.91        70.67027
396.36        70.49262
396.81        70.32087
397.26        70.18353
397.71        70.03032
398.15        69.77364
398.60        69.49078
399.05        69.06501
399.50        68.63881
399.95        68.57722
400.39        68.79961
400.84        68.86411
401.29        68.68879
401.74        68.24258
402.18        67.67831
402.63        67.51558
403.08        67.68409
403.53        67.51595
403.97        66.98885
404.42        66.55618
404.87           66.29
405.32        66.12827
405.76        66.07511
406.21        66.12241
406.66        66.20774
407.11        66.28293
407.55        66.29646
408.00        66.15517
408.45        65.89919
408.90        65.52621
409.34        65.16316
409.79        65.16856
410.24        65.43184
410.68        65.46014
411.13        65.21904
411.58         64.9839
412.03         64.8203
412.47         64.7336
412.92        64.72536
413.37        64.79829
413.81        64.89583
414.26        64.98765
414.71        65.03983
415.15        65.07863
415.60        65.07301
416.05        65.03055
416.49        64.95928
416.94        64.84668
417.39        64.72627
417.83        64.64372
418.28        64.61084
418.73        64.61636
419.17        64.62446
419.62        64.58334
420.07        64.48351
420.51        64.34286
420.96        64.22451
421.41        64.17085
421.85        64.17133
422.30        64.25685
422.74        64.37065
423.19         64.5283
423.64        64.69978
424.08        64.91326
424.53        65.09856
424.98        65.22746
425.42        65.29385
425.87        65.33234
426.31        65.35855
426.76        65.26431
427.21        65.11561
427.65        65.25949
428.10        65.58117
428.54        65.63351
428.99        65.42352
429.44        65.21848
429.88        65.07393
430.33        64.92422
430.77        64.79721
431.22         65.0779
431.66        65.59622
432.11         65.7558
432.56        65.59669
433.00        65.43462
433.45        65.19594
433.89        65.42384
434.34        66.15487
434.78        65.09898
435.23        64.95135
435.67         65.7681
436.12        66.26188
436.57        66.48597
437.01        65.93935
437.46        65.80595
437.90        66.78527
438.35         66.1025
438.79        66.23987
439.24        65.99032
439.68        66.04015
440.13        66.14359
440.57        66.26146
441.02        66.28902
441.46        66.22999
441.91        66.39087
442.35        66.64593
442.80        66.93699
443.24        67.18653
443.69        67.28337
444.13        67.22655
444.58        67.22008
445.02        67.25682
445.47        67.26575
445.91        67.22174
446.36        67.17712
446.80        67.12668
447.24        67.00305
447.69        66.86337
448.13        66.98389
448.58        67.13604
449.02        67.16513
449.47        67.02569
449.91        66.96941
450.36        67.01944
450.80        66.95154
451.25        66.81854
451.69        66.84187
452.13        66.98667
452.58        66.94485
453.02        66.72848
453.47        66.62897
453.91        66.63792
454.36        66.60293
454.80        66.52753
455.24        66.41808
455.69        66.27627
456.13        66.23615
456.58        66.31517
457.02        65.84766
457.46        65.62121
457.91        65.52414
458.35        65.79073
458.79        65.78691
459.24        65.55342
459.68        65.33691
460.13         65.2104
460.57        65.08992
461.01        65.02864
461.46        65.06207
461.90        64.91792
462.34        65.00353
462.79        64.93628
463.23        64.31931
463.68          65.077
464.12        64.85735
464.56        64.38642
465.01        64.48083
465.45        64.95081
465.89        65.00584
466.34        64.67943
466.78        64.43037
467.22        64.30638
467.67        64.39946
468.11        64.10836
468.55        63.99883
468.99         63.8815
469.44         63.7412
469.88        63.57463
470.32        63.37992
470.77        63.19808
471.21        63.08819
471.65        63.05769
472.10        63.08494
472.54        63.12468
472.98        63.12485
473.42        63.07584
473.87        63.01367
474.31        62.91148
474.75        62.83387
475.20        62.79024
475.64        62.64152
476.08        62.62112
476.52        62.60038
476.97        62.63363
477.41        62.73382
477.85        62.80046
478.29        62.86903
478.74        62.36936
479.18        62.35874
479.62        62.51031
480.06        62.59317
480.50        62.55133
480.95        62.69918
481.39        62.98682
481.83        62.83696
482.27        63.41316
482.72        62.96624
483.16         63.1012
483.60        63.25474
484.04        63.05229
484.48        62.63774
484.93        62.49043
485.37        62.65751
485.81        62.84361
486.25        62.60799
486.69        64.43421
487.14        64.45917
487.58        63.52728
488.02        62.65305
488.46        62.78222
488.90        62.67793
489.34        62.63271
489.79        62.25134
490.23        62.65806
490.67        62.66333
491.11        62.57851
491.55        62.37249
491.99         62.1315
492.43        62.01403
492.88        62.03781
493.32        62.16553
493.76        62.29813
494.20          62.383
494.64        62.41124
495.08        62.11435
495.52        62.06425
495.96        61.99461
496.41        62.03812
496.85        62.07294
497.29         62.0256
497.73        62.10861
498.17        61.98301
498.61        61.93657
499.05        61.85976
499.49        61.74099
499.93        61.61933
500.37        61.55471
500.82        61.54315
501.26          61.767
501.70         62.1176
502.14        61.83276
502.58        61.50082
503.02        61.32479
503.46        61.43631
503.90        61.53556
504.34        61.56696
504.78        61.61338
505.22        61.64917
505.66        61.65817
506.10        61.65325
506.54         61.5759
506.98        61.40852
507.42        61.31472
507.86        61.40127
508.30        60.87288
508.74        61.11941
509.18        61.02404
509.62         60.9995
510.06        61.05373
510.50        61.16948
510.94        61.24784
511.38          61.253
511.82        61.23629
512.26        61.19174
512.70        61.07953
513.14        60.92308
513.58        60.82685
514.02        60.81668
514.46        60.79301
514.90        60.70075
515.34        60.91234
515.78        60.74651
516.22        60.72622
516.66        60.52146
517.10        60.78068
517.54         60.6142
517.98        60.70375
518.42        60.77245
518.86        60.80453
519.30        60.79161
519.74        60.71614
520.18         60.6167
520.62        60.62617
521.06        60.71056
521.50        60.63697
521.93        60.44545
522.37        60.39267
522.81        60.49437
523.25        60.61605
523.69        60.69513
524.13        60.69195
524.57        60.59069
525.01         60.4007
525.45        60.19996
525.89        60.11454
526.32        60.17089
526.76        60.33931
527.20        60.52512
527.64        60.59681
528.08        60.52695
528.52         60.3108
528.96        60.05265
529.40        60.03036
529.83        60.21251
530.27        60.29643
530.71        60.24701
531.15        60.25568
531.59        60.31157
532.03        60.28254
532.46         60.1938
532.90        60.17218
533.34        60.22358
533.78        60.30793
534.22        60.38085
534.66        60.37665
535.09        60.27835
535.53        60.13872
535.97        59.99255
536.41        59.90785
536.85          59.902
537.28        59.94832
537.72        60.02913
538.16        60.11585
538.60        60.18984
539.04        60.26115
539.47        60.29057
539.91        60.26845
540.35        60.18208
540.79        60.04471
541.22        59.90252
541.66        59.84733
542.10        59.89156
542.54        60.00223
542.97         60.1286
543.41         60.2225
543.85        60.25859
544.29        60.26301
544.72        60.22739
545.16         60.1942
545.60        60.17084
546.04        60.07938
546.47        59.97034
546.91        60.10958
547.35        60.42492
547.79        60.47628
548.22        60.26898
548.66        60.27252
549.10        60.44788
549.53        60.35918
549.97        60.06031
550.41        59.92225
550.84        59.98494
551.28        60.04141
551.72        60.05365
552.15        60.12845
552.59        60.28783
553.03        60.05595
553.46        60.29405
553.90        60.19136
554.34        60.20586
554.77        60.15202
555.21        60.14764
555.65        60.11626
556.08        60.25854
556.52        60.36182
556.96        60.43872
557.39        60.42048
557.83        60.33755
558.27        60.27366
558.70        60.25544
559.14        60.24543
559.57         60.2387
560.01        60.35549
560.45        60.50783
560.88        60.45579
561.32        60.27989
561.75        60.11677
562.19        60.06224
562.63        60.21768
563.06        60.48577
563.50        60.47584
563.93        60.20084
564.37        60.08688
564.80        60.13047
565.24        60.14387
565.68        60.11246
566.11        60.10907
566.55        60.16008
566.98        60.22306
567.42        60.30231
567.85        60.43187
568.29          60.625
568.72        60.66543
569.16        60.62128
569.60        60.97446
570.03        60.85906
570.47        61.15809
570.90        61.56753
571.34        61.04871
571.77        61.32719
572.21        61.08557
572.64        61.52711
573.08        61.21741
573.51         61.1358
573.95        61.43287
574.38        61.30956
574.82        62.04133
575.25        61.87814
575.69        61.93569
576.12        61.20861
576.56        61.62504
576.99        61.50414
577.42        61.69043
577.86         61.8919
578.29        62.21954
578.73        62.73282
579.16        62.16375
579.60        61.41125
580.03        61.59406
580.47        61.61189
580.90        61.74799
581.33        62.13492
581.77        62.00126
582.20          62.747
582.64        62.80735
583.07        62.58199
583.51        61.71532
583.94        61.42762
584.37        61.14433
584.81        61.03606
585.24        61.26412
585.68        61.97657
586.11         61.9206
586.54        61.73642
586.98        61.76394
587.41        61.10049
587.85        61.53838
588.28        61.79276
588.71        61.89514
589.15        61.54519
589.58        61.26515
590.01        61.07036
590.45         60.8674
590.88        61.20045
591.31        61.01025
591.75         60.7792
592.18         60.7711
592.61        61.20451
593.05        61.01071
593.48        61.64314
593.91        61.97115
594.35        61.59301
594.78        61.40353
595.21        61.00455
595.65        60.98421
596.08        61.18716
596.51        61.39936
596.94        61.03232
597.38        60.97967
597.81        61.15097
598.24        61.02288
598.68        60.80101
599.11        60.94036
599.54        61.71712
599.97        61.24845
600.41        61.48337
600.84        61.34983
601.27        61.33948
601.70        61.19963
602.14        60.97938
602.57        60.90947
603.00        60.98731
603.43        61.27982
603.87         61.4227
604.30         61.5638
604.73        61.46717
605.16        61.13371
605.60        61.17641
606.03        61.29595
606.46        61.63923
606.89        61.37957
607.32        61.14158
607.76        61.55098
608.19        61.43736
608.62        61.20875
609.05        61.67405
609.48          61.171
609.92        61.36363
610.35        61.15416
610.78        61.26203
611.21        61.36033
611.64        61.19515
612.07        61.15219
612.50         61.1268
612.94        61.09124
613.37        61.06356
613.80        61.06435
614.23        61.08375
614.66        61.05011
615.09        60.98826
615.52         60.9992
615.96         61.0558
616.39        61.07406
616.82        61.05347
617.25        60.84614
617.68        60.85082
618.11        60.75119
618.54        60.80014
618.97        60.78416
619.40        60.77749
619.84        60.41512
620.27        60.43325
620.70        60.37962
621.13        60.54256
621.56        60.27001
621.99        60.49782
622.42        60.81095
622.85        60.82014
623.28        60.46331
623.71        60.86716
624.14        61.27958
624.57        60.69599
625.00         61.3531
625.43        60.70644
625.86        60.67685
626.29        60.62772
626.72        60.49908
627.15        60.39354
627.58        60.40995
628.01        60.57625
628.44        60.31519
628.87        60.40017
629.30        60.24838
629.73        60.18561
630.16        60.38015
630.59        60.01061
631.02        60.35503
631.45        60.25911
631.88        60.37859
632.31         60.4483
632.74        60.21589
633.17        60.30494
633.60        60.18495
634.03        60.05682
634.46        59.96051
634.89        59.83117
635.32        59.79263
635.75        59.81707
636.18        59.90119
636.61        60.00342
637.04        60.05764
637.47        60.04741
637.89        59.99349
638.32        59.91791
638.75        59.88435
639.18        59.90751
639.61        59.96776
640.04        60.03448
640.47        60.06016
640.90        60.03196
641.33        59.96541
641.76        59.88711
642.18        59.84521
642.61        59.83854
643.04         59.8614
643.47        59.89029
643.90        59.89153
644.33        59.85722
644.76         59.7887
645.18         59.7148
645.61        59.69934
646.04        59.74237
646.47        59.77629
646.90        59.78945
647.33         59.8176
647.75        59.83886
648.18        59.83689
648.61        59.85683
649.04        59.87086
649.47        59.86398
649.89        60.27298
650.32        60.33766
650.75        60.25957
651.18        59.90266
651.61        59.62854
652.03        59.53854
652.46        59.61405
652.89        59.82884
653.32        59.98849
653.74        60.07569
654.17        60.12136
654.60        60.02353
655.03        59.95226
655.46        59.83622
655.88        60.42308
656.31         62.0209
656.74        67.05003
657.16        65.68211
657.59        63.80431
658.02        61.25023
658.45        60.54159
658.87        60.41609
659.30        60.22601
659.73        60.21422
660.15         59.6449
660.58        60.35023
661.01        60.49578
661.44        60.47809
661.86        60.28946
662.29        59.99324
662.72         59.7734
663.14        59.70123
663.57        59.79656
664.00        60.00127
664.42         60.1496
664.85        60.21653
665.27        60.17322
665.70        60.22332
666.13        60.20245
666.55        60.18186
666.98        60.14709
667.41        60.10564
667.83        60.08461
668.26        60.09909
668.69        60.09171
669.11        60.05918
669.54        60.19321
669.96        60.53417
670.39        60.25477
670.82        60.76144
671.24        60.73539
671.67        60.63173
672.09        60.62432
672.52        60.70231
672.94        60.76291
673.37        60.45459
673.80        60.34102
674.22        60.33854
674.65        60.29487
675.07        60.22984
675.50        60.21817
675.92        60.26388
676.35        60.30848
676.77        60.34215
677.20        60.39137
677.62        60.46967
678.05        60.51729
678.47        60.51937
678.90         60.7584
679.32        60.72221
679.75        60.80666
680.17         60.8527
680.60        60.86832
681.02        60.86155
681.45         60.8314
681.87        60.78718
682.30        60.77334
682.72        60.77983
683.15        60.63249
683.57        60.36768
684.00        60.39034
684.42        60.35127
684.85        60.41771
685.27        60.49004
685.70        60.62415
686.12        60.73325
686.54        60.88023
686.97        61.08619
687.39        60.55651
687.82        60.70387
688.24        60.71766
688.66        60.92001
689.09        61.09005
689.51         60.7947
689.94        60.80793
690.36        60.97566
690.78        61.05067
691.21        61.01849
691.63        60.95166
692.06        60.89925
692.48        60.95171
692.90        61.08069
693.33        61.11166
693.75        61.03679
694.17        60.94003
694.60        60.84155
695.02         60.8456
695.44         60.7172
695.87        60.78178
696.29        60.94677
696.71        60.90302
697.14        60.73909
697.56        61.04774
697.98        61.67939
698.41        61.89672
698.83        61.73683
699.25        61.48384
699.68        61.25453
700.10        61.08958
700.52        61.03806
700.94        61.05661
701.37        61.08184
701.79        61.24267
702.21        61.19508
702.64        61.20337
703.06        61.18983
703.48        61.18593
703.90        61.20073
704.33        61.22521
704.75        61.24786
705.17        61.22755
705.59        61.16202
706.01        61.06114
706.44        60.98549
706.86        61.04065
707.28        61.22425
707.70        61.52349
708.12        61.84106
708.55        61.95681
708.97        61.86192
709.39        61.75718
709.81        61.68223
710.23        61.57578
710.66         61.4688
711.08        61.44244
711.50        61.46909
711.92        61.47785
712.34        61.45913
712.76        61.43421
713.19        61.42094
713.61        61.48893
714.03        61.61826
714.45        61.79523
714.87        61.96764
715.29        62.01835
715.71        61.92376
716.13        61.87727
716.56        61.62844
716.98        61.54452
717.40        61.55508
717.82        61.63863
718.24         61.7561
718.66        61.84566
719.08        61.88853
719.50        61.90272
719.92        61.90216
720.34        61.90544
720.76        61.91991
721.19         61.9278
721.61        61.94479
722.03        61.97133
722.45        62.00843
722.87        62.05904
723.29        62.11965
723.71        62.18092
724.13         62.2414
724.55        62.30215
724.97        62.36847
725.39        62.45103
725.81        62.54751
726.23        62.64541
726.65        62.73428
727.07        62.80527
727.49        62.85482
727.91        62.87483
728.33         62.8599
728.75        62.83637
729.17        62.79554
729.59         62.6687
730.01        62.50948
730.43        62.47098
730.85        62.57265
731.27        62.73792
731.69        62.92163
732.10        63.01869
732.52        63.19317
732.94        63.06871
733.36        62.79736
733.78        62.69821
734.20        62.81955
734.62        63.00008
735.04        63.15014
735.46        63.22314
735.88         63.2001
736.30        63.01572
736.72        62.75417
737.13        62.80687
737.55        63.07071
737.97        62.97953
738.39        62.60137
738.81        62.54503
739.23        62.82654
739.65         63.0533
740.06        63.11268
740.48         63.1666
740.90        63.17146
741.32        63.06902
741.74        62.91934
742.16        62.86024
742.57        62.93343
742.99        63.08363
743.41        63.25746
743.83        63.34639
744.25        63.32262
744.67        63.21687
745.08        63.10087
745.50        63.04852
745.92        63.09903
746.34        63.22953
746.75        63.37094
747.17        63.40934
747.59         63.3241
748.01        63.12082
748.42        62.90628
748.84        62.87837
749.26        63.03388
749.68        63.25642
750.09        63.44827
750.51        63.39343
750.93        63.16278
751.35        63.18063
751.76        63.41585
752.18        63.44593
752.60        63.25947
753.01        63.12854
753.43        63.06657
753.85        62.99306
754.27        62.91318
754.68        62.90474
755.10        62.98477
755.52        62.86683
755.93        62.98816
756.35        63.01979
756.77        63.09354
757.18        63.13295
757.60        63.14857
758.02         63.2052
758.43           63.32
758.85        63.08904
759.26        63.59536
759.68        63.13562
760.10        63.27374
760.51        62.85303
760.93        63.06269
761.34        63.38941
761.76        63.90203
762.18        63.90713
762.59        63.41988
763.01        63.42003
763.42        63.11963
763.84        63.31007
764.26        63.36549
764.67        63.56055
765.09        63.74557
765.50         64.0987
765.92        64.47818
766.33        64.22227
766.75        63.45816
767.16        63.14072
767.58        63.32574
768.00         63.6315
768.41        63.93915
768.83         63.9281
769.24        63.60664
769.66        63.84247
770.07        63.74276
770.49        63.87258
770.90        63.93081
771.32        63.88321
771.73        63.76044
772.15        63.71484
772.56        63.77589
772.97        63.83711
773.39        63.84748
773.80        63.84908
774.22        63.80628
774.63        63.73562
775.05        63.65976
775.46        63.66375
775.88        63.74234
776.29        63.89679
776.70         64.0571
777.12        64.12286
777.53        64.08489
777.95        63.95835
778.36         63.8103
778.77        63.74355
779.19        63.79306
779.60        63.94381
780.02        64.12259
780.43        64.27886
780.84        64.39804
781.26        64.33029
781.67        64.20105
782.09        64.51939
782.50        65.11885
782.91        65.18708
783.33        64.74541
783.74        64.59806
784.15        64.76056
784.57        64.78683
784.98        64.69043
785.39         64.6828
785.81        64.76839
786.22        64.87863
786.63        64.99445
787.04        65.08667
787.46        65.15232
787.87        65.18763
788.28        65.18935
788.70           65.13
789.11        64.99962
789.52        64.84413
789.93        64.71868
790.35        64.66186
790.76         64.7186
791.17        64.95058
791.58        65.28634
792.00        65.48811
792.41        65.53793
792.82        65.57168
793.23          65.631
793.65        65.57352
794.06        65.48445
794.47        65.73237
794.88         66.2385
795.29        66.21902
795.71         66.2989
796.12        66.21995
796.53        66.18006
796.94        65.98254
797.35        65.69031
797.76        65.58218
798.18        65.63966
798.59        65.60031
799.00        65.44733
799.41        65.34727
799.82        65.31271
800.23        65.28269
800.64        65.25993
801.06        65.24165
801.47        65.26239
801.88        65.31041
802.29        65.37861
802.70        65.44393
803.11        65.51637
803.52        65.61856
803.93        65.75796
804.34        65.93661
804.75        66.08407
805.17        66.14027
805.58        66.13428
805.99        65.88303
806.40        65.54326
806.81        65.84652
807.22        66.60578
807.63        66.69226
808.04        66.17037
808.45        66.09089
808.86        66.50266
809.27        66.77639
809.68         66.8287
810.09        66.82883
810.50        66.76361
810.91        66.58907
811.32         66.3704
811.73        66.21856
812.14        66.16573
812.55        66.19603
812.96        66.27605
813.37        66.33254
813.78         66.3418
814.19        66.33161
814.60         66.3074
815.01        66.27317
815.42        66.23494
815.83        66.18478
816.24        66.14153
816.65        66.14448
817.05        66.20819
817.46        66.29932
817.87        66.41132
818.28        66.48999
818.69        66.52608
819.10        66.53282
819.51        66.54659
819.92        66.63104
820.33        66.79404
820.74        67.00036
821.14         67.1978
821.55        67.33228
821.96        67.37335
822.37        67.33675
822.78         67.2346
823.19        67.09212
823.60        66.92756
824.00         66.7562
824.41        66.56551
824.82        66.39809
825.23        66.27295
825.64        66.20805
826.04        66.21643
826.45        66.26945
826.86          66.373
827.27        66.52327
827.68        66.73006
828.08        67.03172
828.49        67.34148
828.90        67.67326
829.31        67.97974
829.72        68.10622
830.12        68.03418
830.53        68.14255
830.94         67.7826
831.35        67.52522
831.75        67.22267
832.16        66.87953
832.57        66.60355
832.97        66.55688
833.38        66.75769
833.79        67.14241
834.20        67.59394
834.60         67.9338
835.01        68.10623
835.42        68.15373
835.82        68.10545
836.23         67.9759
836.64        67.80753
837.04        67.60162
837.45        67.39196
837.86        67.29333
838.26        67.34144
838.67        67.51404
839.08        67.74208
839.48        67.88722
839.89        67.90736
840.29        67.83248
840.70        67.75928
841.11        67.85034
841.51        68.15005
841.92        68.56645
842.33        68.97335
842.73        69.16467
843.14         69.0453
843.54        68.71524
843.95        68.30811
844.35        68.06543
844.76        68.04755
845.17        68.19241
845.57        68.42085
845.98        68.56276
846.38        68.59846
846.79        68.56379
847.19        68.52995
847.60        68.52811
848.00        68.60712
848.41        68.69897
848.81        68.84377
849.22         69.0429
849.62        69.31841
850.03        69.62887
850.43        69.91897
850.84        69.99836
851.24        69.88561
851.65        69.55035
852.05        69.18478
852.46        69.03741
852.86        69.17351
853.27        69.55341
853.67        69.90208
854.07        69.96998
854.48        69.68697
854.88        69.16785
855.29        68.57629
855.69        68.38602
856.10        68.62606
856.50         69.2309
856.90         69.9178
857.31         70.2598
857.71        70.18502
858.12        69.77826
858.52          69.174
858.92        68.53632
859.33        67.95152
859.73        67.42014
860.13        67.03495
860.54        66.94858
860.94        67.23325
861.34        67.81898
861.75        68.47771
862.15        68.88758
862.55        68.90566
862.96        68.58141
863.36        68.09805
863.76        67.72336
864.17        67.54321
864.57        67.52604
864.97        67.53001
865.38        67.30251
865.78        66.83441
866.18        66.20367
866.58        65.66866
866.99        65.64252
867.39        66.23379
867.79        67.24484
868.19        68.30087
868.60        68.82021
869.00        68.76154
869.40        68.42806
869.80        67.95702
870.21        67.44831
870.61        67.08207
871.01        66.88692
871.41        66.76711
871.81         66.4884
872.22        66.03185
872.62        65.50385
873.02        65.04428
873.42        65.05273
873.82        65.40553
874.22        65.49845
874.63        65.47559
875.03        65.67372
875.43        66.07674
875.83        67.38512
876.23        67.02634
876.63        66.42764
877.03        65.34924
877.44        63.23977
877.84         165.808
878.24        63.96261
878.64        64.75372
879.04        66.30835
879.44        66.95573
879.84        64.04463
880.24        68.91362
880.64         69.3001
881.04        67.26246
881.44        65.58215
881.84        64.74854
882.24        64.90046
882.65        65.62968
883.05        65.86881
883.45        65.38826
883.85        64.93535
884.25        64.73158
884.65        64.73032
885.05        64.96111
885.45        65.36003
885.85        65.74588
886.25        65.88981
886.65         65.7477
887.05        65.39811
887.45        64.96281
887.85        64.65098
888.25         64.5399
888.65        64.56865
889.04        64.71561
889.44        64.94267
889.84        65.20232
890.24        65.49234
890.64        65.74247
891.04        65.85149
891.44        65.80559
891.84        65.63023
892.24        65.38554
892.64        65.18619
893.04        65.08424
893.44        65.07093
893.83        65.14715
894.23         65.2757
894.63         65.4551
895.03        65.69489
895.43        65.99478
895.83        66.34146
896.23        66.71005
896.63        67.07092
897.02        67.37141
897.42        67.61285
897.82        67.76424
898.22        67.82377
898.62        67.80113
899.01        67.72919
899.41        67.59558
899.81        67.41014
900.21        67.16386
900.61        66.83618
901.00        66.42728
901.40        66.03712
901.80        65.70983
902.20        65.37169
902.59        65.01317
902.99        64.90443
903.39        65.19601
903.79        64.48741
904.18        65.35853
904.58        65.68507
904.98        66.03519
905.38        66.04171
905.77        65.66299
906.17        65.02771
906.57        64.34905
906.96        64.08404
907.36        64.33769
907.76        64.98412
908.15         65.8442
908.55        66.46556
908.95        66.74706
909.34         66.7455
909.74        66.60772
910.14        66.53378
910.53        66.58474
910.93        66.69034
911.33        66.70854
911.72        66.42464
912.12        65.83074
912.52        65.03354
912.91        64.25812
913.31        63.92162
913.70        64.08551
914.10        64.63041
914.49        65.32584
914.89        65.69412
915.29        65.62528
915.68        65.22871
916.08        64.74515
916.47        64.51225
916.87        64.65202
917.26        65.05341
917.66        65.52979
918.05        65.80883
918.45        65.79694
918.84        65.58651
919.24        65.35136
919.64        65.42658
920.03        65.87274
920.42        66.54897
920.82        67.17513
921.21        67.33044
921.61        66.95721
922.00        66.27319
922.40         65.6127
922.79        65.37365
923.19        65.30824
923.58        66.12075
923.98        67.97872
924.37        68.30183
924.77         65.7372
925.16         73.2428
925.55        67.45392
925.95        67.80756
926.34        67.68773
926.74        66.92381
927.13        65.50536
927.52        64.58207
927.92        64.65755
928.31        65.11543
928.70        65.81808
929.10        66.48009
929.49        67.02443
929.89        67.54177
930.28        67.91416
930.67        67.83317
931.07        67.28871
931.46        66.26935
931.85        65.17526
932.24        65.12339
932.64        66.29018
933.03        67.78291
933.42        68.75596
933.82         71.1324
934.21        69.76447
934.60        68.68544
934.99        67.56527
935.39        67.36601
935.78        68.11768
936.17        70.13522
936.56        76.06371
936.96        69.61707
937.35         72.9115
937.74        69.55376
938.13        66.99445
938.53        65.07457
938.92        64.58631
939.31        65.94664
939.70        67.79057
940.09        68.71407
940.49        68.41483
940.88        67.39185
941.27        66.12309
941.66        65.50524
942.05        65.86337
942.44        66.80768
942.84         67.9151
943.23        68.72222
943.62        69.06211
944.01        69.07346
944.40        68.95389
944.79        69.00528
945.18        69.30695
945.57        69.76147
945.97        70.07689
946.36        69.92899
946.75        69.22395
947.14        68.08265
947.53        66.93371
947.92        66.50031
948.31          66.944
948.70        68.02989
949.09        69.21643
949.48         69.6608
949.87        69.18661
950.26        68.07982
950.65        66.78149
951.04        66.01901
951.43        66.01833
951.82        66.53844
952.21        67.35632
952.60        68.08908
952.99        68.54407
953.38        68.81873
953.77        68.90729
954.16        68.78311
954.55        68.48003
954.94        68.01226
955.33        67.43404
955.72        66.89674
956.11        66.48312
956.50        66.15948
956.89        66.05323
957.28        66.32824
957.66        66.98853
958.05        67.90496
958.44         68.7228
958.83        68.89249
959.22        68.31141
959.61        67.08897
960.00        65.65755
960.39         64.8918
960.78        65.07055
961.16        65.96286
961.55        66.99707
961.94        67.48505
962.33        67.28706
962.72        66.60726
963.11        65.78285
963.49        65.49246
963.88        65.94375
964.27        66.85902
964.66        67.85863
965.04        68.46867
965.43        68.52711
965.82        68.23348
966.21        67.75764
966.60        67.39231
966.98        67.25106
967.37        67.22305
967.76        67.25657
968.15        67.27091
968.53         67.2535
968.92        67.24457
969.31        67.22083
969.69        67.10959
970.08        66.88013
970.47        66.53307
970.86        66.21525
971.24        66.20061
971.63        66.50359
972.02        67.02367
972.40        67.52884
972.79        67.57904
973.17        67.16371
973.56        66.45332
973.95        65.68166
974.33        65.26918
974.72        65.35542
975.11        65.76042
975.49         66.5402
975.88        67.70053
976.26        69.18989
976.65        70.87475
977.04        72.29881
977.42        72.76929
977.81        72.11993
978.19        70.44218
978.58        68.48349
978.96        67.67891
979.35        68.41058
979.74        70.18118
980.12        72.08587
980.51        72.79353
980.89        72.21744
981.28        70.63369
981.66        68.60602
982.05        67.52384
982.43         67.9296
982.82        69.42405
983.20        71.29531
983.59        72.46857
983.97        72.68843
984.35        72.20777
984.74        71.34519
985.12        70.74493
985.51        70.59615
985.89        70.78394
986.28        70.98743
986.66        70.81494
987.04        70.24254
987.43        69.31129
987.81         68.2102
988.20        68.74954
988.58         71.1888
988.96        72.54827
989.35        71.80493
989.73        77.57021
990.12        74.10928
990.50        73.51241
990.88        72.02102
991.27        71.00853
991.65         70.7047
992.03        71.08556
992.42        71.86186
992.80        71.94041
993.18        71.08052
993.56        69.68459
993.95        68.24241
994.33        67.46893
994.71        67.60485
995.10        68.38544
995.48        69.57428
995.86        70.79434
996.24        71.83004
996.63        72.64262
997.01        73.30192
997.39        73.72401
997.77        73.87861
998.15        73.76093
998.54        73.35275
998.92        72.53292
999.30        71.37901
999.68        70.00914
1000.06        68.71205
1000.45        68.01444
1000.83        68.22007
1001.21        69.12744
1001.59        70.55521
1001.97        72.18719
1002.35        73.76436
1002.73         75.2328
1003.12        76.32108
1003.50        76.75458
1003.88        76.52713
1004.26        75.70641
1004.64        74.55167
1005.02        73.67857
1005.40        73.34702
1005.78        73.42381
1006.16        73.75205
1006.54        73.96574
1006.92        73.96276
1007.30        73.98347
1007.69        73.90745
1008.07        73.62422
1008.45        73.12781
1008.83        72.34566
1009.21        71.84084
1009.59        72.72942
1009.97         74.9938
1010.35        77.91344
1010.73        80.45156
1011.11        81.72781
1011.49        81.80044
1011.86        80.71824
1012.24        78.61263
1012.62        79.08513
1013.00        79.83643
1013.38        80.30576
1013.76        79.09286
1014.14        83.29097
1014.52        88.74854
1014.90        82.98183
1015.28        84.29034
1015.66        85.51636
1016.04        82.64198
1016.41        82.48535
1016.79        81.19497
1017.17        80.13331
1017.55        78.87508
1017.93        77.68398
1018.31        77.00972
1018.69         77.0173
1019.06        77.78629
1019.44        79.11916
1019.82        80.45621
1020.20        81.05094
1020.58        80.77114
1020.95        79.61372
1021.33        78.02476
1021.71        77.27043
1022.09        77.99735
1022.46         79.6022
1022.84         81.2347
1023.22        82.35844
1023.60        83.02039
1023.97        83.45537
1024.35        83.82909
1024.73        84.35968
