SpectraSmart Spectrum 2.9.0.0
--------- Device Information -----------
Spectrum Name :  反射率_0
Saving Time :  2024/04/21 00:45:16
Spectro-Module Model Name : SE2030-DUVN
Spectro-Module Serial Number : OS361AC55029948
Wavelength Start : 200
Wavelength End : 1025
Wavelength Unit : Wavelength(nm)
Spectrum Unit : Reflectance(%)
-----------Spectrum Setting ------------
Integration Time : 20ms
Average : 10
Boxcar : 0
Background removal :  enabled
linearity correction :  enabled
SC :  disabled
Intensity correction :  disabled
DWT denoise :  enabled
savitzky-golay :  disabled
FFT :  disabled
Running average :  disabled
Kalman :  disabled
High pass :  disabled
---------------BEGIN--------------------
Wavelength(nm)             Reflectance(%)
200.29               0
200.75        22.97333
201.21        43.24047
201.67        51.67682
202.13        55.02105
202.58        55.90779
203.04        55.19204
203.50        52.07281
203.96         45.6672
204.42        36.48656
204.88        25.08971
205.34        13.91616
205.80        4.552451
206.26       -2.941724
206.72       -5.354799
207.18       -6.216312
207.64       -15.49488
208.10       -34.02656
208.55        -59.0323
209.01       -65.52331
209.47       -29.74806
209.93        15.08067
210.39        49.54854
210.85        70.58685
211.31        78.72077
211.77        77.18314
212.23        66.08826
212.69        41.53196
213.14        3.190019
213.60       -48.62381
214.06       -157.8276
214.52       -334.0278
214.98       -107.9691
215.44       -7.787022
215.90        23.32331
216.36        32.11547
216.81        29.30454
217.27        13.65899
217.73       -59.86696
218.19        812.2838
218.65        341.2635
219.11       -679.8792
219.57       -11.66387
220.02        30.93648
220.48        39.38235
220.94        37.56522
221.40        26.02904
221.86       -2.548396
222.32       -18.94658
222.77         9.29283
223.23         32.2312
223.69        43.26735
224.15         46.4514
224.61        45.55011
225.06        42.95314
225.52        39.17793
225.98        34.59136
226.44        29.87679
226.90        24.09144
227.36        21.05186
227.81        26.89919
228.27        37.71368
228.73         48.2786
229.19        54.94953
229.65        56.09774
230.10        52.62981
230.56        45.73869
231.02        36.47976
231.48        29.86613
231.93        29.65279
232.39        34.11305
232.85         39.6199
233.31        43.07612
233.77        44.54323
234.22        45.39732
234.68        45.73716
235.14        45.59165
235.60         45.2539
236.05        44.01398
236.51        42.21363
236.97        45.08617
237.43        53.06351
237.88        58.60878
238.34        58.68845
238.80        73.86188
239.26        66.84118
239.71        64.79187
240.17        57.99504
240.63        51.27485
241.08        48.32635
241.54        51.53804
242.00        60.44517
242.46        66.68519
242.91        68.22945
243.37        65.44113
243.83        59.96598
244.28        58.10646
244.74        62.85044
245.20        70.60864
245.66        76.29475
246.11        74.84588
246.57         65.9613
247.03        51.21623
247.48        33.43525
247.94        17.54188
248.40        3.674905
248.85       -16.12735
249.31       -54.74459
249.77       -50.94246
250.22        17.53351
250.68        36.84996
251.14        42.29559
251.59         45.7823
252.05         50.1045
252.51        56.16486
252.96         63.1188
253.42        66.85193
253.88        64.59454
254.33        59.48488
254.79        57.51855
255.25        60.89307
255.70        66.42732
256.16        71.63641
256.62        75.43049
257.07        77.41307
257.53        78.47271
257.99        78.77316
258.44        78.05791
258.90        76.88037
259.35        74.92517
259.81        72.99021
260.27        71.12778
260.72        69.52494
261.18         68.6021
261.63        67.82993
262.09        67.34625
262.55        66.77161
263.00        65.94372
263.46        65.14438
263.91        64.23396
264.37        63.54815
264.83         62.9842
265.28        62.42143
265.74        61.84699
266.19        60.95331
266.65        59.81784
267.11        58.46603
267.56        57.04185
268.02        55.87889
268.47        54.97981
268.93        54.29392
269.38        53.61924
269.84        52.71867
270.30        51.52757
270.75        50.13937
271.21        48.73885
271.66         47.5268
272.12        46.59432
272.57         45.8349
273.03        45.18304
273.48        44.47252
273.94        43.69722
274.39        42.87206
274.85        42.07161
275.31        41.31348
275.76        40.59814
276.22        39.94995
276.67        39.34367
277.13        38.86149
277.58        38.43982
278.04        38.09145
278.49        37.71032
278.95        37.25957
279.40          36.677
279.86        36.04562
280.31        35.34853
280.77        34.67625
281.22        34.01765
281.68        33.42962
282.13         32.8958
282.59        32.49194
283.04         32.1815
283.50        31.96532
283.95        31.81219
284.41        31.72123
284.86        31.65793
285.32        31.64483
285.77        31.59674
286.22        31.42712
286.68        31.15359
287.13        30.76304
287.59        30.42761
288.04         30.2917
288.50          30.366
288.95        30.70056
289.41        31.17728
289.86        31.16138
290.32        30.55705
290.77        31.17647
291.22        30.22194
291.68        30.30156
292.13        30.59537
292.59        31.12561
293.04        31.79066
293.50        32.50322
293.95        33.24474
294.40         34.0277
294.86        34.88947
295.31        35.87555
295.77         36.9889
296.22         38.1781
296.68        39.41336
297.13        40.64244
297.58        41.86773
298.04        43.11617
298.49        44.39425
298.95        45.73291
299.40        47.12388
299.85        48.56382
300.31        50.05499
300.76         51.5751
301.21        53.11914
301.67         54.7002
302.12        56.28464
302.58        57.93378
303.03        59.61632
303.48        61.36462
303.94        63.14181
304.39        64.83687
304.84        66.44408
305.30        68.00862
305.75        69.56281
306.20        71.26646
306.66        73.13657
307.11        75.06379
307.57        76.97105
308.02        78.66499
308.47        80.13282
308.93        81.47179
309.38        82.70259
309.83        83.91879
310.29        85.21326
310.74        86.47926
311.19        87.74019
311.65         88.9948
312.10        90.21295
312.55        91.40247
313.00        92.51558
313.46        93.47626
313.91        94.25639
314.36        94.88841
314.82        95.44227
315.27        96.02233
315.72        96.66879
316.18         97.3595
316.63        98.05105
317.08        98.67352
317.53        99.20014
317.99         99.6433
318.44        100.0372
318.89        100.4192
319.35           100.8
319.80        101.1812
320.25        101.5217
320.70        101.7634
321.16         101.895
321.61         101.956
322.06        102.0301
322.51        102.2566
322.97        102.6479
323.42        103.1974
323.87        103.7759
324.32        104.1849
324.78        104.3509
325.23        104.3609
325.68         104.315
326.13        104.4118
326.59        104.6818
327.04        105.1238
327.49         105.607
327.94        105.9479
328.39        106.0975
328.85        106.0829
329.30        106.0817
329.75        106.2547
330.20        106.6508
330.66        107.1744
331.11        107.7747
331.56         108.229
332.01        108.4864
332.46        108.6172
332.92        108.6674
333.37        108.8603
333.82        109.2079
334.27        109.6578
334.72        110.1975
335.17        110.8099
335.63        111.4331
336.08        112.1248
336.53         112.784
336.98        113.2891
337.43        113.6115
337.88        113.7775
338.34        113.8395
338.79        113.9574
339.24        114.1616
339.69        114.4325
340.14        114.7549
340.59           115.1
341.05        115.4553
341.50        115.8375
341.95        116.2447
342.40        116.6715
342.85        117.1063
343.30        117.5366
343.75        117.9224
344.20        118.2151
344.66        118.4147
345.11         118.514
345.56        118.5733
346.01        118.6876
346.46        118.8833
346.91        119.1242
347.36        119.3336
347.81        119.4514
348.26        119.4729
348.72        119.2111
349.17         119.149
349.62        119.1161
350.07        119.2613
350.52        119.5169
350.97        119.7782
351.42        119.8698
351.87        119.7377
352.32        119.4377
352.77        119.0449
353.22        118.6722
353.67        118.3557
354.13        118.0806
354.58        117.7869
355.03        117.4354
355.48        117.0189
355.93        116.5612
356.38        116.1061
356.83        115.7117
357.28        115.3735
357.73        115.0516
358.18        114.6806
358.63        114.1647
359.08        113.4899
359.53        112.7054
359.98        111.8536
360.43        110.9945
360.88        110.1525
361.33        109.3078
361.78        108.5011
362.23        107.7955
362.68        107.1958
363.13        106.6941
363.58        106.1869
364.03        105.5031
364.48        104.6128
364.93        103.5633
365.38        102.4965
365.83        101.6494
366.28        101.0708
366.73         100.676
367.18        100.3245
367.63        99.79253
368.08        99.02406
368.53        98.10451
368.98         97.1108
369.43        96.14783
369.88        95.25417
370.33        94.39317
370.78        93.58179
371.23           92.87
371.68          92.269
372.13        91.77215
372.58         91.3371
373.03         90.8744
373.48        90.34916
373.93        89.77995
374.38        89.16179
374.83         88.5048
375.28        87.83515
375.72        87.14124
376.17        86.50637
376.62        85.98149
377.07         85.5608
377.52         85.1993
377.97        84.81729
378.42        84.40533
378.87        83.97165
379.32        83.34817
379.77        82.50682
380.22        82.40682
380.67        81.40926
381.11        80.81776
381.56        80.19632
382.01        79.69353
382.46        79.32911
382.91        79.10192
383.36        78.92184
383.81        78.59967
384.26        78.10046
384.71        77.46786
385.15        76.81062
385.60        76.36538
386.05        76.14947
386.50        76.09656
386.95        76.05547
387.40        75.79758
387.85        75.29064
388.29        74.58173
388.74        73.92541
389.19        73.47207
389.64        73.24549
390.09        73.17316
390.54         73.1335
390.98        72.91989
391.43        72.52981
391.88        72.03136
392.33        71.54169
392.78        71.19064
393.23        71.00011
393.67        70.96563
394.12        71.06222
394.57        70.89986
395.02        70.53485
395.47        70.44727
395.91        70.61295
396.36         70.5593
396.81        70.28197
397.26        70.06407
397.71        69.89528
398.15        69.62262
398.60        69.33656
399.05        68.97993
399.50        68.64321
399.95        68.56732
400.39        68.70777
400.84        68.71823
401.29        68.55483
401.74        68.32325
402.18        68.06743
402.63        67.85518
403.08        67.68498
403.53        67.43591
403.97        67.11999
404.42        66.86907
404.87        66.67832
405.32        66.52748
405.76        66.41296
406.21        66.26344
406.66        66.09059
407.11        66.13906
407.55        66.32648
408.00        66.09898
408.45        65.53216
408.90        65.23088
409.34        65.23552
409.79         65.2023
410.24        65.09343
410.68        65.07729
411.13        65.15279
411.58         65.1655
412.03        65.07451
412.47        65.37644
412.92        65.18275
413.37        65.19151
413.81         65.1376
414.26         65.0769
414.71        64.99417
415.15        64.91267
415.60        64.81731
416.05        64.71637
416.49        64.62006
416.94        64.51985
417.39        64.42844
417.83        64.35287
418.28        64.29461
418.73        64.24976
419.17         64.1924
419.62        64.09228
420.07        63.94932
420.51        63.77177
420.96        63.62384
421.41         63.5634
421.85        63.57651
422.30        63.65595
422.74        63.73893
423.19        63.89643
423.64        64.06929
424.08        64.14085
424.53        64.07443
424.98        64.07501
425.42         64.1767
425.87        64.20528
426.31        64.17876
426.76        64.29454
427.21        64.48919
427.65        64.46741
428.10        64.25272
428.54        64.13829
428.99        64.16511
429.44        64.29144
429.88        64.40488
430.33         64.1768
430.77        63.70465
431.22        63.73465
431.66        64.16959
432.11        64.30556
432.56         64.1167
433.00        64.03865
433.45        63.98515
433.89        63.91021
434.34        63.86277
434.78         63.5768
435.23         63.4043
435.67        63.99807
436.12        64.84991
436.57        65.21224
437.01        64.65514
437.46        64.32912
437.90         64.8137
438.35        65.06898
438.79        64.83211
439.24        64.73991
439.68        64.68416
440.13        64.62478
440.57        64.56734
441.02        64.56127
441.46        64.60585
441.91        64.69804
442.35        64.77789
442.80        65.08942
443.24        65.50597
443.69        65.66188
444.13        65.51529
444.58        65.29138
445.02        65.06454
445.47        65.03777
445.91        65.17777
446.36        65.20732
446.80        65.10209
447.24        65.04785
447.69        65.09991
448.13        65.12955
448.58        65.40054
449.02        65.34583
449.47          65.096
449.91        64.96523
450.36         64.9949
450.80        64.91827
451.25         64.7772
451.69        64.81245
452.13        64.97803
452.58        64.94213
453.02        64.72143
453.47        64.62951
453.91        64.66329
454.36        64.65769
454.80        64.58725
455.24        64.48883
455.69        64.37716
456.13        64.24228
456.58        64.12647
457.02        64.00819
457.46        63.81951
457.91        63.83311
458.35        64.05128
458.79        64.07553
459.24        63.93555
459.68        63.79665
460.13        63.71977
460.57        63.59213
461.01        63.44648
461.46        63.62671
461.90        63.11208
462.34        63.49215
462.79        63.44033
463.23        63.01781
463.68        63.63729
464.12        63.24946
464.56        62.58965
465.01        62.53666
465.45        62.95402
465.89        63.19498
466.34        63.20191
466.78        63.03067
467.22        62.68834
467.67        62.96827
468.11        62.42728
468.55        62.36916
468.99        62.34099
469.44        62.27837
469.88        62.17063
470.32        62.10046
470.77        62.09015
471.21        62.08356
471.65        62.08002
472.10        62.10313
472.54        62.10813
472.98        62.07087
473.42        61.99667
473.87         61.8274
474.31        61.60765
474.75         61.6895
475.20        61.97474
475.64        61.94911
476.08        61.66727
476.52        61.53265
476.97        61.48821
477.41        61.60687
477.85        61.89229
478.29        61.28281
478.74         60.7292
479.18        61.57441
479.62        61.14479
480.06        61.38202
480.50         61.4144
480.95        61.52058
481.39        61.61238
481.83        61.79269
482.27         62.0294
482.72        61.88242
483.16        61.84483
483.60        62.17181
484.04        62.22683
484.48        61.92473
484.93        61.64862
485.37         61.7332
485.81        61.80172
486.25        61.06274
486.69        61.75488
487.14        62.44494
487.58        61.77025
488.02        61.47184
488.46        61.20145
488.90        61.27974
489.34        61.35949
489.79        61.02366
490.23        61.42913
490.67        61.61331
491.11        61.85428
491.55        61.65827
491.99        61.16637
492.43        60.98322
492.88        61.15012
493.32           61.37
493.76        61.50613
494.20        61.59723
494.64        61.63385
495.08        61.25558
495.52        61.08698
495.96        61.06585
496.41        61.26699
496.85        61.21883
497.29        60.90918
497.73        60.86462
498.17        60.78543
498.61        60.92559
499.05        61.09219
499.49        60.97898
499.93        60.68687
500.37        60.63306
500.82        60.80856
501.26        61.09522
501.70        61.36361
502.14         60.9879
502.58        60.58716
503.02        60.38367
503.46        60.51865
503.90        60.68025
504.34        60.77086
504.78        60.83069
505.22        60.85364
505.66        60.75087
506.10        60.55544
506.54        60.58768
506.98        60.91742
507.42        60.40579
507.86         61.0088
508.30        60.87026
508.74        60.89801
509.18        60.78655
509.62        60.67019
510.06        60.59055
510.50        60.52845
510.94        60.41571
511.38        60.27036
511.82        60.19943
512.26         60.2072
512.70        60.24263
513.14        60.27448
513.58         60.2683
514.02         60.2138
514.46        60.12482
514.90        60.01599
515.34        59.95315
515.78        59.95465
516.22        59.96544
516.66        59.83351
517.10        60.16024
517.54        60.03373
517.98        60.15975
518.42        60.24371
518.86        60.26337
519.30        60.21189
519.74        60.07074
520.18         59.9171
520.62        59.94446
521.06         60.1277
521.50        60.21929
521.93        60.19682
522.37        60.21428
522.81        60.26511
523.25        60.24712
523.69        60.17139
524.13        60.09515
524.57        60.02694
525.01        59.98016
525.45        59.97632
525.89          59.892
526.32        59.97852
526.76        60.03444
527.20        60.10988
527.64        60.15915
528.08        60.17125
528.52        60.15281
528.96        60.11635
529.40        60.08284
529.83         60.0561
530.27        60.05951
530.71        60.06572
531.15        60.02947
531.59        59.94795
532.03        59.84382
532.46        59.74508
532.90        59.70772
533.34        59.73611
533.78        59.81004
534.22        59.89426
534.66         59.9349
535.09        59.91018
535.53        59.85813
535.97        59.78611
536.41        59.72226
536.85        59.67886
537.28        59.64818
537.72        59.63539
538.16        59.65132
538.60        59.69156
539.04        59.75025
539.47         59.7981
539.91        59.83955
540.35        59.85416
540.79        59.84991
541.22        59.82237
541.66        59.78038
542.10        59.72596
542.54        59.65787
542.97        59.59398
543.41        59.59272
543.85        59.65638
544.29        59.78038
544.72        59.90745
545.16        60.00025
545.60         60.0335
546.04        59.94845
546.47        59.81995
546.91        59.90892
547.35        60.14567
547.79        60.21638
548.22        60.08841
548.66        59.87849
549.10        59.69309
549.53        59.77216
549.97        60.05836
550.41         60.1488
550.84        60.02209
551.28        59.89022
551.72        59.79134
552.15        59.79069
552.59        59.93644
553.03        59.73584
553.46        59.99844
553.90        59.95345
554.34        59.82662
554.77        59.69125
555.21        59.63927
555.65        59.42536
556.08        59.62241
556.52        59.75589
556.96        59.92851
557.39        60.05446
557.83        60.11774
558.27        60.08414
558.70        59.97829
559.14        59.89611
559.57        59.84406
560.01        59.84592
560.45        59.85888
560.88        59.78334
561.32        59.69225
561.75        59.62925
562.19        59.64837
562.63        59.82176
563.06        60.04138
563.50         59.9514
563.93        59.59895
564.37        59.40789
564.80        59.41148
565.24        59.52161
565.68        59.68871
566.11        59.79309
566.55        59.82534
566.98        59.90779
567.42        60.05046
567.85        59.93827
568.29        59.85971
568.72        59.84902
569.16        60.01776
569.60        59.98664
570.03        60.03999
570.47        60.16517
570.90        60.18712
571.34        60.20997
571.77        60.59626
572.21        60.23122
572.64        60.30862
573.08        60.12447
573.51        60.17743
573.95        60.54749
574.38        60.39518
574.82        60.62227
575.25        60.45278
575.69        60.95195
576.12         60.2838
576.56        60.35557
576.99        60.66343
577.42        60.43112
577.86        60.75267
578.29        60.83262
578.73        61.47162
579.16        60.86133
579.60        60.17343
580.03         60.6178
580.47        60.34386
580.90        60.74288
581.33        60.82111
581.77        60.69221
582.20        60.97461
582.64        60.98586
583.07        60.89935
583.51        60.43248
583.94        60.35911
584.37        60.21453
584.81         59.9762
585.24        60.02253
585.68        60.56347
586.11        60.64657
586.54        60.41858
586.98         60.6257
587.41        60.28195
587.85        60.82201
588.28          60.615
588.71        60.82007
589.15        60.74438
589.58        60.29786
590.01        60.39614
590.45        60.16237
590.88         60.2433
591.31        59.99276
591.75        60.21099
592.18        60.10035
592.61        59.82307
593.05        60.65755
593.48        60.47733
593.91        60.69789
594.35        60.70026
594.78        60.37408
595.21        60.43998
595.65        60.30169
596.08        60.21144
596.51        60.46175
596.94        60.51595
597.38         60.4771
597.81        60.23904
598.24        60.27431
598.68        60.20708
599.11        60.38619
599.54        60.32611
599.97        60.49432
600.41        60.41913
600.84        60.69918
601.27        60.64009
601.70        60.49525
602.14        60.14212
602.57        60.08429
603.00        60.31166
603.43         60.5473
603.87        60.50724
604.30        60.70377
604.73        60.69257
605.16        60.49367
605.60        60.54587
606.03        60.53344
606.46         60.5896
606.89        60.45197
607.32         59.8049
607.76        60.52001
608.19        60.20174
608.62         60.3975
609.05        61.10781
609.48        60.64439
609.92        60.57487
610.35        60.28569
610.78         60.6226
611.21         60.4313
611.64        60.39966
612.07        60.35342
612.50        60.44064
612.94        60.44777
613.37        60.37413
613.80         60.4331
614.23        60.31263
614.66        60.27622
615.09        60.22311
615.52        60.15425
615.96        60.09703
616.39        60.03464
616.82        59.95595
617.25        60.18533
617.68        60.19117
618.11        60.11655
618.54        60.01404
618.97        60.01009
619.40        59.98075
619.84        60.07001
620.27        60.05917
620.70        60.00435
621.13        59.89399
621.56        59.86256
621.99        59.92428
622.42         60.0624
622.85        60.22098
623.28        60.18023
623.71        60.07649
624.14        60.25695
624.57        60.25666
625.00        60.44332
625.43        60.14828
625.86        60.11671
626.29        60.18993
626.72        60.14611
627.15        60.08632
627.58        60.08067
628.01         60.1694
628.44        60.07072
628.87        59.86158
629.30        60.25607
629.73        59.75037
630.16        60.07854
630.59        59.72498
631.02        60.05062
631.45        59.87102
631.88        59.94273
632.31         60.0209
632.74        59.93906
633.17        60.03249
633.60        59.97939
634.03        59.89025
634.46        59.81746
634.89        59.70166
635.32        59.68124
635.75        59.73374
636.18        59.84342
636.61        59.97229
637.04        60.06025
637.47        60.08967
637.89        60.08438
638.32        60.04398
638.75        59.99464
639.18        59.94855
639.61        59.89884
640.04        59.86097
640.47        59.86156
640.90        59.90216
641.33        59.97499
641.76         60.0542
642.18        60.10073
642.61        60.08979
643.04        60.04207
643.47        59.97301
643.90        59.91393
644.33        59.87741
644.76        59.84158
645.18        59.81468
645.61        59.83385
646.04        59.88266
646.47        59.89315
646.90        59.86363
647.33        59.84395
647.75         59.8289
648.18        59.81623
648.61        59.81432
649.04        59.78453
649.47        59.72224
649.89        59.92467
650.32        59.75832
650.75        59.95724
651.18         60.2325
651.61        60.13681
652.03        59.78156
652.46        59.69199
652.89        59.86925
653.32        60.14266
653.74        60.32816
654.17        59.89252
654.60        59.67915
655.03        59.64055
655.46        59.83398
655.88        60.29664
656.31        61.06383
656.74        63.98755
657.16         62.7361
657.59         61.0935
658.02         60.2617
658.45        60.04861
658.87         59.9822
659.30        60.27493
659.73        60.22604
660.15        59.62001
660.58        60.16188
661.01         60.4425
661.44        60.83514
661.86        60.64711
662.29        60.01557
662.72        59.80343
663.14        60.03758
663.57        60.10593
664.00        59.97484
664.42        59.95502
664.85        60.04859
665.27        60.00909
665.70        60.02541
666.13        59.98943
666.55        59.96529
666.98        59.93186
667.41        59.89316
667.83        59.86207
668.26        59.85379
668.69        59.81971
669.11        59.75671
669.54        59.86772
669.96        60.19798
670.39        59.88379
670.82        60.34613
671.24        60.38302
671.67        60.39454
672.09        60.38008
672.52        60.37341
672.94        60.27392
673.37        60.13183
673.80        60.15005
674.22         60.3134
674.65        60.37922
675.07        60.34658
675.50        60.33226
675.92         60.3511
676.35        60.35152
676.77        60.33241
677.20        60.32147
677.62        60.33242
678.05        60.30621
678.47        60.22897
678.90        60.38828
679.32        60.27764
679.75        60.30762
680.17          60.327
680.60        60.35049
681.02        60.36493
681.45        60.36074
681.87        60.34644
682.30        60.28466
682.72         60.2225
683.15        60.26342
683.57        60.36356
684.00        60.47814
684.42        60.25504
684.85        60.22184
685.27        60.27329
685.70        60.29087
686.12        60.24435
686.54        60.21912
686.97        60.22916
687.39        60.10526
687.82        60.21435
688.24        60.23624
688.66        60.25906
689.09        60.47505
689.51        60.51052
689.94        60.64619
690.36        60.74602
690.78        60.77439
691.21          60.744
691.63        60.67656
692.06        60.62458
692.48        60.67305
692.90        60.78715
693.33        60.81911
693.75        60.76527
694.17        60.65279
694.60        60.52086
695.02        60.62021
695.44         60.6909
695.87        60.77044
696.29        60.74828
696.71        60.72692
697.14        60.78279
697.56        60.70626
697.98        60.88755
698.41        61.31979
698.83        60.93752
699.25        60.85546
699.68        60.76659
700.10        60.70255
700.52         60.6694
700.94        60.69011
701.37        60.73826
701.79        60.77594
702.21        60.77486
702.64         60.7494
703.06        60.72214
703.48        60.73744
703.90        60.80492
704.33        60.90492
704.75        60.99976
705.17        61.01143
705.59        60.92837
706.01        60.77444
706.44        60.62053
706.86        60.60066
707.28        60.72837
707.70        60.95984
708.12        61.21803
708.55        61.37758
708.97        61.40012
709.39        61.33036
709.81        61.21223
710.23        61.12769
710.66        61.10957
711.08        61.14451
711.50        61.19413
711.92        61.21664
712.34        61.20174
712.76        61.16473
713.19        61.12682
713.61         61.1638
714.03        61.26202
714.45        61.41174
714.87        61.57026
715.29        61.63251
715.71        61.57555
716.13        61.58645
716.56        61.40389
716.98        61.37215
717.40        61.41123
717.82        61.50134
718.24        61.60402
718.66        61.66086
719.08        61.65787
719.50        61.61635
719.92        61.55609
720.34        61.50414
720.76        61.47301
721.19        61.44607
721.61        61.44658
722.03        61.48457
722.45        61.56054
722.87        61.67293
723.29        61.79972
723.71        61.90216
724.13        61.96732
724.55         61.9996
724.97         62.0267
725.39        62.06724
725.81        62.12006
726.23        62.22911
726.65         62.3769
727.07        62.23063
727.49        62.28063
727.91        62.14035
728.33        61.98949
728.75        61.90319
729.17        61.88976
729.59        61.85043
730.01        61.80475
730.43        61.86517
730.85         62.0285
731.27         62.2264
731.69         62.4107
732.10        62.47433
732.52        62.58672
732.94        62.37672
733.36        62.01495
733.78        61.86055
734.20        61.97049
734.62        62.16887
735.04        62.36847
735.46        62.50278
735.88        62.54196
736.30          62.491
736.72        62.38474
737.13        62.38336
737.55        62.44654
737.97        62.35142
738.39        62.15985
738.81        62.24176
739.23        62.55999
739.65        62.70906
740.06        62.61857
740.48         62.5999
740.90        62.62011
741.32        62.51178
741.74        62.34303
742.16        62.32594
742.57        62.50211
742.99        62.79371
743.41        63.09154
743.83        63.20434
744.25        63.09116
744.67        62.80548
745.08            62.5
745.50        62.38519
745.92        62.53259
746.34        62.88018
746.75        63.26712
747.17        63.43114
747.59        63.31358
748.01        62.96297
748.42        62.56725
748.84        62.45355
749.26         62.6533
749.68        63.01669
750.09          63.374
750.51        63.37861
750.93         63.0841
751.35        62.99383
751.76        63.12964
752.18        63.11887
752.60        62.97126
753.01         62.9465
753.43        63.00568
753.85        63.00436
754.27        62.93195
754.68        62.83645
755.10        62.76045
755.52        62.74252
755.93        62.79924
756.35        62.91494
756.77        63.04456
757.18        63.18314
757.60        63.31977
758.02        63.30597
758.43        63.17882
758.85        63.45787
759.26        63.60393
759.68        63.65915
760.10        63.33837
760.51        62.84435
760.93        62.99012
761.34        63.04876
761.76        63.22876
762.18        63.46482
762.59        63.63155
763.01        63.74194
763.42        63.02404
763.84        63.06728
764.26        63.28059
764.67          63.689
765.09        64.03218
765.50        64.07626
765.92         63.8788
766.33         63.7488
766.75        63.74208
767.16        63.74956
767.58        63.71884
768.00        63.94796
768.41        64.35591
768.83        64.18562
769.24        63.52952
769.66        63.80483
770.07        64.01819
770.49        64.01738
770.90        63.59959
771.32        63.57759
771.73        63.93216
772.15        64.08932
772.56        64.04215
772.97        64.05852
773.39        64.12124
773.80        64.15588
774.22        64.13213
774.63        64.09252
775.05        64.03931
775.46        64.02987
775.88        64.05513
776.29        64.12227
776.70        64.19126
777.12        64.21092
777.53        64.18883
777.95        64.13483
778.36        64.07804
778.77        64.05977
779.19        64.08774
779.60        64.14898
780.02        64.23243
780.43        64.33273
780.84        64.44067
781.26        64.56064
781.67        64.68722
782.09        64.70922
782.50        64.62991
782.91        64.56432
783.33        64.52859
783.74        64.53181
784.15        64.54674
784.57         64.6779
784.98        64.87068
785.39        64.84361
785.81        64.64666
786.22        64.63651
786.63        64.81509
787.04        64.90948
787.46        64.92045
787.87        64.98554
788.28        65.10429
788.70        65.14558
789.11        65.07512
789.52         65.0646
789.93        65.11279
790.35        64.90995
790.76        64.62241
791.17        64.92741
791.58        65.67833
792.00        66.03938
792.41        65.96277
792.82        65.76926
793.23        65.62244
793.65        65.78899
794.06        66.18946
794.47        66.32516
794.88        66.24059
795.29        65.90298
795.71        66.31702
796.12        66.33505
796.53        66.23265
796.94        66.26391
797.35        66.37962
797.76        66.22636
798.18        65.85336
798.59        65.64697
799.00        65.64124
799.41        65.65723
799.82        65.65525
800.23        65.64705
800.64        65.61871
801.06        65.55231
801.47        65.51497
801.88        65.53854
802.29        65.63257
802.70        65.77972
803.11        65.94544
803.52        66.07125
803.93        66.13874
804.34        66.16252
804.75        66.16928
805.17        66.19657
805.58        66.28358
805.99        66.39266
806.40        66.50573
806.81        66.61789
807.22        66.70099
807.63         66.7033
808.04        66.66605
808.45        66.70573
808.86        66.83009
809.27         66.9769
809.68        67.09595
810.09        67.11869
810.50        67.02728
810.91        66.85735
811.32        66.64137
811.73        66.43132
812.14        66.25504
812.55        66.09675
812.96        66.00127
813.37        66.04049
813.78        66.21132
814.19        66.48576
814.60        66.75152
815.01        66.83308
815.42        66.69548
815.83        66.38579
816.24        66.00861
816.65        65.77168
817.05         65.7598
817.46        65.89194
817.87        66.12803
818.28        66.36176
818.69         66.5556
819.10        66.74006
819.51        66.91766
819.92        67.08357
820.33        67.22913
820.74        67.33199
821.14        67.38533
821.55        67.41419
821.96        67.41462
822.37        67.38908
822.78        67.33896
823.19        67.26432
823.60        67.17011
824.00         67.0767
824.41        66.96668
824.82        66.87395
825.23        66.80736
825.64        66.77348
826.04        66.77453
826.45        66.77032
826.86        66.76972
827.27        66.78428
827.68         66.8365
828.08        66.98717
828.49        67.16942
828.90        67.40002
829.31        67.66283
829.72         67.8449
830.12        67.92796
830.53        68.27437
830.94        68.17052
831.35        68.07413
831.75        67.80027
832.16        67.36688
832.57        66.93332
832.97         66.7599
833.38        66.89609
833.79         67.2574
834.20        67.68349
834.60        67.92383
835.01        67.91664
835.42         67.7449
835.82        67.49764
836.23        67.28632
836.64        67.17951
837.04        67.13718
837.45        67.15338
837.86        67.28008
838.26        67.51791
838.67        67.85321
839.08        68.18633
839.48        68.33348
839.89        68.25518
840.29        67.99919
840.70        67.72262
841.11        67.69454
841.51        67.98904
841.92        68.48396
842.33        69.02567
842.73        69.35187
843.14        69.34231
843.54        69.12151
843.95        68.78807
844.35        68.52645
844.76        68.39915
845.17        68.35612
845.57        68.41237
845.98        68.56007
846.38         68.8027
846.79         69.1136
847.19        69.44699
847.60        69.63888
848.00         69.6871
848.41         69.5925
848.81        69.44389
849.22        69.33659
849.62        69.34021
850.03        69.37159
850.43        69.44727
850.84        69.48508
851.24        69.51039
851.65        69.49494
852.05        69.44338
852.46        69.25916
852.86        68.95516
853.27        68.61736
853.67        68.27601
854.07        68.10705
854.48        68.10323
854.88        68.24452
855.29        68.44388
855.69        68.70261
856.10        68.89178
856.50        69.09371
856.90        69.21489
857.31        69.15704
857.71         68.9691
858.12        68.62409
858.52        68.22697
858.92         67.8969
859.33        67.66785
859.73        67.56794
860.13        67.56587
860.54        67.59415
860.94        67.68552
861.34        67.81477
861.75        67.93183
862.15        68.03391
862.55        68.06585
862.96        67.99357
863.36        67.85392
863.76        67.66371
864.17        67.43615
864.57        67.22385
864.97        66.97437
865.38        66.58002
865.78        66.08533
866.18        65.51746
866.58        65.10604
866.99        65.21918
867.39        65.93111
867.79        67.05159
868.19        68.20276
868.60        68.79649
869.00        68.80054
869.40        68.53349
869.80        68.11398
870.21        67.61167
870.61        67.21188
871.01        66.94995
871.41         66.8233
871.81        66.74154
872.22        66.69629
872.62        66.74105
873.02        66.86052
873.42        67.15601
873.82        67.43221
874.22        67.21548
874.63        66.75935
875.03        66.59596
875.43        66.80151
875.83        68.01102
876.23        67.70128
876.63        67.27692
877.03         66.4874
877.44        64.81747
877.84        162.3191
878.24        66.06266
878.64        66.77925
879.04        68.06686
879.44        68.41068
879.84        65.33018
880.24        69.79647
880.64        69.93597
881.04        67.74785
881.44        66.07053
881.84        65.41456
882.24        65.89761
882.65        66.90213
883.05        67.06948
883.45        66.13656
883.85        64.93904
884.25        63.98171
884.65        63.68349
885.05        64.17604
885.45        65.21449
885.85        66.40223
886.25        67.20272
886.65         67.4699
887.05         67.3707
887.45        67.03069
887.85        66.66254
888.25        66.37547
888.65        66.10353
889.04        65.92306
889.44        65.97465
889.84        66.25973
890.24        66.73878
890.64        67.26744
891.04        67.62069
891.44        67.74006
891.84         67.6722
892.24        67.47384
892.64        67.25781
893.04        67.07874
893.44        66.92393
893.83        66.80426
894.23        66.70222
894.63        66.63615
895.03        66.63625
895.43        66.73539
895.83        66.96743
896.23        67.31702
896.63        67.72911
897.02        68.13579
897.42        68.51665
897.82        68.81921
898.22        69.04154
898.62        69.14093
899.01        69.06596
899.41        68.80241
899.81        68.40075
900.21        67.94371
900.61         67.5633
901.00        67.30129
901.40        67.20504
901.80        67.26512
902.20        67.33167
902.59        67.35297
902.99        67.58089
903.39        68.10452
903.79         67.5731
904.18        68.33458
904.58         68.4725
904.98        68.54854
905.38        68.29926
905.77        67.71651
906.17        66.91254
906.57        66.10928
906.96        65.76772
907.36          65.983
907.76        66.63198
908.15        67.49046
908.55        68.02127
908.95        68.11407
909.34        67.86376
909.74        67.47336
910.14        67.23611
910.53        67.24304
910.93        67.38988
911.33        67.53841
911.72        67.47719
912.12        67.17548
912.52        66.73112
912.91          66.287
913.31        66.13126
913.70        66.30708
914.10        66.73175
914.49        67.27234
914.89         67.6239
915.29        67.71891
915.68        67.59864
916.08        67.43222
916.47        67.44675
916.87        67.71644
917.26         68.1617
917.66        68.58151
918.05        68.67508
918.45        68.37547
918.84        67.81727
919.24        67.24533
919.64        67.11266
920.03        67.51937
920.42        68.28468
920.82        69.14368
921.21        69.69038
921.61        69.82652
922.00         69.7372
922.40        69.57886
922.79        69.49233
923.19        69.22089
923.58        69.43829
923.98        70.52137
924.37        70.42284
924.77        67.92059
925.16        75.07098
925.55        69.90856
925.95        70.24886
926.34        69.88371
926.74        68.75224
927.13        67.02353
927.52        66.12231
927.92         66.5985
928.31         67.6875
928.70        69.03036
929.10        70.06184
929.49        70.64428
929.89        70.96399
930.28        70.97417
930.67        70.49004
931.07        69.57443
931.46        68.18845
931.85         66.8027
932.24        66.64017
932.64        67.87593
933.03        69.60362
933.42        70.87259
933.82        73.21092
934.21        71.78417
934.60        70.41379
934.99        68.88464
935.39        68.29823
935.78         68.7738
936.17        70.57198
936.56        76.36124
936.96        70.12856
937.35        73.65448
937.74        70.87999
938.13         68.9379
938.53        67.29417
938.92        66.56409
939.31        67.23519
939.70        68.35181
940.09        69.00411
940.49        68.95629
940.88         68.5771
941.27        68.08191
941.66        67.84248
942.05        68.01507
942.44        68.40604
942.84        68.85643
943.23        69.27029
943.62        69.56918
944.01        69.75585
944.40        69.91876
944.79        70.18353
945.18        70.55345
945.57        71.00164
945.97        71.24002
946.36        70.93083
946.75         70.0088
947.14        68.61316
947.53        67.24541
947.92        66.76349
948.31        67.36523
948.70        68.76222
949.09        70.38448
949.48         71.3485
949.87        71.42157
950.26        70.85751
950.65        69.98021
951.04        69.33495
951.43        69.10905
951.82        69.12244
952.21        69.25255
952.60        69.31441
952.99        69.23097
953.38        69.09444
953.77        68.94057
954.16        68.77572
954.55        68.61364
954.94        68.45733
955.33        68.27351
955.72        68.03326
956.11           67.75
956.50        67.42608
956.89        67.21854
957.28        67.36198
957.66        67.90661
958.05        68.70889
958.44        69.47989
958.83        69.77715
959.22        69.50356
959.61        68.73215
960.00        67.79256
960.39        67.33669
960.78        67.55475
961.16        68.28211
961.55        69.00736
961.94        69.11217
962.33        68.48725
962.72        67.31087
963.11        66.00716
963.49        65.45088
963.88        65.91634
964.27         67.0803
964.66        68.41785
965.04        69.23367
965.43         69.3134
965.82        68.91212
966.21        68.26731
966.60        67.79755
966.98        67.66666
967.37        67.72697
967.76        67.90117
968.15        68.07173
968.53        68.21114
968.92        68.36982
969.31        68.53953
969.69        68.67014
970.08        68.71808
970.47        68.65157
970.86        68.55824
971.24        68.61861
971.63        68.83242
972.02        69.15334
972.40        69.39249
972.79        69.17033
973.17        68.50176
973.56        67.53314
973.95        66.56838
974.33        66.14685
974.72        66.42088
975.11        67.18513
975.49        68.32221
975.88        69.54817
976.26        70.75785
976.65        71.91042
977.04        72.77065
977.42        72.97202
977.81        72.43633
978.19        71.19556
978.58        69.83685
978.96         69.4474
979.35        70.26839
979.74        71.88429
980.12        73.60303
980.51        74.37904
980.89        74.17195
981.28        73.19839
981.66        71.78566
982.05        70.79324
982.43        70.58433
982.82        70.91803
983.20        71.53474
983.59        71.99867
983.97        72.19243
984.35        72.21983
984.74        72.02795
985.12        71.59805
985.51        70.95851
985.89        70.23791
986.28         69.5134
986.66        68.94414
987.04        68.62411
987.43        68.41584
987.81        68.22967
988.20        69.34676
988.58        71.81694
988.96        72.90466
989.35        71.79398
989.73        77.45052
990.12         74.1711
990.50        73.99594
990.88        73.00115
991.27        72.26954
991.65         71.9445
992.03        72.08874
992.42        72.61751
992.80         72.8091
993.18         72.5125
993.56        71.97995
993.95        71.45869
994.33        71.30181
994.71        71.61123
995.10        72.19513
995.48        72.92493
995.86        73.59876
996.24        74.10788
996.63         74.4425
997.01        74.62943
997.39         74.5077
997.77         74.0778
998.15        73.38682
998.54        72.65926
998.92        72.14773
999.30        71.98746
999.68        72.19021
1000.06        72.60848
1000.45        72.86845
1000.83        72.93029
1001.21        72.82291
1001.59        72.81863
1001.97        73.31837
1002.35        74.30266
1002.73        75.54551
1003.12        76.64348
1003.50        77.14399
1003.88        76.97455
1004.26        76.25964
1004.64        75.30482
1005.02        74.76147
1005.40         74.8649
1005.78         75.4248
1006.16        76.07561
1006.54        76.16982
1006.92        75.56001
1007.30        74.56747
1007.69        73.42545
1008.07        72.51076
1008.45        71.93207
1008.83         71.5698
1009.21        71.65884
1009.59        72.63615
1009.97        74.35294
1010.35        76.36674
1010.73        78.17605
1011.11        79.54723
1011.49        80.60904
1011.86        81.23165
1012.24        81.15198
1012.62        82.42789
1013.00        82.68192
1013.38        81.85551
1013.76        79.02657
1014.14        82.21081
1014.52        87.73055
1014.90        81.49001
1015.28         83.3082
1015.66        85.00513
1016.04        82.34718
1016.41        82.47507
1016.79        81.55946
1017.17        81.14388
1017.55        80.82745
1017.93        80.69039
1018.31        80.95023
1018.69        81.48789
1019.06        82.27256
1019.44        83.25823
1019.82        83.98495
1020.20        83.77116
1020.58        82.46592
1020.95        79.91546
1021.33         76.7917
1021.71        75.32224
1022.09        76.59298
1022.46        79.55605
1022.84        82.48547
1023.22        84.11088
1023.60        84.47968
1023.97         84.0136
1024.35        83.17309
1024.73        82.83748
