SpectraSmart Spectrum 2.9.0.0
--------- Device Information -----------
Spectrum Name :  反射率_0
Saving Time :  2024/04/21 00:49:03
Spectro-Module Model Name : SE2030-DUVN
Spectro-Module Serial Number : OS361AC55029948
Wavelength Start : 200
Wavelength End : 1025
Wavelength Unit : Wavelength(nm)
Spectrum Unit : Reflectance(%)
-----------Spectrum Setting ------------
Integration Time : 20ms
Average : 10
Boxcar : 0
Background removal :  enabled
linearity correction :  enabled
SC :  disabled
Intensity correction :  disabled
DWT denoise :  enabled
savitzky-golay :  disabled
FFT :  disabled
Running average :  disabled
Kalman :  disabled
High pass :  disabled
---------------BEGIN--------------------
Wavelength(nm)             Reflectance(%)
200.29               0
200.75       -103.2635
201.21       -49.64907
201.67       -17.96011
202.13       -4.088696
202.58     -0.03329343
203.04      -0.6448737
203.50       -3.127493
203.96       -2.016545
204.42        3.770293
204.88        9.919295
205.34        14.59118
205.80        15.72014
206.26        12.61348
206.72        8.223547
207.18       -2.807525
207.64       -31.28489
208.10       -74.97135
208.55       -127.5595
209.01       -150.0473
209.47       -104.3502
209.93        -40.0197
210.39        11.53525
210.85         44.2595
211.31        58.47236
211.77        59.52427
212.23        49.18373
212.69        23.26291
213.14       -19.14119
213.60       -79.39101
214.06       -221.9025
214.52       -483.3462
214.98        -182.964
215.44       -36.37036
215.90        10.96896
216.36        24.82937
216.81        21.15845
217.27       -1.562392
217.73       -108.7639
218.19         1153.25
218.65        460.9512
219.11       -917.3362
219.57       -20.37258
220.02        35.33043
220.48        44.86125
220.94        38.96874
221.40        15.65954
221.86       -41.22537
222.32       -80.56467
222.77        -32.0961
223.23        11.86421
223.69        34.16737
224.15        41.23468
224.61         40.2514
225.06        35.57568
225.52        28.96554
225.98        22.76558
226.44        18.33122
226.90        13.89079
227.36        12.42075
227.81        18.46269
228.27        28.13706
228.73        37.52259
229.19         43.2618
229.65        43.54676
230.10        39.14053
230.56        31.16328
231.02        20.95858
231.48        14.31932
231.93        15.23248
232.39        21.44608
232.85        28.29472
233.31        31.82094
233.77        32.18599
234.22        31.06045
234.68        29.00845
235.14        27.05812
235.60        26.00525
236.05        24.76781
236.51        23.27715
236.97        27.24809
237.43        36.90023
237.88        42.45806
238.34        39.95529
238.80        60.72783
239.26        49.90709
239.71        47.89492
240.17        39.62114
240.63        29.67771
241.08        20.96785
241.54         16.9617
242.00        20.40147
242.46        22.85799
242.91        22.32736
243.37        20.75755
243.83        20.20947
244.28        25.26368
244.74        35.89029
245.20        46.71025
245.66        53.29996
246.11        52.28227
246.57        43.77538
247.03        29.25706
247.48         9.92866
247.94       -12.89807
248.40       -44.40997
248.85       -113.5222
249.31       -315.6427
249.77        -467.664
250.22       -155.9696
250.68       -28.24795
251.14        13.47509
251.59        27.95071
252.05        32.82775
252.51        32.97974
252.96        28.13546
253.42        20.11936
253.88          13.161
254.33        9.633441
254.79        12.52288
255.25        21.02264
255.70        30.73991
256.16        38.98185
256.62        45.40547
257.07        50.06642
257.53        53.55716
257.99        56.07449
258.44        56.92624
258.90        56.08553
259.35        53.65926
259.81        50.72853
260.27        48.04438
260.72        46.48969
261.18        46.18011
261.63        46.32918
262.09        46.50161
262.55        45.96207
263.00        44.67945
263.46        43.13232
263.91        41.55585
264.37        40.61047
264.83        40.25133
265.28         40.1829
265.74        40.17039
266.19        39.75365
266.65        38.92601
267.11        37.81221
267.56        36.57221
268.02        35.52076
268.47        34.69846
268.93        34.04543
269.38        33.43919
269.84        32.75421
270.30        31.94717
270.75        31.07217
271.21        30.23417
271.66        29.52493
272.12        28.98214
272.57        28.53695
273.03        28.12383
273.48        27.61835
273.94        27.02054
274.39        26.36058
274.85        25.71782
275.31         25.1451
275.76        24.66101
276.22        24.27247
276.67        23.97187
277.13        23.81474
277.58        23.74932
278.04        23.76077
278.49        23.74629
278.95         23.6295
279.40        23.35824
279.86        22.99533
280.31          22.545
280.77        22.09313
281.22        21.64261
281.68        21.23283
282.13        20.84986
282.59        20.54048
283.04        20.28514
283.50        20.08817
283.95        19.95316
284.41        19.90294
284.86        19.92161
285.32        20.01228
285.77        20.09052
286.22        20.04501
286.68        19.88845
287.13        19.62828
287.59        19.42722
288.04        19.42946
288.50        19.62699
288.95        20.08504
289.41        20.70298
289.86         20.8314
290.32        20.35478
290.77        21.33428
291.22         20.4732
291.68        20.61614
292.13        20.81633
292.59        21.13757
293.04        21.58036
293.50        22.22316
293.95        23.07972
294.40         24.0949
294.86        25.20213
295.31        26.27865
295.77        27.29023
296.22         28.2666
296.68        29.23337
297.13        30.22852
297.58        31.29301
298.04        32.42056
298.49        33.67432
298.95        35.16994
299.40        36.89254
299.85          38.805
300.31        40.76015
300.76        42.51252
301.21        44.01867
301.67        45.36276
302.12        46.67335
302.58        48.24529
303.03        50.10818
303.48        52.21684
303.94        54.42048
304.39        56.43915
304.84        58.21694
305.30        59.84895
305.75        61.44662
306.20        63.27345
306.66        65.36362
307.11        67.57106
307.57        69.74203
308.02        71.58979
308.47         73.0835
308.93        74.35882
309.38        75.51929
309.83        76.76339
310.29        78.22758
310.74        79.74807
311.19        81.26881
311.65        82.65624
312.10        83.85123
312.55        84.90479
313.00        85.84596
313.46        86.71835
313.91        87.53056
314.36        88.28327
314.82         88.9882
315.27        89.66274
315.72        90.32323
316.18        90.97143
316.63        91.62273
317.08        92.29827
317.53          92.987
317.99        93.66972
318.44        94.29173
318.89        94.75442
319.35        95.04055
319.80        95.19122
320.25         95.2739
320.70        95.40637
321.16        95.61974
321.61        95.90216
322.06        96.22562
322.51        96.54733
322.97        96.83685
323.42        97.14499
323.87        97.45134
324.32        97.73435
324.78         97.9754
325.23        98.21062
325.68        98.44997
326.13        98.74622
326.59        99.08488
327.04        99.49406
327.49        99.92336
327.94        100.3213
328.39         100.667
328.85        100.9432
329.30        101.2071
329.75        101.4313
330.20        101.6215
330.66        101.7431
331.11        101.8848
331.56        102.0658
332.01        102.3002
332.46        102.5843
332.92        102.8466
333.37        103.0948
333.82        103.2799
334.27        103.4348
334.72        103.6074
335.17        103.8758
335.63         104.235
336.08        104.7121
336.53        105.2664
336.98        105.8766
337.43        106.5144
337.88        107.1698
338.34        107.7674
338.79        108.2415
339.24        108.5547
339.69        108.7368
340.14        108.8531
340.59        109.0172
341.05        109.2703
341.50        109.5934
341.95        109.9797
342.40        110.4151
342.85        110.8798
343.30        111.3746
343.75        111.8451
344.20        112.2064
344.66        112.4482
345.11        112.5688
345.56         112.629
346.01        112.7312
346.46        112.9047
346.91        113.1127
347.36        113.2988
347.81        113.4166
348.26        113.4599
348.72        113.3079
349.17        113.2787
349.62        113.2435
350.07        113.3044
350.52        113.4183
350.97        113.5256
351.42        113.5275
351.87        113.3921
352.32         113.151
352.77        112.8468
353.22        112.5401
353.67        112.2536
354.13         111.992
354.58        111.7054
355.03        111.3709
355.48        110.9832
355.93        110.5449
356.38        110.1096
356.83        109.7538
357.28        109.4715
357.73        109.2266
358.18        108.9029
358.63        108.3206
359.08        107.4622
359.53        106.4094
359.98        105.3075
360.43        104.3738
360.88        103.6596
361.33        103.0926
361.78        102.6027
362.23        102.0732
362.68        101.4629
363.13        100.8185
363.58        100.1178
364.03        99.32138
364.48        98.43523
364.93        97.45919
365.38        96.49001
365.83        95.69598
366.28        95.10305
366.73        94.65604
367.18        94.22894
367.63        93.61504
368.08        92.77067
368.53        91.77642
368.98        90.71772
369.43        89.71589
369.88        88.81059
370.33        87.95965
370.78        87.17451
371.23        86.49097
371.68        85.91439
372.13        85.44494
372.58        85.02529
373.03        84.54517
373.48        83.96854
373.93        83.31359
374.38        82.61759
374.83         81.9613
375.28        81.37875
375.72         80.8365
376.17        80.34305
376.62        79.84357
377.07        79.31405
377.52        78.75709
377.97        78.19067
378.42        77.65765
378.87        77.17994
379.32        76.75483
379.77         76.3406
380.22         75.8644
380.67        75.30305
381.11        74.67204
381.56        74.02755
382.01        73.48718
382.46        73.09082
382.91        72.81756
383.36        72.57584
383.81        72.21998
384.26        71.72148
384.71        71.12391
385.15        70.53038
385.60        70.16016
386.05        70.02469
386.50        70.05512
386.95          70.104
387.40          69.949
387.85        69.54897
388.29        68.94227
388.74        68.35495
389.19        67.91602
389.64        67.65069
390.09        67.50222
390.54        67.37057
390.98        67.08652
391.43        66.65929
391.88        66.14679
392.33        65.66515
392.78        65.34566
393.23        65.19926
393.67        65.20712
394.12        65.31832
394.57        65.13641
395.02        64.70384
395.47        64.47405
395.91        64.44779
396.36        64.23312
396.81        63.85389
397.26        63.57163
397.71        63.39613
398.15        63.21666
398.60        63.09972
399.05        62.94481
399.50         62.8065
399.95        62.89506
400.39        63.13511
400.84        63.17882
401.29        62.97078
401.74        62.55281
402.18        62.04251
402.63        61.74207
403.08        61.66145
403.53        61.47584
403.97        61.19106
404.42        61.08243
404.87        61.10019
405.32        61.07316
405.76        60.97606
406.21        60.77971
406.66        60.55457
407.11        60.59871
407.55        60.85099
408.00        60.84777
408.45        60.57784
408.90        60.27698
409.34        60.03846
409.79        59.99848
410.24        60.10905
410.68        60.11388
411.13        60.00033
411.58        59.94868
412.03        59.97183
412.47        60.00121
412.92          60.012
413.37        60.03712
413.81        60.06387
414.26        60.12019
414.71        60.18967
415.15        60.27449
415.60        60.33326
416.05        60.35047
416.49         60.3212
416.94        60.24541
417.39         60.1431
417.83        60.03243
418.28        59.93176
418.73        59.84997
419.17        59.78364
419.62        59.73538
420.07        59.69794
420.51        59.65491
420.96        59.66275
421.41        59.72183
421.85        59.79588
422.30        60.02506
422.74        60.27496
423.19        60.19811
423.64        59.87473
424.08        59.94213
424.53        60.33978
424.98        60.52451
425.42        60.48138
425.87        60.49834
426.31        60.61522
426.76        60.79707
427.21        61.01599
427.65        61.16222
428.10        61.18778
428.54        61.19517
428.99        61.22126
429.44        61.21503
429.88        61.15509
430.33        61.06902
430.77         60.9396
431.22        60.94586
431.66        61.06699
432.11        61.18414
432.56        61.32635
433.00        61.48901
433.45        61.45514
433.89         61.4739
434.34        61.69193
434.78        60.67402
435.23        60.74172
435.67        61.53001
436.12        62.00763
436.57        62.32291
437.01        62.05246
437.46        61.94464
437.90        62.69237
438.35        62.33254
438.79        62.56466
439.24        62.42985
439.68        62.41371
440.13        62.31355
440.57        62.18464
441.02         62.4202
441.46        62.86797
441.91        62.84257
442.35        62.43927
442.80        62.67002
443.24        63.39836
443.69          63.689
444.13         63.4473
444.58        63.36391
445.02        63.16787
445.47        63.19354
445.91        63.30285
446.36        63.30921
446.80        63.20035
447.24        63.09176
447.69         63.0385
448.13        63.21264
448.58        63.38279
449.02        63.38799
449.47         63.2016
449.91        63.12532
450.36        63.18681
450.80        63.13201
451.25        62.99495
451.69        62.98614
452.13        63.06571
452.58         62.9281
453.02        62.61005
453.47        62.44652
453.91        62.44678
454.36        62.43889
454.80        62.40802
455.24        62.42322
455.69         62.4928
456.13        62.54591
456.58        62.56201
457.02        62.62307
457.46        62.39851
457.91        62.26988
458.35        62.26482
458.79        62.21765
459.24        62.16354
459.68        62.20898
460.13        62.39402
460.57        62.33427
461.01        61.97359
461.46        62.45201
461.90        62.16992
462.34        61.74535
462.79        61.77925
463.23        61.75374
463.68        62.08845
464.12         61.8462
464.56        61.26352
465.01         61.4089
465.45        62.06701
465.89        62.18501
466.34        61.79352
466.78        61.66727
467.22        61.84724
467.67        61.59464
468.11        61.32603
468.55        61.15434
468.99         61.1879
469.44        61.13713
469.88        60.99738
470.32        60.89656
470.77        60.85542
471.21        60.85299
471.65        60.89001
472.10         60.9758
472.54        61.04421
472.98        61.04133
473.42        60.96344
473.87        60.76254
474.31        60.50706
474.75        60.56242
475.20         60.8216
475.64        60.85809
476.08        60.70184
476.52        60.54219
476.97        60.31406
477.41        60.90584
477.85        60.40932
478.29        60.39552
478.74        60.25272
479.18        60.31591
479.62        60.55243
480.06        60.61627
480.50        60.48531
480.95        60.52534
481.39        60.77896
481.83        60.40513
482.27        60.60283
482.72        60.96156
483.16         60.7462
483.60        60.89421
484.04         61.1082
484.48        60.81846
484.93        60.69559
485.37         60.5707
485.81        60.68659
486.25        60.37622
486.69        61.72564
487.14        61.98601
487.58        61.43294
488.02         60.6057
488.46        60.18694
488.90        59.93282
489.34         60.2901
489.79        59.91553
490.23        60.11342
490.67         60.2624
491.11        60.62805
491.55        60.54476
491.99        60.10962
492.43        59.94589
492.88        60.08845
493.32        60.24997
493.76        60.31158
494.20        60.33985
494.64        60.34301
495.08         59.9268
495.52        59.74065
495.96         59.7941
496.41        60.13707
496.85        60.08759
497.29        59.66604
497.73        59.67407
498.17        59.77971
498.61        59.92224
499.05        59.91973
499.49        59.69382
499.93        59.37708
500.37         59.3589
500.82        59.59988
501.26         59.8479
501.70        59.98481
502.14        59.58769
502.58        59.27965
503.02        59.04343
503.46        59.23994
503.90        59.44764
504.34        59.60673
504.78          59.688
505.22        59.68025
505.66        59.46453
506.10        59.12802
506.54        59.17021
506.98        59.61203
507.42        59.09847
507.86        59.58767
508.30          59.245
508.74        59.52248
509.18        59.49858
509.62        59.44875
510.06         59.4463
510.50        59.46349
510.94        59.41167
511.38        59.28587
511.82        59.17439
512.26        59.08358
512.70        58.97776
513.14        58.86794
513.58        58.78524
514.02         58.7366
514.46        58.71866
514.90        58.71331
515.34         58.7305
515.78         58.7694
516.22        58.78609
516.66        58.63964
517.10        58.96066
517.54        58.81883
517.98        58.93206
518.42        59.00327
518.86        59.02204
519.30        58.98265
519.74        58.86708
520.18        58.74089
520.62        58.77477
521.06           58.94
521.50        58.99764
521.93        58.93753
522.37        58.93054
522.81        58.97504
523.25        58.96397
523.69        58.89157
524.13        58.80345
524.57        58.70837
525.01        58.59904
525.45        58.50414
525.89         58.4694
526.32        58.49997
526.76        58.58599
527.20        58.69649
527.64        58.78193
528.08        58.82368
528.52        58.83456
528.96         58.8201
529.40        58.78352
529.83        58.73038
530.27        58.68994
530.71        58.65571
531.15        58.61703
531.59        58.57681
532.03         58.5435
532.46        58.52607
532.90        58.54936
533.34        58.60628
533.78        58.68508
534.22        58.75134
534.66        58.75308
535.09        58.67463
535.53        58.55584
535.97        58.41801
536.41        58.31156
536.85        58.25369
537.28        58.23092
537.72        58.24059
538.16        58.27763
538.60        58.33218
539.04        58.40462
539.47        58.46094
539.91        58.49776
540.35        58.49533
540.79        58.46099
541.22        58.40954
541.66         58.3786
542.10         58.3762
542.54         58.3973
542.97        58.42216
543.41        58.44878
543.85        58.46018
544.29         58.4634
544.72        58.46336
545.16        58.46868
545.60        58.46457
546.04        58.52882
546.47        58.63736
546.91        58.54058
547.35        58.36488
547.79         58.5078
548.22        58.87099
548.66        58.95689
549.10        58.76047
549.53        58.57697
549.97        58.47448
550.41        58.40849
550.84        58.40875
551.28        58.46441
551.72        58.55098
552.15        58.66231
552.59        58.80189
553.03        58.63079
553.46        58.99854
553.90        58.57104
554.34        58.71802
554.77        58.52191
555.21        58.38187
555.65        58.35182
556.08        58.43662
556.52        58.59813
556.96        58.76143
557.39        58.89949
557.83        58.97259
558.27        58.88429
558.70        58.68876
559.14        58.55327
559.57        58.52013
560.01        58.62706
560.45        58.78435
560.88        58.82597
561.32        58.78248
561.75        58.60355
562.19        58.41307
562.63        58.56009
563.06        58.91314
563.50        58.82681
563.93         58.3554
564.37         58.1136
564.80        58.15508
565.24        58.34818
565.68        58.60707
566.11        58.76322
566.55        58.80373
566.98        58.83477
567.42         58.8769
567.85         58.8843
568.29        58.92735
568.72        58.93116
569.16         58.9034
569.60        59.27202
570.03        59.05157
570.47        59.15737
570.90        59.28578
571.34        59.09226
571.77        59.70443
572.21        59.30699
572.64        59.39117
573.08        59.44823
573.51        59.38065
573.95        59.87608
574.38        59.79773
574.82        60.21483
575.25        60.08768
575.69        59.96751
576.12        59.48232
576.56        59.46829
576.99        59.95877
577.42        59.88369
577.86        59.93124
578.29        60.33649
578.73        60.62048
579.16        60.47993
579.60        59.91977
580.03        59.96733
580.47        59.88198
580.90        60.15227
581.33        60.04317
581.77        60.06034
582.20        60.70026
582.64        60.76446
583.07        60.42967
583.51        59.63854
583.94        59.72841
584.37        59.41355
584.81        59.32393
585.24        59.39204
585.68        59.93269
586.11        59.94939
586.54        60.12627
586.98        59.71363
587.41        59.34442
587.85        60.03549
588.28        59.73587
588.71        60.10738
589.15        59.87561
589.58        59.42963
590.01        59.48639
590.45        59.32309
590.88        59.60489
591.31        59.33829
591.75        59.15051
592.18        59.07692
592.61        59.27777
593.05        59.36729
593.48        59.93466
593.91        59.69412
594.35         59.9828
594.78        59.93378
595.21        59.39259
595.65        59.45897
596.08        59.85046
596.51        60.02637
596.94        59.56956
597.38        59.43037
597.81        59.54766
598.24         59.7073
598.68        59.55567
599.11        59.59676
599.54        59.70248
599.97        59.67878
600.41        60.01102
600.84        59.92738
601.27        59.82855
601.70          59.818
602.14        59.38811
602.57        59.40615
603.00         59.6778
603.43        59.74234
603.87        60.10067
604.30        59.89075
604.73        59.80759
605.16        59.42294
605.60        59.58783
606.03        59.70078
606.46        59.90028
606.89        59.80407
607.32        59.32961
607.76        59.94241
608.19        59.90389
608.62        59.65211
609.05        60.42058
609.48        59.84321
609.92        59.78922
610.35        59.56435
610.78        59.78221
611.21        59.42839
611.64         59.5417
612.07        59.45888
612.50        59.44609
612.94        59.59726
613.37        59.52396
613.80        59.62661
614.23        59.66541
614.66        59.59457
615.09        59.41739
615.52        59.32858
615.96        59.34031
616.39        59.35259
616.82        59.19633
617.25        59.32922
617.68        59.27924
618.11        59.31239
618.54        59.44616
618.97        59.43351
619.40        59.28735
619.84        59.31789
620.27        59.01619
620.70        58.99623
621.13        59.06563
621.56        59.05886
621.99        58.99406
622.42        59.03087
622.85        59.12905
623.28        59.34679
623.71        59.24983
624.14        59.36364
624.57        59.28915
625.00        59.46909
625.43        59.11546
625.86        59.13387
626.29         59.3526
626.72        58.95552
627.15        59.07344
627.58         59.0044
628.01        59.14973
628.44        58.83795
628.87        58.76291
629.30        59.13735
629.73        58.93949
630.16        58.76727
630.59        58.75606
631.02        58.92282
631.45        58.58645
631.88        58.57674
632.31        58.68256
632.74        58.53186
633.17        58.69405
633.60        58.66292
634.03         58.6141
634.46        58.58792
634.89        58.51324
635.32        58.49718
635.75         58.5129
636.18        58.55945
636.61        58.61698
637.04         58.6568
637.47        58.67157
637.89         58.6739
638.32        58.66768
638.75        58.67921
639.18        58.70546
639.61        58.76101
640.04        58.83479
640.47        58.82868
640.90        58.71777
641.33        58.84464
641.76        58.65095
642.18        58.63545
642.61        58.62304
643.04        58.62926
643.47        58.63438
643.90        58.62172
644.33         58.5925
644.76        58.53539
645.18        58.47718
645.61        58.48053
646.04        58.54025
646.47        58.58397
646.90        58.59659
647.33        58.61078
647.75        58.60925
648.18        58.58134
648.61        58.57099
649.04        58.57037
649.47        58.57257
649.89         58.9445
650.32        58.96861
650.75        59.01911
651.18        58.90266
651.61        58.65238
652.03        58.39494
652.46        58.42089
652.89        58.70627
653.32        58.84328
653.74        58.83187
654.17        58.60149
654.60        58.97833
655.03        58.50845
655.46        58.46299
655.88        59.19703
656.31        60.36462
656.74        64.75494
657.16        63.38824
657.59        61.69136
658.02        60.10787
658.45        59.42825
658.87        58.90797
659.30        59.08507
659.73        58.91876
660.15        58.14452
660.58        58.75734
661.01         59.0195
661.44        59.39399
661.86        59.30842
662.29        58.84618
662.72        58.52974
663.14        58.50022
663.57        58.62293
664.00        58.83302
664.42        58.95049
664.85        58.95454
665.27        58.87216
665.70        58.91471
666.13        58.89989
666.55        58.89591
666.98        58.89481
667.41        58.89652
667.83         58.9094
668.26        58.94354
668.69        58.94917
669.11        58.90632
669.54        58.99171
669.96        59.24886
670.39        58.83555
670.82        59.18166
671.24        59.16255
671.67        59.18096
672.09         59.2138
672.52        59.26537
672.94        59.19382
673.37        59.03512
673.80         59.0014
674.22        59.08943
674.65        59.08221
675.07        58.99035
675.50        58.92456
675.92        58.90657
676.35        58.89642
676.77        58.89618
677.20        58.93697
677.62        59.02351
678.05        59.07644
678.47        59.07348
678.90        59.30731
679.32        59.26525
679.75        59.37836
680.17        59.48626
680.60        59.61263
681.02        59.71795
681.45        59.69913
681.87        59.57841
682.30         59.4662
682.72        59.41383
683.15        59.37286
683.57        59.33746
684.00        59.47831
684.42        59.41232
684.85        59.47257
685.27        59.52837
685.70        59.56752
686.12        59.56466
686.54        59.53591
686.97        59.47763
687.39        59.40868
687.82        59.34476
688.24        59.30328
688.66        59.28106
689.09        59.46792
689.51        59.40154
689.94        59.58799
690.36        59.81987
690.78        59.72198
691.21         59.3908
691.63        59.38465
692.06        59.69839
692.48        59.85355
692.90        59.81498
693.33        59.81344
693.75        59.84761
694.17        59.78468
694.60        59.64503
695.02        59.61463
695.44        59.49053
695.87        59.61305
696.29        59.87693
696.71        59.93103
697.14        59.79925
697.56        59.99181
697.98        60.43767
698.41        60.34602
698.83        60.30223
699.25        60.03937
699.68        59.80918
700.10        59.64253
700.52        59.57711
700.94        59.59872
701.37        59.65467
701.79        59.71232
702.21        59.73337
702.64        59.74046
703.06        59.74277
703.48         59.7611
703.90        59.80525
704.33        59.85891
704.75          59.922
705.17        59.98105
705.59        60.03153
706.01        60.07117
706.44        60.11459
706.86        60.19944
707.28        60.31391
707.70          60.453
708.12        60.57922
708.55        60.61086
708.97        60.53854
709.39        60.42742
709.81        60.31443
710.23        60.23572
710.66        60.21577
711.08        60.26916
711.50        60.35048
711.92        60.39241
712.34        60.37977
712.76        60.33002
713.19        60.26805
713.61        60.27994
714.03        60.35622
714.45        60.48375
714.87        60.62095
715.29        60.66451
715.71        60.59276
716.13        60.59442
716.56        60.41075
716.98        60.37586
717.40        60.41209
717.82        60.50153
718.24        60.61704
718.66        60.71853
719.08        60.79227
719.50        60.84893
719.92        60.88828
720.34        60.90775
720.76        60.91043
721.19        60.88541
721.61        60.86507
722.03        60.87674
722.45        60.92741
722.87        61.01162
723.29        61.10579
723.71        61.16832
724.13        61.18949
724.55        61.18002
724.97        61.16575
725.39        61.19078
725.81        61.26315
726.23        61.36333
726.65         61.4645
727.07        61.53005
727.49        61.55272
727.91        61.53716
728.33        61.49575
728.75        61.48554
729.17        61.50037
729.59        61.44743
730.01        61.36893
730.43        61.40459
730.85        61.56023
731.27        61.76072
731.69        61.93626
732.10         61.9458
732.52        61.95585
732.94        61.61505
733.36        61.12713
733.78        60.91365
734.20        61.05072
734.62        61.32614
735.04        61.62818
735.46        61.88334
735.88        62.05022
736.30        62.00591
736.72        62.04795
737.13         61.9993
737.55        61.93066
737.97         61.8042
738.39         61.6794
738.81        61.71243
739.23        61.88741
739.65        62.05249
740.06        62.10214
740.48        62.10915
740.90        62.02915
741.32        61.80806
741.74        61.54446
742.16        61.45776
742.57        61.60321
742.99        61.89201
743.41        62.21167
743.83        62.36686
744.25        62.30917
744.67        62.09727
745.08        61.84475
745.50        61.69981
745.92        61.72647
746.34        61.87625
746.75        62.06941
747.17        62.17773
747.59        62.16991
748.01        62.05349
748.42        61.91137
748.84        61.92458
749.26        62.09048
749.68         62.2295
750.09        62.27254
750.51        62.23551
750.93        62.11617
751.35        61.92125
751.76        61.72962
752.18        61.65435
752.60        61.72278
753.01        61.92566
753.43        62.14817
753.85        62.23477
754.27        62.14989
754.68        61.94757
755.10         61.7317
755.52        61.64282
755.93        61.71783
756.35        61.91296
756.77        62.17607
757.18        62.38381
757.60        62.48456
758.02        62.57921
758.43        62.70908
758.85        62.49031
759.26        62.66594
759.68        62.72536
760.10        62.33135
760.51        62.03919
760.93        62.60279
761.34        61.87702
761.76        62.73444
762.18        62.86372
762.59        62.95592
763.01        63.06596
763.42        62.42999
763.84        62.48338
764.26        62.59258
764.67        62.86314
765.09        63.07601
765.50        63.07812
765.92        62.92601
766.33        62.83457
766.75        62.80502
767.16        62.78694
767.58        62.73641
768.00        62.70426
768.41        62.74485
768.83        62.86285
769.24         62.9443
769.66        63.21056
770.07        62.75722
770.49        62.58913
770.90        62.50812
771.32        62.54754
771.73        62.68461
772.15        62.78161
772.56        62.84275
772.97        62.97113
773.39        63.11333
773.80        63.18026
774.22         63.1289
774.63        63.01788
775.05        62.88428
775.46        62.83407
775.88        62.87138
776.29         62.9858
776.70        63.11559
777.12        63.17249
777.53        63.14764
777.95        63.06242
778.36        62.94646
778.77        62.84048
779.19        62.77002
779.60        62.73544
780.02        62.73892
780.43        62.83545
780.84         63.0276
781.26        63.18092
781.67        63.32081
782.09        63.65512
782.50         64.0415
782.91         64.0031
783.33        63.58408
783.74        63.38473
784.15        63.43514
784.57        63.42736
784.98        63.37234
785.39        63.40363
785.81         63.5174
786.22        63.67262
786.63        63.83618
787.04        63.95316
787.46        64.01794
787.87        64.02589
788.28        63.99712
788.70         63.9545
789.11        63.89218
789.52        63.81757
789.93        63.75823
790.35        63.74707
790.76        63.80673
791.17        63.93825
791.58        64.09898
792.00        64.20509
792.41         64.2665
792.82        64.26535
793.23        64.28416
793.65        64.44241
794.06        64.72536
794.47        65.07998
794.88        65.44636
795.29        65.24511
795.71         65.4474
796.12        65.26213
796.53        65.02566
796.94        64.82925
797.35        64.72491
797.76        64.70573
798.18        64.74644
798.59        64.78722
799.00        64.80621
799.41        64.85172
799.82        64.88666
800.23         64.8326
800.64        64.68476
801.06        64.44254
801.47        64.22813
801.88        64.17507
802.29        64.31396
802.70         64.5979
803.11        64.92972
803.52        65.13926
803.93        65.17812
804.34        65.09827
804.75        64.96088
805.17        64.88412
805.58        64.93678
805.99        64.99002
806.40        65.04892
806.81        65.30597
807.22        65.65395
807.63        65.68704
808.04        65.46133
808.45        65.42924
808.86         65.6212
809.27        65.76831
809.68        65.82519
810.09        65.84023
810.50        65.80216
810.91        65.70935
811.32        65.57912
811.73        65.43767
812.14        65.30069
812.55        65.16537
812.96        65.06563
813.37        65.05216
813.78        65.13026
814.19        65.28864
814.60         65.4564
815.01        65.52066
815.42        65.45971
815.83        65.30097
816.24        65.12296
816.65        65.07508
817.05        65.20763
817.46        65.44661
817.87        65.73489
818.28        65.94833
818.69        66.05332
819.10        66.08003
819.51        66.07581
819.92        66.12305
820.33        66.23928
820.74        66.38526
821.14        66.50411
821.55        66.53361
821.96        66.44977
822.37        66.28544
822.78        66.08105
823.19        65.90495
823.60        65.78793
824.00        65.72704
824.41         65.6922
824.82        65.69468
825.23        65.72578
825.64         65.7926
826.04        65.88029
826.45        65.92244
826.86        65.92281
827.27        65.89782
827.68         65.8803
828.08        65.95486
828.49         66.0687
828.90        66.23671
829.31        66.45576
829.72        66.62653
830.12        66.72892
830.53        67.13686
830.94        67.08803
831.35        67.01453
831.75        66.71592
832.16        66.23235
832.57         65.7423
832.97        65.54052
833.38        65.69211
833.79        66.09538
834.20        66.60364
834.60         66.9942
835.01         67.1906
835.42        67.24873
835.82        67.19888
836.23        67.04906
836.64        66.84656
837.04        66.60549
837.45        66.34541
837.86        66.16266
838.26        66.09802
838.67        66.12798
839.08        66.26392
839.48        66.49479
839.89        66.78905
840.29        67.13474
840.70        67.47044
841.11        67.69727
841.51        67.79965
841.92        67.75844
842.33         67.6292
842.73         67.5137
843.14        67.40802
843.54         67.3318
843.95        67.26955
844.35        67.21471
844.76        67.15716
845.17        67.10867
845.57        67.10767
845.98        67.17183
846.38        67.32748
846.79        67.54227
847.19        67.77032
847.60        67.86367
848.00        67.82834
848.41        67.65862
848.81        67.50477
849.22        67.55616
849.62        67.88425
850.03        68.37845
850.43        68.89577
850.84        69.10855
851.24        68.99741
851.65        68.59351
852.05        68.10192
852.46        67.80002
852.86        67.78399
853.27        67.99085
853.67        68.22913
854.07         68.3726
854.48        68.34927
854.88        68.24081
855.29        68.04981
855.69        67.94033
856.10        67.87038
856.50        67.88556
856.90        67.90137
857.31         67.8349
857.71        67.72405
858.12        67.54356
858.52        67.37435
858.92         67.2767
859.33        67.25239
859.73        67.33337
860.13        67.42909
860.54        67.39341
860.94        67.25528
861.34         67.0042
861.75        66.73441
862.15        66.68382
862.55        66.85417
862.96        67.16112
863.36         67.4547
863.76        67.43671
864.17        67.04438
864.57        66.41211
864.97        65.69247
865.38          65.129
865.78         64.8571
866.18        64.79933
866.58        64.97105
866.99        65.35098
867.39        65.90664
867.79        66.60125
868.19        67.25495
868.60        67.53006
869.00        67.45415
869.40        67.26576
869.80        67.02979
870.21        66.70971
870.61        66.42634
871.01         66.2467
871.41        66.14478
871.81        65.98408
872.22        65.76325
872.62         65.5548
873.02        65.37907
873.42        65.43111
873.82        65.55083
874.22        65.20767
874.63         64.7138
875.03        64.69991
875.43        65.22083
875.83        66.88918
876.23          66.925
876.63        66.54414
877.03         65.4303
877.44         63.0934
877.84        166.6448
878.24        63.27834
878.64        64.01552
879.04        65.62186
879.44        66.35902
879.84         63.5082
880.24        68.55118
880.64         69.0565
881.04        67.10595
881.44        65.44176
881.84        64.52734
882.24        64.51159
882.65        65.03806
883.05         65.1006
883.45        64.48938
883.85        63.96981
884.25        63.74274
884.65        63.70977
885.05        63.88977
885.45        64.22084
885.85        64.58274
886.25         64.8381
886.65        64.94221
887.05        64.94048
887.45        64.81572
887.85        64.54694
888.25        64.16797
888.65         63.6931
889.04        63.29127
889.44        63.24652
889.84        63.58994
890.24         64.2101
890.64        64.87817
891.04        65.25471
891.44        65.26516
891.84        65.02096
892.24        64.63141
892.64        64.29413
893.04        64.10132
893.44        64.00116
893.83        64.03598
894.23        64.23972
894.63        64.61057
895.03          65.148
895.43        65.73571
895.83        66.16306
896.23         66.3666
896.63        66.37185
897.02        66.28138
897.42        66.32833
897.82        66.52575
898.22        66.80882
898.62        67.04208
899.01        67.01438
899.41        66.67184
899.81        66.12716
900.21        65.53155
900.61        65.12429
901.00        64.96439
901.40        65.03288
901.80         65.2724
902.20        65.45901
902.59        65.51671
902.99        65.75523
903.39        66.23322
903.79         65.4618
904.18        65.95605
904.58        65.69302
904.98        65.43639
905.38        65.14963
905.77          64.851
906.17         64.5813
906.57        64.34752
906.96        64.25668
907.36        64.32687
907.76        64.54623
908.15        64.90794
908.55        65.25021
908.95        65.56796
909.34        65.82829
909.74        66.07562
910.14        66.35028
910.53        66.65139
910.93        66.94946
911.33        67.13728
911.72        67.04955
912.12         66.6858
912.52        66.11951
912.91        65.52446
913.31        65.25404
913.70        65.35666
914.10        65.72879
914.49        66.21099
914.89        66.44163
915.29        66.34158
915.68         65.9976
916.08        65.55684
916.47        65.20312
916.87        65.03466
917.26        64.99849
917.66        65.03513
918.05        65.07195
918.45        65.06507
918.84         65.0484
919.24         65.0822
919.64        65.31292
920.03        65.75037
920.42        66.31241
920.82        66.80339
921.21        66.94065
921.61         66.6957
922.00        66.21793
922.40        65.78012
922.79        65.69133
923.19        65.67281
923.58        66.45576
923.98        68.20166
924.37        68.33457
924.77        65.48987
925.16        72.78899
925.55         66.6168
925.95        66.85281
926.34        66.78254
926.74        66.19041
927.13         65.0274
927.52        64.37564
927.92         64.6759
928.31        65.30826
928.70        66.10224
929.10        66.73355
929.49        67.13721
929.89        67.42664
930.28        67.53794
930.67         67.2683
931.07        66.64521
931.46        65.61978
931.85        64.60361
932.24        64.72434
932.64         66.1235
933.03        67.89433
933.42        69.08197
933.82        71.40859
934.21        69.75996
934.60        68.17477
934.99        66.50498
935.39        66.06159
935.78        66.95624
936.17        69.38333
936.56        75.81623
936.96         69.6333
937.35        73.04155
937.74        69.71442
938.13        67.07677
938.53        64.97706
938.92        64.24896
939.31        65.31329
939.70        66.94912
940.09        67.93951
940.49        67.97897
940.88        67.51399
941.27        66.82897
941.66        66.42444
942.05        66.50639
942.44        66.83828
942.84         67.1869
943.23         67.3482
943.62        67.24945
944.01        66.97679
944.40        66.74635
944.79        66.89317
945.18        67.46539
945.57        68.31833
945.97        69.08838
946.36        69.33537
946.75         68.9078
947.14        67.94219
947.53        66.75743
947.92        65.92225
948.31        65.62524
948.70        65.72237
949.09        65.96909
949.48        65.96261
949.87        65.62086
950.26        65.12315
950.65        64.64549
951.04        64.45846
951.43        64.63611
951.82          65.029
952.21        65.59212
952.60        66.26099
952.99        66.93147
953.38        67.59505
953.77        68.04742
954.16          67.991
954.55        67.41506
954.94        66.41885
955.33        65.31732
955.72        64.71076
956.11        64.80098
956.50        65.42457
956.89        66.33545
957.28        67.10568
957.66        67.60176
958.05        67.85963
958.44        67.91209
958.83        67.79441
959.22        67.53067
959.61        67.07132
960.00        66.48146
960.39        65.93774
960.78        65.54496
961.16        65.37141
961.55        65.29262
961.94        65.17868
962.33        64.99867
962.72        64.78691
963.11        64.67881
963.49        64.93376
963.88        65.56799
964.27        66.42986
964.66        67.25269
965.04        67.72124
965.43        67.72803
965.82        67.40477
966.21        66.90651
966.60        66.52728
966.98        66.37534
967.37        66.35522
967.76        66.42374
968.15         66.4957
968.53        66.55241
968.92        66.63461
969.31         66.6811
969.69        66.55867
970.08        66.23674
970.47        65.74627
970.86        65.30588
971.24        65.31084
971.63        65.80001
972.02        66.61414
972.40        67.46655
972.79        67.84925
973.17        67.71448
973.56        67.23275
973.95        66.59192
974.33        66.13472
974.72        65.99196
975.11        66.02538
975.49        66.35133
975.88        67.07897
976.26        68.21905
976.65        69.64544
977.04        70.94855
977.42        71.48237
977.81        71.08668
978.19        69.85695
978.58        68.45425
978.96        68.10258
979.35        69.06575
979.74        70.83791
980.12        72.63936
980.51        73.32951
980.89        72.84731
981.28        71.43163
981.66        69.46358
982.05        67.96992
982.43        67.42784
982.82        67.61777
983.20        68.22414
983.59        68.69081
983.97        68.87757
984.35        68.93268
984.74        68.90058
985.12        68.90752
985.51        68.96159
985.89        69.05984
986.28        69.11991
986.66        69.12032
987.04        69.11518
987.43        69.03015
987.81        68.77718
988.20        69.63091
988.58        71.73255
988.96        72.38355
989.35        70.82203
989.73        76.54253
990.12        73.26505
990.50        73.43412
990.88         72.8372
991.27        72.31113
991.65        71.89557
992.03        71.71989
992.42        71.75506
992.80        71.39095
993.18        70.55267
993.56        69.47548
993.95        68.52065
994.33        68.21196
994.71        68.67189
995.10        69.67318
995.48        70.90951
995.86        71.86578
996.24        72.35729
996.63        72.46652
997.01        72.36339
997.39         72.1311
997.77        71.83121
998.15        71.40466
998.54        71.02469
998.92        70.87755
999.30        71.05545
999.68        71.60421
1000.06         72.2819
1000.45          72.507
1000.83        72.23239
1001.21        71.61555
1001.59          71.114
1001.97        71.41443
1002.35        72.52195
1002.73        74.01473
1003.12        75.50262
1003.50        76.58404
1003.88        77.14353
1004.26         77.3514
1004.64        77.07913
1005.02        76.10267
1005.40        74.44971
1005.78        72.18871
1006.16        69.91734
1006.54        68.58504
1006.92        68.47268
1007.30        69.49858
1007.69        70.93826
1008.07        71.75951
1008.45         71.7009
1008.83        70.95096
1009.21        70.29115
1009.59        71.24601
1009.97         73.9041
1010.35        77.28551
1010.73        80.22866
1011.11        81.79597
1011.49        82.04476
1011.86         81.0925
1012.24        79.07169
1012.62        79.48118
1013.00        80.08148
1013.38        80.31866
1013.76        78.80617
1014.14        82.82239
1014.52        88.28411
1014.90        82.09265
1015.28        83.29414
1015.66        84.36884
1016.04        80.94362
1016.41        80.45399
1016.79        78.87351
1017.17        77.96035
1017.55        77.25822
1017.93        76.97663
1018.31        77.27134
1018.69        77.75851
1019.06        78.37894
1019.44        79.12604
1019.82        79.74661
1020.20        79.87239
1020.58        79.45962
1020.95        78.42346
1021.33        77.17667
1021.71        76.76435
1022.09        77.64911
1022.46        79.29073
1022.84        80.91339
1023.22        82.05373
1023.60        82.78129
1023.97        83.31913
1024.35        83.77859
1024.73        84.28391
