SpectraSmart Spectrum 2.9.0.0
--------- Device Information -----------
Spectrum Name :  反射率_0
Saving Time :  2024/04/21 00:06:59
Spectro-Module Model Name : SE2030-DUVN
Spectro-Module Serial Number : OS361AC55029948
Wavelength Start : 200
Wavelength End : 1025
Wavelength Unit : Wavelength(nm)
Spectrum Unit : Reflectance(%)
-----------Spectrum Setting ------------
Integration Time : 20ms
Average : 10
Boxcar : 0
Background removal :  enabled
linearity correction :  enabled
SC :  disabled
Intensity correction :  disabled
DWT denoise :  enabled
savitzky-golay :  disabled
FFT :  disabled
Running average :  disabled
Kalman :  disabled
High pass :  disabled
---------------BEGIN--------------------
Wavelength(nm)             Reflectance(%)
200.29               0
200.75        78.76311
201.21        75.64308
201.67        69.00777
202.13        65.03029
202.58          62.702
203.04         60.4868
203.50          57.543
203.96        53.11383
204.42        47.41977
204.88        41.41945
205.34         35.3369
205.80         27.9499
206.26        18.35721
206.72        7.794864
207.18       -3.698133
207.64       -15.69273
208.10       -24.44154
208.55       -29.05486
209.01       -20.16267
209.47        6.799448
209.93        32.71313
210.39        50.41247
210.85        61.17753
211.31        67.21102
211.77        70.78851
212.23        73.42831
212.69        74.22191
213.14        68.20296
213.60        40.15641
214.06        -69.9819
214.52       -393.0631
214.98       -198.8112
215.44       -38.83483
215.90         19.9399
216.36        40.91953
216.81        44.87322
217.27        36.36245
217.73       -13.23922
218.19        598.0092
218.65        278.4842
219.11       -532.5019
219.57        1.940765
220.02        35.98147
220.48        41.57293
220.94        37.47843
221.40        22.72665
221.86       -11.66032
222.32       -31.23645
222.77        2.582445
223.23        30.35017
223.69        43.94074
224.15        48.36198
224.61        48.01269
225.06        45.35079
225.52        41.04539
225.98        35.63984
226.44        29.85722
226.90        22.87918
227.36        17.94499
227.81        20.93733
228.27        29.06352
228.73        37.76136
229.19        43.58147
229.65        44.77872
230.10        42.13044
230.56        37.08892
231.02        30.29359
231.48        24.77193
231.93        23.37989
232.39        25.41878
232.85        28.68924
233.31         31.0951
233.77         32.6246
234.22        34.34428
234.68        35.90004
235.14        36.45454
235.60        36.01923
236.05        34.06942
236.51        31.37933
236.97        34.79879
237.43        44.99922
237.88        52.72383
238.34         54.6598
238.80        72.53685
239.26        66.29881
239.71        64.85561
240.17        58.32288
240.63          52.124
241.08        50.41415
241.54        55.30557
242.00        65.69365
242.46        72.98956
242.91          75.145
243.37        72.46455
243.83        66.53683
244.28        63.67147
244.74        67.17979
245.20        73.83806
245.66        78.53956
246.11        75.95121
246.57        65.66846
247.03         49.3521
247.48        29.88744
247.94        12.18128
248.40        -3.99828
248.85       -28.59678
249.31       -80.20838
249.77       -81.56121
250.22        8.718672
250.68        35.55596
251.14        43.14203
251.59        47.29598
252.05        51.72736
252.51         57.2815
252.96        62.90301
253.42        64.60708
253.88        60.09422
254.33        52.92658
254.79        49.47106
255.25        51.89174
255.70        57.10935
256.16        62.62249
256.62        66.90067
257.07        69.28602
257.53        70.64645
257.99        71.13889
258.44        70.88749
258.90        70.76271
259.35         70.1974
259.81        69.59646
260.27        68.50682
260.72        66.59358
261.18        64.53923
261.63        62.35884
262.09        60.56834
262.55        59.13988
263.00        57.92274
263.46        57.01292
263.91        56.20828
264.37        55.72507
264.83        55.42037
265.28        55.17794
265.74        54.95577
266.19        54.45303
266.65        53.70658
267.11        52.70977
267.56         51.5449
268.02         50.4534
268.47        49.43658
268.93        48.49489
269.38        47.48718
269.84        46.26387
270.30        44.81107
270.75        43.21732
271.21        41.71809
271.66        40.58655
272.12        39.90165
272.57        39.52982
273.03        39.29009
273.48        38.85742
273.94        38.18855
274.39        37.34698
274.85        36.48368
275.31        35.74907
275.76        35.17112
276.22        34.71542
276.67        34.31139
277.13        33.96347
277.58        33.60126
278.04        33.26656
278.49        32.87665
278.95        32.40819
279.40        31.81339
279.86        31.15497
280.31        30.44129
280.77        29.78707
281.22        29.18736
281.68        28.69197
282.13        28.24308
282.59        27.83991
283.04        27.45079
283.50        27.10346
283.95        26.84864
284.41        26.79617
284.86        26.93077
285.32        27.22497
285.77        27.51823
286.22        27.60666
286.68         27.4818
287.13        27.16734
287.59         26.8802
288.04        26.84118
288.50        27.06612
288.95        27.57284
289.41        28.21089
289.86         28.2892
290.32        27.70185
290.77        28.36911
291.22        27.36801
291.68        27.39346
292.13        27.60707
292.59         28.0392
293.04        28.66423
293.50        29.51302
293.95        30.58198
294.40        31.84574
294.86        33.22388
295.31        34.56936
295.77        35.84501
296.22        37.06052
296.68         38.2986
297.13        39.69077
297.58        41.27826
298.04        43.01354
298.49        44.82992
298.95         46.6417
299.40        48.39967
299.85         50.1505
300.31        51.89382
300.76        53.59595
301.21         55.2791
301.67        56.97137
302.12        58.72297
302.58           60.73
303.03         62.9727
303.48        65.42872
303.94        67.96769
304.39        70.32483
304.84         72.4434
305.30        74.40727
305.75        76.26627
306.20        78.21995
306.66        80.31619
307.11         82.4383
307.57        84.54144
308.02        86.47456
308.47        88.23451
308.93        89.89714
309.38        91.47161
309.83         93.0502
310.29        94.67913
310.74        96.27328
311.19        97.78968
311.65        99.13882
312.10        100.2848
312.55        101.2685
313.00        102.1501
313.46        103.0279
313.91        103.9127
314.36        104.7897
314.82         105.633
315.27        106.3868
315.72         107.053
316.18        107.6598
316.63        108.2309
317.08        108.8032
317.53        109.3814
317.99        109.9394
318.44        110.4692
318.89        110.9458
319.35        111.3568
319.80        111.7224
320.25        112.0257
320.70        112.2461
321.16        112.3798
321.61        112.4526
322.06        112.5153
322.51        112.6581
322.97        112.8854
323.42        113.2175
323.87        113.5715
324.32        113.8248
324.78        113.9279
325.23        113.9559
325.68        113.9733
326.13        114.1202
326.59        114.4036
327.04        114.8368
327.49        115.3086
327.94        115.6728
328.39        115.8857
328.85        115.9534
329.30        116.0211
329.75        116.1871
330.20        116.4894
330.66        116.8532
331.11        117.2798
331.56        117.6213
332.01        117.8491
332.46        118.0057
332.92        118.1113
333.37        118.3532
333.82        118.7212
334.27        119.1851
334.72         119.709
335.17        120.2347
335.63        120.7038
336.08        121.1934
336.53        121.6838
336.98         122.195
337.43         122.728
337.88        123.2671
338.34        123.7599
338.79        124.1952
339.24        124.5393
339.69         124.806
340.14        125.0443
340.59        125.3348
341.05        125.6982
341.50        126.1246
341.95        126.5647
342.40        126.9391
342.85        127.2282
343.30        127.4581
343.75        127.6683
344.20        127.9247
344.66        128.2498
345.11        128.5947
345.56        128.9318
346.01        129.2198
346.46        129.4522
346.91        129.6206
347.36        129.7121
347.81        129.7996
348.26        129.9106
348.72        129.6949
349.17        129.8096
349.62        129.8272
350.07        129.9433
350.52        130.1037
350.97        130.2521
351.42        130.2856
351.87        130.1598
352.32        129.9052
352.77        129.5318
353.22         129.052
353.67         128.493
354.13        127.8928
354.58         127.262
355.03        126.6776
355.48        126.1625
355.93        125.6891
356.38        125.2847
356.83        124.9798
357.28        124.7458
357.73        124.5608
358.18        124.2754
358.63         123.659
359.08        122.6884
359.53        121.4506
359.98        120.1592
360.43        119.1418
360.88        118.4688
361.33        118.0402
361.78        117.6962
362.23         117.176
362.68         116.408
363.13        115.4811
363.58        114.4732
364.03        113.5045
364.48        112.6113
364.93        111.7353
365.38        110.8709
365.83        110.0223
366.28         109.181
366.73        108.3608
367.18        107.5183
367.63        106.5745
368.08        105.5311
368.53        104.4287
368.98        103.3385
369.43        102.3572
369.88        101.5052
370.33          100.75
370.78        100.0594
371.23        99.39394
371.68        98.73538
372.13        98.08298
372.58        97.44067
373.03        96.80264
373.48        96.15524
373.93        95.49888
374.38        94.78611
374.83        93.95859
375.28        93.03799
375.72        92.04881
376.17        91.14178
376.62        90.44794
377.07        89.97302
377.52        89.65485
377.97        89.38275
378.42        88.98413
378.87         88.4201
379.32        87.75549
379.77        87.05344
380.22        86.39023
380.67           85.78
381.11        85.19603
381.56        84.62629
382.01        84.08536
382.46        83.58618
382.91        83.14088
383.36        82.73355
383.81        82.32787
384.26        81.90971
384.71        81.48125
385.15        81.03992
385.60        80.65185
386.05        80.29845
386.50        79.96453
386.95        79.62416
387.40        79.24761
387.85         78.8415
388.29        78.37806
388.74        77.97915
389.19        77.61118
389.64        77.26296
390.09        76.90868
390.54        76.55611
390.98        76.21111
391.43        75.92518
391.88        75.69283
392.33        75.46142
392.78        75.18665
393.23        74.87409
393.67        74.40425
394.12        73.96118
394.57        73.87535
395.02        74.03845
395.47        73.83896
395.91        73.31882
396.36        73.02976
396.81        73.00828
397.26        72.95915
397.71        72.79113
398.15        72.48302
398.60        72.11317
399.05        71.59328
399.50        71.09805
399.95        70.96709
400.39        71.17417
400.84        71.40919
401.29        71.52397
401.74        71.31591
402.18        70.83515
402.63        70.45536
403.08        70.22919
403.53        69.90836
403.97        69.52959
404.42        69.32775
404.87        69.26824
405.32        69.21404
405.76        69.13409
406.21        69.02019
406.66        68.89234
407.11        68.89999
407.55        68.99735
408.00         68.8914
408.45        68.58849
408.90        68.21074
409.34        67.86292
409.79        67.76377
410.24        67.87852
410.68        67.92963
411.13         67.8987
411.58        67.97218
412.03        68.11583
412.47        68.17097
412.92        68.08958
413.37        67.94267
413.81         67.7801
414.26         67.6937
414.71        67.74551
415.15        67.86456
415.60        67.98985
416.05        68.04533
416.49        68.00634
416.94        67.89455
417.39        67.74053
417.83        67.58015
418.28        67.43589
418.73        67.29752
419.17        67.17589
419.62        67.10055
420.07         67.0728
420.51        67.07904
420.96        67.12925
421.41        67.17073
421.85        67.16576
422.30        67.20248
422.74         67.2423
423.19        67.26601
423.64        67.28757
424.08        67.48327
424.53         67.7604
424.98        67.92537
425.42        67.96558
425.87        67.96891
426.31        67.98435
426.76        68.03403
427.21        68.13316
427.65        68.31294
428.10        68.49944
428.54        68.58647
428.99        68.59073
429.44        68.61386
429.88        68.62713
430.33        68.48016
430.77        68.23749
431.22        68.37284
431.66        68.75961
432.11        68.99172
432.56        69.03732
433.00        68.69575
433.45        67.96545
433.89        68.12451
434.34         69.1652
434.78        68.24697
435.23        67.99042
435.67         68.6614
436.12        69.23205
436.57        69.61389
437.01         69.3588
437.46          69.076
437.90        69.48543
438.35        69.51906
438.79        69.33916
439.24        69.27551
439.68        69.32836
440.13        69.45938
440.57        69.60968
441.02        69.72313
441.46        69.76875
441.91        69.75789
442.35        69.69205
442.80        69.94514
443.24        70.38422
443.69        70.54073
444.13        70.37379
444.58        70.16897
445.02        70.00137
445.47        70.06597
445.91        70.28561
446.36        70.33352
446.80        70.18355
447.24        70.00964
447.69        69.90213
448.13        70.05392
448.58        70.24924
449.02        70.42263
449.47        70.47686
449.91        70.52579
450.36        70.57463
450.80        70.44657
451.25         70.2316
451.69        70.21188
452.13        70.35806
452.58        70.30343
453.02        70.05183
453.47        69.92422
453.91        69.91488
454.36        69.85266
454.80        69.72827
455.24        69.62261
455.69         69.5406
456.13        69.45441
456.58        69.38947
457.02        69.33558
457.46        68.87698
457.91        69.15664
458.35        68.82118
458.79        68.80692
459.24        68.74983
459.68        68.76095
460.13        68.86324
460.57        68.75206
461.01        68.40527
461.46        68.75364
461.90        68.33282
462.34        68.20165
462.79        67.98099
463.23        68.14381
463.68        68.69774
464.12        68.49302
464.56        67.73845
465.01        67.77688
465.45        68.38982
465.89          68.312
466.34        67.67252
466.78        67.52153
467.22        67.84452
467.67        67.86953
468.11        67.43123
468.55        67.25145
468.99        67.28542
469.44        67.20629
469.88        67.01109
470.32        66.83849
470.77        66.72269
471.21        66.65957
471.65         66.6513
472.10        66.69749
472.54        66.74077
472.98        66.71239
473.42        66.60151
473.87        66.45529
474.31        66.29064
474.75        66.20285
475.20        66.18835
475.64         66.2693
476.08        66.42394
476.52        66.41901
476.97        66.17075
477.41         66.4668
477.85        66.43299
478.29        65.93903
478.74        65.86448
479.18        66.08441
479.62        66.05471
480.06        66.14434
480.50        66.10456
480.95        66.15016
481.39        66.23479
481.83        66.07944
482.27        66.51369
482.72        66.11679
483.16        66.27802
483.60        66.52531
484.04        66.39102
484.48        66.21599
484.93        66.35651
485.37        66.22389
485.81        67.06083
486.25        66.21385
486.69        67.97269
487.14        68.01437
487.58        66.65543
488.02        66.90225
488.46        66.04144
488.90        66.29224
489.34        66.00898
489.79        65.80093
490.23        66.38429
490.67        66.40805
491.11        66.20313
491.55        65.94159
491.99        65.73104
492.43        65.57429
492.88        65.49579
493.32        65.54913
493.76        65.64413
494.20        65.71812
494.64        65.76768
495.08        65.49699
495.52        65.45399
495.96        65.55888
496.41        65.86528
496.85        65.96588
497.29        65.79713
497.73         65.7901
498.17        65.62448
498.61         65.6436
499.05        65.68727
499.49        65.49695
499.93        65.17636
500.37        65.07807
500.82        65.19691
501.26        65.47935
501.70        65.79501
502.14        65.46067
502.58        65.10543
503.02        64.90383
503.46        64.99903
503.90        65.08326
504.34        65.09242
504.78        65.13118
505.22        65.20384
505.66        65.18924
506.10        65.08487
506.54        65.17391
506.98        65.49182
507.42        64.89986
507.86        65.31255
508.30        65.06618
508.74        65.11359
509.18        65.03551
509.62        64.97701
510.06         65.0008
510.50        65.07361
510.94         65.1136
511.38        65.08703
511.82        65.02632
512.26        64.92528
512.70        64.75293
513.14        64.55335
513.58        64.41893
514.02        64.37099
514.46        64.39058
514.90        64.42822
515.34        64.43289
515.78        64.39278
516.22        64.30959
516.66        64.07186
517.10         64.3091
517.54        64.21846
517.98        64.40341
518.42        64.57275
518.86         64.6688
519.30        64.66938
519.74        64.56121
520.18        64.41919
520.62         64.4413
521.06        64.60123
521.50        64.63637
521.93        64.53587
522.37        64.48938
522.81        64.49957
523.25        64.45231
523.69        64.35609
524.13        64.28117
524.57        64.23622
525.01        64.20216
525.45        64.18398
525.89        64.19012
526.32        64.21592
526.76        64.26402
527.20          64.318
527.64        64.35275
528.08        64.36078
528.52        64.35047
528.96        64.32943
529.40         64.3032
529.83        64.27416
530.27        64.27066
530.71        64.27773
531.15        64.27017
531.59        64.24442
532.03        64.21113
532.46        64.17416
532.90        64.15266
533.34        64.14281
533.78         64.1451
534.22        64.14172
534.66        64.09322
535.09        63.98639
535.53        63.90429
535.97        63.77883
536.41        63.72097
536.85        63.71623
537.28        63.75382
537.72        63.81276
538.16        63.86209
538.60        63.88784
539.04        63.89465
539.47         63.8765
539.91        63.87746
540.35        63.88788
540.79        63.90878
541.22        63.92037
541.66        63.90762
542.10        63.86485
542.54        63.79438
542.97        63.73415
543.41        63.77373
543.85        63.91701
544.29        64.15067
544.72         64.3735
545.16        64.47929
545.60        64.43024
546.04        64.20116
546.47         63.9323
546.91        63.94717
547.35        64.21282
547.79        64.48398
548.22        64.62008
548.66         64.4671
549.10        64.12587
549.53        64.02534
549.97        64.18137
550.41        64.20427
550.84        64.09937
551.28        64.10575
551.72        64.19463
552.15        64.27605
552.59        64.36965
553.03        64.12253
553.46        64.22425
553.90        64.15863
554.34        64.12795
554.77        64.08981
555.21        64.07475
555.65        64.13911
556.08        64.25086
556.52        64.33282
556.96        64.36452
557.39        64.43082
557.83        64.51309
558.27        64.45961
558.70        64.29269
559.14        64.15363
559.57        64.06872
560.01        64.08511
560.45        64.15601
560.88        64.15405
561.32        64.12722
561.75        64.08791
562.19        64.09288
562.63        64.23266
563.06        64.42365
563.50        64.34743
563.93        64.05041
564.37         63.9282
564.80        63.99516
565.24        64.14862
565.68        64.32455
566.11        64.41518
566.55        64.41866
566.98        64.43093
567.42        64.47751
567.85        64.39861
568.29        64.28607
568.72        64.34196
569.16        64.60095
569.60        64.69411
570.03         64.9251
570.47        65.10475
570.90        65.18207
571.34        65.43373
571.77        65.38333
572.21        64.99355
572.64        65.04939
573.08        65.08363
573.51        65.15506
573.95        65.66761
574.38        65.38104
574.82        66.41207
575.25        65.85658
575.69        65.64954
576.12        65.51009
576.56         65.4193
576.99        65.36542
577.42        65.75179
577.86        65.76575
578.29         66.1423
578.73        66.62117
579.16        66.12008
579.60        65.37461
580.03        65.77061
580.47         65.6993
580.90        65.58141
581.33        65.90136
581.77        66.06014
582.20        66.42625
582.64        66.63918
583.07        66.25367
583.51        65.95093
583.94        65.42879
584.37        65.29489
584.81        65.04599
585.24        65.16566
585.68        65.79655
586.11        65.67148
586.54        65.78721
586.98        65.37198
587.41        65.42949
587.85        65.54967
588.28        65.86613
588.71        65.64455
589.15         65.4568
589.58        65.25515
590.01        64.77159
590.45        64.79241
590.88        65.35709
591.31         65.0937
591.75        64.84778
592.18        64.65365
592.61        64.79704
593.05         65.3798
593.48        65.53349
593.91        65.89795
594.35        65.51408
594.78        65.45692
595.21        65.27141
595.65        65.31129
596.08        65.44641
596.51        65.44922
596.94         65.2485
597.38        65.16409
597.81        65.21848
598.24        65.23167
598.68        65.15897
599.11        65.19245
599.54        65.52139
599.97        65.62677
600.41        65.34686
600.84        65.11687
601.27         65.4244
601.70        65.46931
602.14        65.30827
602.57        65.17135
603.00        65.03906
603.43        65.45456
603.87        65.46098
604.30        65.48694
604.73        65.75301
605.16        65.26424
605.60        65.43869
606.03        65.47745
606.46        65.73718
606.89        65.58042
607.32        64.92519
607.76        65.86068
608.19        65.36549
608.62        65.52142
609.05        66.13326
609.48         65.6778
609.92        65.50216
610.35        65.44962
610.78        65.86329
611.21        65.26599
611.64        65.62907
612.07        65.46723
612.50        65.33099
612.94        65.69123
613.37        65.15855
613.80        65.60403
614.23        65.34454
614.66         65.2712
615.09        65.15197
615.52        65.12225
615.96        65.20048
616.39        65.21651
616.82        65.18086
617.25        65.09058
617.68        65.09934
618.11        65.07513
618.54        65.21637
618.97        65.15418
619.40        64.93152
619.84        64.93356
620.27        64.71866
620.70        64.75471
621.13        64.87899
621.56        64.84628
621.99        64.67685
622.42        64.99307
622.85        65.27416
623.28        65.33348
623.71        65.16811
624.14        65.17421
624.57        65.19525
625.00        65.28813
625.43        64.87451
625.86         64.8555
626.29         65.1053
626.72        64.67792
627.15        64.82802
627.58        64.73289
628.01         64.8065
628.44        64.59562
628.87        64.60336
629.30        64.85462
629.73        64.65711
630.16        64.79595
630.59        64.51895
631.02        64.83761
631.45        64.64746
631.88        64.70241
632.31          64.742
632.74        64.46484
633.17        64.54939
633.60         64.4509
634.03        64.38123
634.46        64.39308
634.89         64.3773
635.32        64.36764
635.75        64.33578
636.18        64.36806
636.61        64.44691
637.04        64.48035
637.47        64.46138
637.89         64.4429
638.32        64.41885
638.75        64.38742
639.18        64.35352
639.61        64.31973
640.04        64.29366
640.47          64.283
640.90        64.28215
641.33        64.30952
641.76        64.35876
642.18        64.35554
642.61        64.26588
643.04        64.38723
643.47        64.24057
643.90        64.24684
644.33        64.26418
644.76        64.28145
645.18        64.29155
645.61        64.31376
646.04        64.34091
646.47        64.31976
646.90        64.25616
647.33        64.22495
647.75        64.23087
648.18        64.20933
648.61         64.1967
649.04        64.32117
649.47        64.50478
649.89        64.76691
650.32        64.43033
650.75        64.51828
651.18        64.75797
651.61        64.63064
652.03        64.23917
652.46          64.068
652.89        64.17844
653.32        64.46709
653.74        64.88474
654.17        64.59531
654.60        64.55238
655.03         64.2998
655.46        64.51672
655.88        64.89622
656.31        66.76315
656.74        71.31329
657.16        70.21134
657.59        67.95422
658.02        65.19038
658.45        65.02804
658.87         64.8424
659.30         64.9983
659.73        65.05006
660.15         64.2325
660.58        64.88355
661.01        65.02792
661.44        65.19968
661.86        65.09464
662.29        64.75355
662.72        64.46715
663.14         64.3295
663.57        64.40122
664.00        64.61906
664.42        64.73798
664.85        64.73555
665.27        64.64094
665.70        64.68723
666.13        64.68162
666.55        64.69916
666.98        64.73145
667.41        64.75795
667.83        64.75777
668.26        64.73496
668.69        64.63908
669.11        64.49918
669.54        64.56625
669.96        64.89546
670.39        64.61647
670.82        65.21373
671.24        65.14459
671.67         64.9109
672.09        64.91116
672.52         65.1447
672.94        65.11773
673.37        64.86714
673.80        64.83231
674.22         65.0095
674.65        65.05716
675.07        64.98067
675.50        64.93182
675.92        64.93866
676.35        64.96422
676.77          65.011
677.20        65.09246
677.62        65.20821
678.05        65.28727
678.47        65.30708
678.90        65.52084
679.32        65.47915
679.75        65.52902
680.17         65.5382
680.60        65.53278
681.02        65.52005
681.45        65.49045
681.87        65.47569
682.30        65.50193
682.72        65.56708
683.15        65.63972
683.57        65.65808
684.00        65.60166
684.42        65.22845
684.85        65.11912
685.27        65.20104
685.70        65.33037
686.12        65.43951
686.54        65.52586
686.97        65.55867
687.39        65.56107
687.82         65.5638
688.24        65.58676
688.66        65.61779
689.09        65.91496
689.51        65.92156
689.94        65.98973
690.36        65.94982
690.78        65.75153
691.21        65.48882
691.63        65.42404
692.06        65.57716
692.48        65.73036
692.90        65.82738
693.33        65.91086
693.75        65.96808
694.17        65.89364
694.60        65.71787
695.02         65.7752
695.44          65.782
695.87        65.76073
696.29        65.67466
696.71        65.64158
697.14         65.6841
697.56        65.94244
697.98        66.31784
698.41        66.25064
698.83        66.23989
699.25        65.98537
699.68        65.73334
700.10        65.59355
700.52        65.60869
700.94        65.73873
701.37        65.90291
701.79        66.02485
702.21        66.05092
702.64        66.02035
703.06        65.95778
703.48        65.90804
703.90        65.89138
704.33        65.88596
704.75        65.89489
705.17        65.90678
705.59        65.91931
706.01         65.9382
706.44          65.972
706.86        66.04458
707.28        66.14039
707.70         66.2633
708.12        66.39379
708.55         66.4561
708.97        66.45186
709.39        66.48717
709.81        66.54948
710.23        66.54282
710.66        66.47079
711.08         66.4063
711.50        66.36279
711.92        66.35593
712.34        66.39689
712.76         66.4661
713.19        66.54591
713.61        66.68757
714.03        66.86173
714.45        66.93816
714.87        67.12362
715.29        67.13369
715.71        67.02522
716.13        66.99094
716.56        66.75472
716.98        66.70176
717.40        66.74677
717.82         66.8713
718.24        67.02909
718.66        67.14625
719.08         67.2002
719.50        67.21041
719.92        67.19205
720.34        67.16705
720.76        67.14681
721.19        67.11525
721.61        67.09695
722.03        67.10368
722.45         67.1401
722.87        67.20684
723.29        67.29504
723.71        67.38595
724.13        67.47144
724.55         67.5491
724.97        67.62241
725.39        67.70042
725.81        67.78037
726.23         67.8534
726.65        67.90261
727.07        67.90786
727.49        67.87016
727.91        67.79243
728.33        67.69772
728.75        67.65306
729.17        67.65971
729.59        67.64204
730.01        67.62059
730.43         67.6804
730.85        67.81879
731.27        67.98521
731.69        68.14669
732.10        68.19112
732.52        68.32483
732.94        68.17937
733.36        67.90318
733.78        67.80342
734.20        67.93082
734.62        68.02139
735.04        68.22701
735.46        68.34602
735.88         68.4103
736.30        68.42968
736.72        68.41267
737.13        68.36626
737.55        68.25648
737.97        68.16194
738.39        68.10266
738.81        67.97837
739.23        67.85405
739.65         68.0473
740.06        68.41731
740.48        68.59512
740.90        68.51637
741.32        68.37428
741.74        68.24483
742.16         68.1786
742.57        68.22067
742.99        68.33781
743.41        68.46786
743.83        68.49072
744.25        68.38367
744.67         68.1805
745.08        67.99319
745.50        67.96165
745.92        68.13148
746.34        68.44908
746.75        68.79049
747.17        68.94619
747.59        68.87104
748.01        68.62561
748.42        68.33849
748.84        68.19276
749.26        68.24117
749.68        68.46021
750.09        68.74086
750.51        68.80806
750.93        68.65888
751.35        68.59769
751.76        68.65775
752.18        68.51186
752.60        68.47418
753.01        68.41302
753.43        68.39468
753.85         68.3745
754.27        68.35444
754.68        68.35018
755.10        68.36534
755.52        68.38651
755.93        68.41003
756.35        68.43873
756.77        68.49216
757.18        68.57442
757.60        68.66853
758.02        68.83779
758.43        69.06219
758.85        68.98008
759.26        68.95941
759.68        69.21667
760.10        68.96344
760.51          68.813
760.93        69.05235
761.34        68.75726
761.76        68.93675
762.18        69.07299
762.59        69.29913
763.01        69.41035
763.42        68.56085
763.84        68.63246
764.26         69.0481
764.67        69.42035
765.09        69.58448
765.50        69.86813
765.92        70.19144
766.33        70.07999
766.75        69.59586
767.16        69.34183
767.58        69.32311
768.00        69.37592
768.41         69.4784
768.83        69.29841
769.24        68.90847
769.66        69.33499
770.07         69.6571
770.49        69.72961
770.90        69.35149
771.32        69.17518
771.73        69.26346
772.15        69.28397
772.56        69.26617
772.97         69.3928
773.39        69.58958
773.80          69.712
774.22        69.69861
774.63        69.61813
775.05        69.50723
775.46        69.47834
775.88        69.53463
776.29        69.66392
776.70        69.79237
777.12         69.8183
777.53        69.73972
777.95        69.58666
778.36        69.42595
778.77        69.35429
779.19        69.40245
779.60        69.54572
780.02        69.74337
780.43        69.97578
780.84        70.22216
781.26        70.38856
781.67        70.50606
782.09        70.73947
782.50        70.98438
782.91        70.86621
783.33        70.43541
783.74        70.21421
784.15        70.22498
784.57        70.25983
784.98        70.28719
785.39        70.25404
785.81        70.18787
786.22        70.26971
786.63         70.4772
787.04        70.60629
787.46        70.64658
787.87        70.68013
788.28        70.72383
788.70        70.70763
789.11        70.61452
789.52        70.59646
789.93        70.64622
790.35        70.48678
790.76         70.2589
791.17        70.52602
791.58        71.19483
792.00        71.60062
792.41        71.66433
792.82        71.65935
793.23        71.67467
793.65        71.59656
794.06        71.53268
794.47        71.88668
794.88        72.53942
795.29        72.40871
795.71        72.55766
796.12        72.32179
796.53        72.09229
796.94         71.9677
797.35        71.95446
797.76        71.83246
798.18        71.60419
798.59        71.48923
799.00          71.492
799.41        71.50199
799.82        71.49828
800.23        71.50099
800.64        71.50294
801.06        71.47321
801.47         71.4639
801.88        71.48698
802.29        71.54648
802.70        71.62833
803.11        71.72502
803.52        71.82362
803.93        71.92371
804.34        72.03329
804.75        72.13577
805.17        72.23348
805.58        72.35947
805.99         72.3718
806.40        72.32189
806.81        72.59388
807.22        73.04843
807.63        72.99597
808.04        72.52373
808.45        72.37878
808.86        72.61855
809.27        72.81992
809.68        72.90759
810.09        72.94867
810.50        72.92072
810.91        72.81494
811.32         72.6729
811.73        72.56317
812.14        72.50822
812.55        72.48878
812.96        72.50671
813.37        72.55868
813.78        72.63377
814.19        72.73788
814.60        72.82463
815.01        72.81695
815.42        72.70689
815.83        72.51591
816.24        72.31606
816.65        72.24628
817.05        72.35325
817.46        72.56281
817.87        72.83367
818.28        73.05803
818.69        73.20368
819.10        73.29958
819.51        73.35734
819.92        73.39846
820.33         73.4299
820.74        73.42931
821.14        73.40961
821.55        73.41629
821.96        73.44804
822.37        73.51352
822.78        73.56804
823.19        73.52959
823.60        73.38177
824.00         73.1545
824.41        72.91185
824.82        72.83917
825.23        72.97222
825.64        73.27256
826.04        73.60258
826.45        73.70065
826.86        73.52697
827.27        73.15003
827.68        72.74991
828.08        72.67112
828.49        72.92599
828.90        73.45026
829.31        74.05946
829.72        74.38631
830.12        74.35179
830.53         74.3261
830.94        73.87328
831.35         73.5879
831.75        73.40101
832.16         73.2468
832.57         73.1844
832.97        73.30199
833.38         73.5831
833.79         73.9938
834.20        74.42165
834.60        74.68949
835.01        74.75579
835.42        74.66595
835.82         74.4838
836.23        74.27895
836.64        74.11427
837.04        73.98215
837.45        73.88925
837.86        73.90359
838.26        74.04167
838.67        74.28563
839.08        74.56928
839.48        74.76231
839.89         74.8222
840.29        74.77308
840.70        74.70159
841.11        74.76539
841.51        75.00952
841.92        75.34111
842.33         75.6545
842.73        75.77277
843.14        75.60944
843.54         75.2732
843.95        74.86993
844.35        74.59452
844.76        74.50401
845.17        74.55483
845.57        74.72833
845.98        74.95094
846.38         75.2135
846.79        75.50021
847.19        75.80347
847.60        76.02615
848.00           76.18
848.41        76.23002
848.81        76.23845
849.22        76.24355
849.62        76.29988
850.03        76.35188
850.43         76.4069
850.84        76.36277
851.24         76.2588
851.65        76.06362
852.05        75.87574
852.46        75.74794
852.86        75.71278
853.27        75.79401
853.67           75.87
854.07         75.9254
854.48        75.91464
854.88        75.87187
855.29        75.80272
855.69         75.9044
856.10        76.10452
856.50        76.44247
856.90        76.73573
857.31         76.7374
857.71         76.4594
858.12        75.91808
858.52        75.29957
858.92         74.8402
859.33        74.60907
859.73        74.59905
860.13        74.71592
860.54        74.79256
860.94        74.84019
861.34        74.87193
861.75        74.88168
862.15        74.94269
862.55        75.01949
862.96        75.04271
863.36         75.0383
863.76        75.00535
864.17        74.93829
864.57        74.89964
864.97        74.79072
865.38        74.42724
865.78        73.84433
866.18         73.0723
866.58        72.41483
866.99        72.38783
867.39        73.11006
867.79        74.34606
868.19        75.61924
868.60        76.21507
869.00        76.05854
869.40        75.45376
869.80        74.63131
870.21          73.925
870.61          73.596
871.01        73.57849
871.41        73.70605
871.81        73.65807
872.22        73.37157
872.62         72.9852
873.02        72.62984
873.42        72.64503
873.82        72.94227
874.22        73.02203
874.63        72.99662
875.03         73.1416
875.43        73.44408
875.83         74.4593
876.23        74.15492
876.63        73.61469
877.03        72.63811
877.44        70.77515
877.84        152.6788
878.24        71.02972
878.64        71.64065
879.04        72.94687
879.44        73.52282
879.84        71.12955
880.24        74.85985
880.64        74.88879
881.04        72.91885
881.44        71.39996
881.84        70.81332
882.24        71.24284
882.65         72.1408
883.05         72.3564
883.45        71.64648
883.85        70.69751
884.25        69.96946
884.65        69.87012
885.05        70.49635
885.45        71.61846
885.85        72.76561
886.25        73.28161
886.65        73.03735
887.05        72.26038
887.45        71.26465
887.85        70.58661
888.25        70.40791
888.65        70.54543
889.04        70.91029
889.44        71.34901
889.84        71.75828
890.24        72.20166
890.64        72.53192
891.04        72.51533
891.44        72.14587
891.84        71.48044
892.24        70.77711
892.64        70.50549
893.04        70.77711
893.44        71.44143
893.83         72.2507
894.23        72.79231
894.63        72.96695
895.03        72.91025
895.43        72.72416
895.83        72.57488
896.23        72.53676
896.63        72.53849
897.02        72.59238
897.42        72.80507
897.82        73.13264
898.22        73.54204
898.62         73.9178
899.01        74.06808
899.41        73.92582
899.81         73.5771
900.21        73.08414
900.61        72.55997
901.00        72.06292
901.40        71.63816
901.80        71.38394
902.20        71.33887
902.59        71.49212
902.99        72.03046
903.39        72.88247
903.79        72.65411
904.18        73.27083
904.58        73.18376
904.98        73.02098
905.38        72.80083
905.77        72.55695
906.17        72.30611
906.57        72.08514
906.96        72.05179
907.36        72.22349
907.76        72.57274
908.15        73.03698
908.55        73.34657
908.95        73.47634
909.34        73.43719
909.74        73.32203
910.14        73.24992
910.53        73.25964
910.93        73.31327
911.33        73.32654
911.72        73.16523
912.12        72.82394
912.52        72.36031
912.91        71.89925
913.31        71.71379
913.70        71.83232
914.10        72.17426
914.49          72.599
914.89        72.77733
915.29        72.65253
915.68        72.29832
916.08        71.89895
916.47        71.69845
916.87        71.79461
917.26        72.11279
917.66        72.50818
918.05         72.7709
918.45        72.82042
918.84         72.7229
919.24        72.61407
919.64        72.77266
920.03        73.24615
920.42        73.91702
920.82        74.52522
921.21        74.68384
921.61        74.33862
922.00         73.6777
922.40         73.0335
922.79        72.83279
923.19        72.90166
923.58        73.75687
923.98        75.42734
924.37        75.79916
924.77        73.81628
925.16        79.44891
925.55        74.84236
925.95        75.03319
926.34        74.96565
926.74        74.45987
927.13        73.48493
927.52        72.87948
927.92        72.99336
928.31        73.35504
928.70        73.84818
929.10         74.2213
929.49        74.43179
929.89        74.58135
930.28        74.60805
930.67        74.30017
931.07        73.68225
931.46         72.7271
931.85        71.85244
932.24        72.11252
932.64        73.60512
933.03        75.53046
933.42        76.99269
933.82        78.99353
934.21        77.71503
934.60        76.20405
934.99        74.47183
935.39        73.73093
935.78        74.17467
936.17        75.92274
936.56        80.93178
936.96        76.09125
937.35        78.87975
937.74        76.45549
938.13        74.60759
938.53          73.089
938.92         72.4957
939.31        73.19877
939.70        74.27782
940.09        74.81522
940.49        74.59219
940.88        73.94819
941.27        73.24442
941.66        73.13069
942.05        73.78962
942.44        74.91445
942.84        76.04366
943.23        76.62779
943.62        76.53391
944.01        75.92995
944.40        75.16863
944.79        74.85011
945.18        75.13157
945.57        75.81451
945.97        76.50714
946.36         76.7077
946.75        76.25184
947.14        75.33678
947.53        74.28693
947.92         73.6497
948.31        73.60611
948.70        73.98546
949.09         74.5594
949.48        74.98092
949.87        75.14343
950.26        75.15505
950.65        75.11216
951.04        75.16193
951.43        75.34218
951.82        75.56863
952.21        75.76553
952.60        75.83668
952.99        75.74622
953.38        75.53537
953.77        75.25709
954.16        74.96408
954.55          74.686
954.94        74.44455
955.33        74.21962
955.72        73.98035
956.11        73.74463
956.50        73.52172
956.89        73.45133
957.28        73.74166
957.66        74.42031
958.05        75.32079
958.44        76.17057
958.83        76.56521
959.22        76.40874
959.61        75.77543
960.00        74.91088
960.39         74.3122
960.78        74.17776
961.16        74.44272
961.55        74.77931
961.94         74.7905
962.33        74.40012
962.72         73.7041
963.11        73.04976
963.49         73.1164
963.88        74.02887
964.27        75.50176
964.66        76.92978
965.04        77.52264
965.43        77.09043
965.82        75.90006
966.21        74.41589
966.60        73.47469
966.98        73.36176
967.37        73.84158
967.76        74.57014
968.15        74.96056
968.53        74.86359
968.92         74.4613
969.31        73.99361
969.69        73.81857
970.08        74.00278
970.47        74.38486
970.86        74.84818
971.24        75.23241
971.63        75.43194
972.02        75.51482
972.40        75.44777
972.79        75.08466
973.17        74.48455
973.56        73.69048
973.95         72.9054
974.33        72.49863
974.72        72.57233
975.11        73.03006
975.49         73.7936
975.88        74.62479
976.26          75.481
976.65        76.32024
977.04        77.04137
977.42        77.48814
977.81        77.59594
978.19        77.33908
978.58        77.05483
978.96        77.29752
979.35        78.11578
979.74        79.27854
980.12        80.33138
980.51         80.5374
980.89        79.90613
981.28        78.53461
981.66        76.80776
982.05        75.69911
982.43        75.62666
982.82        76.37642
983.20        77.45805
983.59        78.04348
983.97        77.96628
984.35        77.42828
984.74         76.7008
985.12        76.36156
985.51        76.52808
985.89        77.02977
986.28        77.57705
986.66        77.82864
987.04         77.7445
987.43        77.37713
987.81        76.73923
988.20        76.92511
988.58        78.17908
988.96        78.38521
989.35          76.924
989.73        81.36901
990.12        78.80757
990.50        79.14078
990.88        78.95776
991.27        78.78184
991.65         78.5918
992.03        78.44731
992.42        78.42263
992.80         78.2885
993.18        78.00264
993.56        77.68518
993.95        77.31329
994.33         76.8026
994.71        76.20177
995.10        75.55502
995.48        75.10901
995.86        75.23854
996.24        75.99452
996.63        77.15155
997.01        78.51928
997.39        79.60152
997.77        80.21542
998.15        80.43398
998.54        80.39187
998.92        80.23077
999.30        80.05988
999.68        79.86842
1000.06        79.57017
1000.45        78.99357
1000.83        78.29669
1001.21        77.60469
1001.59        77.26012
1001.97        77.70033
1002.35        78.85383
1002.73        80.38059
1003.12        81.91016
1003.50        83.04092
1003.88        83.68679
1004.26        84.01514
1004.64        83.92176
1005.02         83.2345
1005.40        81.98502
1005.78        80.19886
1006.16        78.46969
1006.54        77.75537
1006.92        78.27278
1007.30        79.85185
1007.69        81.64983
1008.07        82.47624
1008.45         82.0508
1008.83        80.63515
1009.21        79.02723
1009.59         78.8951
1009.97        80.53548
1010.35        83.03336
1010.73        85.36395
1011.11        86.62137
1011.49        86.78571
1011.86        86.07044
1012.24        84.43243
1012.62        84.28557
1013.00        84.03239
1013.38        83.28104
1013.76        81.08438
1014.14        84.49199
1014.52        89.76305
1014.90        85.50747
1015.28        87.81425
1015.66        89.25291
1016.04        86.59111
1016.41        85.23769
1016.79        82.82774
1017.17        81.40385
1017.55        80.80802
1017.93        80.98521
1018.31        82.00169
1018.69        83.39034
1019.06        84.91679
1019.44        86.56099
1019.82        87.88213
1020.20        88.30158
1020.58        87.73937
1020.95        86.06205
1021.33         83.7104
1021.71        82.33132
1022.09        82.82684
1022.46        84.54333
1022.84        86.36513
1023.22         87.3936
1023.60        87.64793
1023.97        87.47178
1024.35        87.13923
1024.73        87.15282
