SpectraSmart Spectrum 2.9.0.0
--------- Device Information -----------
Spectrum Name :  反射率_0
Saving Time :  2024/04/21 00:55:50
Spectro-Module Model Name : SE2030-DUVN
Spectro-Module Serial Number : OS361AC55029948
Wavelength Start : 200
Wavelength End : 1025
Wavelength Unit : Wavelength(nm)
Spectrum Unit : Reflectance(%)
-----------Spectrum Setting ------------
Integration Time : 20ms
Average : 10
Boxcar : 0
Background removal :  enabled
linearity correction :  enabled
SC :  disabled
Intensity correction :  disabled
DWT denoise :  enabled
savitzky-golay :  disabled
FFT :  disabled
Running average :  disabled
Kalman :  disabled
High pass :  disabled
---------------BEGIN--------------------
Wavelength(nm)             Reflectance(%)
200.29               0
200.75       -120.2312
201.21       -26.16854
201.67        26.98266
202.13         49.7755
202.58        55.72586
203.04        52.84261
203.50         41.8144
203.96         25.0785
204.42        6.772114
204.88       -13.31888
205.34       -31.82528
205.80       -46.40432
206.26       -57.14242
206.72       -58.76827
207.18       -54.22538
207.64       -55.50908
208.10        -64.9012
208.55       -80.49314
209.01       -79.67585
209.47       -41.54347
209.93        2.237327
210.39        34.28382
210.85        53.51505
211.31        61.44551
211.77        61.35238
212.23        54.27531
212.69        36.44348
213.14        2.871014
213.60        -57.5044
214.06       -227.6672
214.52       -606.7997
214.98       -262.2067
215.44       -59.99712
215.90         7.70914
216.36        29.02802
216.81        27.76416
217.27        4.736557
217.73       -107.2452
218.19        1232.811
218.65        518.3007
219.11       -1136.815
219.57       -50.68533
220.02         18.4251
220.48        31.34135
220.94        26.27559
221.40        2.947494
221.86       -54.76618
222.32        -94.3619
222.77       -44.45308
223.23     0.008377389
223.69        22.57878
224.15        30.20758
224.61        30.05504
225.06        26.46984
225.52        20.70761
225.98        14.13174
226.44        7.831507
226.90       0.2928778
227.36        -4.51904
227.81        0.357915
228.27        11.04736
228.73        22.26421
229.19        29.55605
229.65        30.58247
230.10        26.34773
230.56        18.45119
231.02        8.453005
231.48        2.300213
231.93        3.967193
232.39        10.93893
232.85        18.43476
233.31        22.51013
233.77        23.44137
234.22        23.03137
234.68        21.75419
235.14        20.41023
235.60        19.73685
236.05        18.60554
236.51         17.3096
236.97         22.6157
237.43        34.66423
237.88        42.98357
238.34        43.70857
238.80         64.6555
239.26        55.21781
239.71        51.93638
240.17        41.74334
240.63        31.64618
241.08        27.03643
241.54        31.76159
242.00        44.53609
242.46        52.11323
242.91        50.79748
243.37        41.09219
243.83        26.20049
244.28        19.74668
244.74        29.00059
245.20        46.13393
245.66        61.31354
246.11        65.30006
246.57        57.41105
247.03        40.61926
247.48        18.81156
247.94       -1.581582
248.40       -20.34837
248.85       -49.19748
249.31       -112.4398
249.77       -126.9628
250.22       -20.57298
250.68        14.00564
251.14        25.90591
251.59        35.01164
252.05        46.57739
252.51        63.32568
252.96        82.93486
253.42         91.4692
253.88        80.15523
254.33        58.46249
254.79        42.94029
255.25        42.87636
255.70        51.43147
256.16        61.01547
256.62        68.01257
257.07        70.64008
257.53        70.57188
257.99        69.25529
258.44        67.16583
258.90        65.39135
259.35        63.54417
259.81        61.84245
260.27        60.27323
260.72         58.9818
261.18        58.24604
261.63        57.66568
262.09        57.12488
262.55         56.0437
263.00        54.40245
263.46        52.62842
263.91        50.94292
264.37        50.08057
264.83        49.95057
265.28        50.19662
265.74        50.52979
266.19        50.36729
266.65        49.69049
267.11        48.62739
267.56        47.33839
268.02        46.16241
268.47        45.14262
268.93        44.22573
269.38         43.2952
269.84        42.24743
270.30         41.0594
270.75        39.80736
271.21        38.63549
271.66        37.67157
272.12         36.9726
272.57        36.45891
273.03        36.04355
273.48        35.55362
273.94        34.96906
274.39        34.29326
274.85        33.62242
275.31        33.02792
275.76         32.5167
276.22        32.09663
276.67        31.68461
277.13        31.25462
277.58        30.75892
278.04         30.2485
278.49        29.73771
278.95        29.33316
279.40        28.99351
279.86        28.72052
280.31        28.40077
280.77        27.96306
281.22        27.37266
281.68        26.73898
282.13        26.10629
282.59        25.61951
283.04        25.27744
283.50        25.05094
283.95        24.92749
284.41        24.91863
284.86        24.99477
285.32        25.17636
285.77        25.34387
286.22        25.34403
286.68        25.18202
287.13        24.85646
287.59        24.58894
288.04        24.61145
288.50        24.92915
288.95        25.56626
289.41        26.31734
289.86         26.4021
290.32        25.70217
290.77        26.20966
291.22        24.99409
291.68        24.95378
292.13        25.24128
292.59         25.8458
293.04        26.63741
293.50        27.48223
293.95        28.34536
294.40         29.2577
294.86        30.24713
295.31        31.33862
295.77        32.53878
296.22        33.80531
296.68        35.13777
297.13        36.54012
297.58        38.02093
298.04        39.57832
298.49        41.19984
298.95        42.88276
299.40        44.59799
299.85        46.35125
300.31        48.11006
300.76         49.8004
301.21        51.42997
301.67        53.04911
302.12        54.70733
302.58        56.58776
303.03        58.68519
303.48        60.98664
303.94        63.40368
304.39        65.74138
304.84        67.94895
305.30        70.07817
305.75        72.13816
306.20        74.26043
306.66        76.46946
307.11        78.67104
307.57        80.82339
308.02         82.7863
308.47        84.57127
308.93         86.2641
309.38         87.9016
309.83        89.60925
310.29         91.4523
310.74        93.32244
311.19        95.17035
311.65        96.89012
312.10        98.42635
312.55        99.81007
313.00        101.0596
313.46        102.2113
313.91        103.2646
314.36        104.2219
314.82        105.1018
315.27        105.9232
315.72        106.7129
316.18        107.4844
316.63        108.2451
317.08        109.0005
317.53        109.7422
317.99        110.4536
318.44        111.1308
318.89         111.752
319.35        112.3065
319.80        112.8125
320.25        113.2423
320.70        113.5612
321.16        113.7656
321.61        113.8859
322.06        114.0016
322.51        114.2492
322.97        114.6389
323.42        115.1747
323.87        115.7315
324.32        116.1159
324.78        116.2583
325.23        116.2564
325.68        116.2079
326.13        116.3091
326.59        116.5903
327.04        117.0579
327.49        117.5937
327.94        118.0376
328.39          118.34
328.85        118.5093
329.30        118.7002
329.75        119.0215
330.20         119.505
330.66        120.0603
331.11        120.6558
331.56         121.089
332.01        121.3215
332.46        121.4179
332.92        121.4338
333.37        121.6226
333.82        122.0003
334.27        122.5249
334.72        123.1632
335.17        123.8565
335.63        124.5332
336.08        125.2655
336.53        125.9936
336.98         126.675
337.43        127.2865
337.88        127.8143
338.34        128.2321
338.79         128.581
339.24        128.8551
339.69        129.0824
340.14        129.2931
340.59         129.532
341.05        129.8222
341.50        130.1635
341.95        130.5953
342.40         131.176
342.85        131.8919
343.30        132.7109
343.75        133.4951
344.20         134.035
344.66        134.2959
345.11         134.313
345.56        134.2401
346.01        134.3285
346.46        134.6523
346.91        135.1144
347.36        135.5724
347.81        135.9181
348.26        136.1269
348.72        135.8303
349.17        135.9068
349.62        135.9552
350.07         136.241
350.52        136.6648
350.97        137.0665
351.42        137.1799
351.87        136.9321
352.32        136.4151
352.77        135.7838
353.22        135.2715
353.67        134.9386
354.13        134.7346
354.58        134.5218
355.03        134.1374
355.48        133.5491
355.93        132.8295
356.38        132.0943
356.83        131.5061
357.28        131.0902
357.73         130.777
358.18        130.4602
358.63        129.9802
359.08        129.2997
359.53        128.4803
359.98        127.5923
360.43        126.7369
360.88        125.9421
361.33        125.1691
361.78         124.406
362.23        123.6388
362.68        122.8615
363.13         122.094
363.58        121.3073
364.03        120.4462
364.48        119.5062
364.93        118.5011
365.38        117.5015
365.83        116.6272
366.28        115.9005
366.73        115.2804
367.18         114.686
367.63        113.9876
368.08         113.155
368.53         112.237
368.98        111.2791
369.43        110.3396
369.88        109.4365
370.33        108.5457
370.78        107.6754
371.23         106.862
371.68        106.1172
372.13        105.4333
372.58        104.7935
373.03        104.1492
373.48        103.4768
373.93        102.7941
374.38        102.0704
374.83         101.273
375.28        100.4216
375.72        99.51212
376.17        98.68301
376.62        98.04294
377.07        97.59119
377.52        97.27951
377.97        96.98091
378.42        96.49665
378.87        95.79837
379.32         94.9674
379.77        94.12899
380.22         93.4494
380.67        92.94831
381.11        92.56194
381.56        92.20439
382.01        91.76608
382.46        91.22384
382.91         90.6338
383.36        90.01836
383.81        89.39976
384.26        88.79608
384.71        88.20178
385.15        87.64219
385.60        87.22959
386.05        86.94472
386.50        86.75329
386.95        86.58597
387.40        86.33911
387.85        85.98862
388.29        85.51495
388.74        85.06069
389.19         84.5981
389.64         84.1366
390.09        83.67446
390.54        83.22167
390.98        82.78547
391.43         82.4165
391.88        82.09457
392.33        81.84031
392.78        81.62905
393.23        81.43648
393.67        81.35134
394.12        81.36339
394.57        80.95624
395.02        80.25278
395.47        80.00519
395.91        80.17266
396.36        80.00195
396.81        79.49408
397.26        79.12444
397.71        78.91132
398.15        78.64991
398.60        78.42133
399.05        78.15347
399.50        77.92946
399.95        77.91163
400.39        78.04278
400.84         78.1983
401.29        78.23097
401.74        77.61475
402.18        76.57597
402.63        76.20174
403.08        76.45856
403.53        76.30138
403.97         75.7041
404.42        75.35909
404.87        75.27309
405.32        75.15919
405.76        74.98698
406.21        74.83923
406.66        74.72784
407.11        74.61124
407.55        74.50328
408.00        74.56053
408.45        74.68208
408.90        74.23103
409.34        73.37381
409.79        73.10068
410.24        73.36098
410.68        73.34453
411.13         73.0337
411.58        72.90154
412.03        72.96008
412.47        73.00575
412.92        72.99399
413.37        72.99006
413.81         72.9759
414.26        72.98535
414.71        72.99849
415.15        73.01272
415.60        72.97966
416.05        72.89465
416.49        72.76044
416.94         72.5793
417.39        72.38233
417.83        72.20193
418.28         72.0555
418.73        71.94034
419.17         71.8433
419.62        71.74871
420.07        71.64713
420.51        71.53404
420.96        71.45898
421.41        71.40697
421.85         71.3437
422.30        71.41044
422.74        71.51673
423.19        71.41735
423.64        71.18078
424.08        71.36861
424.53        71.84229
424.98        71.99052
425.42        71.77024
425.87        71.50425
426.31        71.31196
426.76        71.20048
427.21        71.22166
427.65        71.44445
428.10        71.68849
428.54        71.88164
428.99        71.67058
429.44        71.40224
429.88        71.06105
430.33        70.98303
430.77        71.06666
431.22        71.07603
431.66         70.9859
432.11        71.00217
432.56        71.13862
433.00        71.14424
433.45        70.81464
433.89        70.65826
434.34        70.79928
434.78        70.12548
435.23        69.36787
435.67         70.8332
436.12        70.89755
436.57        71.07395
437.01        70.40023
437.46         70.1589
437.90        71.18672
438.35        70.82399
438.79        71.44952
439.24        71.37026
439.68         71.2535
440.13        70.96452
440.57        70.62965
441.02        70.63522
441.46        70.91415
441.91        71.00768
442.35        70.87459
442.80        71.21429
443.24        71.83897
443.69        71.88525
444.13        71.37138
444.58        71.03056
445.02        70.98119
445.47         70.9063
445.91        71.31234
446.36        71.38046
446.80        71.24252
447.24        71.09668
447.69        71.04948
448.13        71.04422
448.58        71.34158
449.02         71.3369
449.47        71.12449
449.91        71.01085
450.36        71.01685
450.80        70.82486
451.25        70.52615
451.69        70.49173
452.13        70.68539
452.58        70.69707
453.02         70.5025
453.47        70.39259
453.91        70.35146
454.36        70.21629
454.80        69.99432
455.24          69.799
455.69          69.657
456.13        69.51633
456.58        69.39704
457.02        69.34235
457.46        68.96276
457.91        69.08984
458.35        68.97242
458.79        68.93894
459.24        68.81519
459.68        68.72366
460.13        68.70612
460.57        68.53914
461.01        68.21851
461.46        68.32158
461.90        68.01025
462.34        67.79348
462.79        67.80216
463.23         67.9024
463.68        68.08919
464.12        67.77847
464.56          67.156
465.01        67.28581
465.45        67.89917
465.89        67.94534
466.34        67.48577
466.78        67.10975
467.22        66.92925
467.67        67.10243
468.11        67.12043
468.55        67.00177
468.99        66.64098
469.44        66.44964
469.88        66.43841
470.32        66.34156
470.77        66.16785
471.21        66.05279
471.65         65.9991
472.10        65.97934
472.54        65.94336
472.98        65.82593
473.42        65.62414
473.87        65.40814
474.31        65.21635
474.75        65.13653
475.20         65.1948
475.64        65.44264
476.08        65.76028
476.52        65.86658
476.97        65.70413
477.41        65.50948
477.85         65.3417
478.29        64.86948
478.74        64.66547
479.18        64.62423
479.62        65.02113
480.06        65.17315
480.50        65.11596
480.95        65.13158
481.39        65.20318
481.83        65.08852
482.27         65.6685
482.72        65.11154
483.16        65.40043
483.60        65.56723
484.04        65.50457
484.48        64.97826
484.93        64.59697
485.37        64.64353
485.81        64.95436
486.25        64.71633
486.69        66.60518
487.14        66.84115
487.58        65.60583
488.02         64.9691
488.46        64.60568
488.90        64.48383
489.34        64.52666
489.79        64.33412
490.23        64.52429
490.67        64.63834
491.11        64.79598
491.55        64.61285
491.99        64.17608
492.43         63.9171
492.88        63.87483
493.32        63.86849
493.76        63.82853
494.20        63.82629
494.64        63.87553
495.08        63.63869
495.52        63.63841
495.96         63.7419
496.41         63.9924
496.85         63.8628
497.29        63.42004
497.73        63.50246
498.17        63.73684
498.61        63.92598
499.05        63.86484
499.49        63.67416
499.93         63.4575
500.37        63.37434
500.82        63.42616
501.26        63.62981
501.70        63.88096
502.14        63.55258
502.58        63.24711
503.02         63.0681
503.46        63.14717
503.90        63.22429
504.34        63.23839
504.78        63.26731
505.22        63.30906
505.66        63.27398
506.10        63.17863
506.54        63.19262
506.98        63.34741
507.42        62.83465
507.86        63.47964
508.30        62.76243
508.74        63.04619
509.18         62.8137
509.62        62.65411
510.06        62.59073
510.50        62.61148
510.94         62.6232
511.38        62.58969
511.82        62.57503
512.26        62.56847
512.70        62.53015
513.14        62.47019
513.58        62.42657
514.02        62.40364
514.46        62.38745
514.90        62.35924
515.34        62.32592
515.78        62.28985
516.22         62.2317
516.66        62.00362
517.10        62.19476
517.54        61.94973
517.98        61.93473
518.42        61.90493
518.86        61.89774
519.30        61.91275
519.74        61.91117
520.18        61.90653
520.62        61.99522
521.06        62.12976
521.50         62.0855
521.93        61.89966
522.37        61.83175
522.81        61.90153
523.25        61.96706
523.69        61.99727
524.13        62.00269
524.57        61.97524
525.01        61.91748
525.45        61.85093
525.89        61.80784
526.32        61.79642
526.76        61.81409
527.20        61.84811
527.64        61.88111
528.08        61.90398
528.52        61.91965
528.96        61.93291
529.40        61.94285
529.83        61.94737
530.27         61.9772
530.71        61.99883
531.15        61.95931
531.59        61.85555
532.03        61.70759
532.46        61.56478
532.90        61.51821
533.34        61.57743
533.78        61.71602
534.22        61.86039
534.66        61.89597
535.09        61.79403
535.53        61.61485
535.97         61.4203
536.41        61.32504
536.85        61.35687
537.28        61.47657
537.72        61.63323
538.16        61.74617
538.60        61.78676
539.04        61.78139
539.47        61.73516
539.91        61.70652
540.35        61.69153
540.79        61.67761
541.22        61.65744
541.66        61.63862
542.10        61.61442
542.54        61.58302
542.97        61.54278
543.41         61.5185
543.85        61.51126
544.29         61.5357
544.72        61.55249
545.16         61.5554
545.60        61.53137
546.04        61.40647
546.47        61.27443
546.91        61.43502
547.35        61.80965
547.79        62.04147
548.22        62.03523
548.66        61.86223
549.10        61.60003
549.53        61.43456
549.97        61.39425
550.41        61.29812
550.84        61.16653
551.28        61.13556
551.72        61.19145
552.15        61.28981
552.59        61.43796
553.03        61.35217
553.46        61.54849
553.90        61.51889
554.34        61.40082
554.77        61.34292
555.21        61.21415
555.65         61.0785
556.08        61.19834
556.52        61.30044
556.96        61.41449
557.39        61.50426
557.83         61.5406
558.27        61.39869
558.70        61.15336
559.14        61.05848
559.57        61.13068
560.01        61.29509
560.45        61.44309
560.88        61.44652
561.32         61.3326
561.75        61.06683
562.19        60.79776
562.63        60.81073
563.06        61.03433
563.50        61.10519
563.93        60.90239
564.37        60.77399
564.80        60.72051
565.24        60.78836
565.68        60.94811
566.11        61.04183
566.55        61.07594
566.98        61.17969
567.42        61.34204
567.85        61.35176
568.29        61.28896
568.72        61.32398
569.16        61.48219
569.60        61.65845
570.03        61.74912
570.47        61.85734
570.90        61.90227
571.34        62.18446
571.77        62.36316
572.21        62.26192
572.64        62.32263
573.08        62.07324
573.51         62.1515
573.95        62.49555
574.38        62.21309
574.82        62.83202
575.25        62.75361
575.69        62.44415
576.12        62.09271
576.56        62.25856
576.99        62.34093
577.42        62.42027
577.86        62.38282
578.29        63.08026
578.73        63.31193
579.16        62.90689
579.60        62.21567
580.03        62.26044
580.47        62.60557
580.90         62.6287
581.33         62.8572
581.77        62.78571
582.20        63.36595
582.64        63.51459
583.07         63.2732
583.51        62.59204
583.94        62.39709
584.37         61.8342
584.81        61.50475
585.24        61.68771
585.68        62.71074
586.11        62.40938
586.54        62.60315
586.98        62.64565
587.41        62.10802
587.85          62.435
588.28         62.6039
588.71        62.57435
589.15          62.246
589.58        62.09656
590.01        61.89811
590.45        61.67975
590.88        62.03301
591.31        61.68413
591.75        61.49734
592.18        61.34158
592.61        61.46073
593.05        61.99858
593.48        62.24978
593.91        62.70128
594.35        62.19604
594.78        62.27781
595.21        61.91106
595.65        61.91325
596.08         61.9739
596.51        62.11784
596.94        61.78873
597.38        61.67192
597.81        61.62838
598.24          61.836
598.68        61.67751
599.11        61.63894
599.54        61.85248
599.97        61.98291
600.41        62.16449
600.84         61.7656
601.27        62.04408
601.70        61.74874
602.14        61.77944
602.57        61.63321
603.00        61.49782
603.43        61.61464
603.87        61.91739
604.30        61.89085
604.73        61.58372
605.16         61.6145
605.60         61.8381
606.03        61.85949
606.46        61.67762
606.89        61.49392
607.32        61.36742
607.76        61.95494
608.19        61.65745
608.62        61.44958
609.05        62.06004
609.48        61.56762
609.92         61.5718
610.35        61.49518
610.78        61.67632
611.21        61.25285
611.64        61.46946
612.07        61.40212
612.50        61.40625
612.94        61.40171
613.37        61.41389
613.80        61.42004
614.23        61.39995
614.66        61.37208
615.09        61.30965
615.52         61.2114
615.96        61.12084
616.39        60.99736
616.82        60.82174
617.25        61.17216
617.68        60.99604
618.11        60.99055
618.54        60.99103
618.97        60.88694
619.40        60.80038
619.84        60.48724
620.27        60.82479
620.70        60.76069
621.13        60.56632
621.56        60.42812
621.99        60.41825
622.42        60.57561
622.85        60.77748
623.28        60.98345
623.71        60.78058
624.14        60.84202
624.57        60.83133
625.00        61.15041
625.43        60.60892
625.86        60.54142
626.29         60.6616
626.72        60.36517
627.15         60.3959
627.58        60.39041
628.01        60.62917
628.44         60.3453
628.87        60.22483
629.30        60.74363
629.73        60.47454
630.16        60.28737
630.59         60.2347
631.02        60.45692
631.45         60.2333
631.88        60.28086
632.31        60.37456
632.74        60.20771
633.17        60.36443
633.60        60.28489
634.03         60.1546
634.46        60.02936
634.89         59.8664
635.32        59.82376
635.75        59.88197
636.18        60.02165
636.61        60.18874
637.04        60.29912
637.47        60.32762
637.89        60.30087
638.32        60.23503
638.75        60.18371
639.18        60.16386
639.61        60.16113
640.04        60.16333
640.47        60.15272
640.90        60.12518
641.33         60.0902
641.76        60.06148
642.18        60.06443
642.61        60.08771
643.04        60.12705
643.47        60.16393
643.90        60.17344
644.33        60.14977
644.76        60.09303
645.18        60.01809
645.61        59.96839
646.04        59.94342
646.47        59.88314
646.90         59.8103
647.33        59.81448
647.75        59.88597
648.18        59.99704
648.61        60.14266
649.04        60.21331
649.47        60.17457
649.89        60.48447
650.32        60.43929
650.75        60.32726
651.18        60.02203
651.61        59.89546
652.03        59.99203
652.46        60.01863
652.89        59.95394
653.32        60.04653
653.74        60.31094
654.17        59.88354
654.60        59.86572
655.03        59.73555
655.46        59.77533
655.88        60.76018
656.31        62.42774
656.74        67.14045
657.16        65.90221
657.59        63.93774
658.02        61.58854
658.45        60.76072
658.87        60.66821
659.30        60.63982
659.73        60.21093
660.15        59.79113
660.58        60.18231
661.01        60.39626
661.44        60.53603
661.86        60.51188
662.29        60.30851
662.72        59.96553
663.14        59.61487
663.57        59.57046
664.00        59.78904
664.42        59.85977
664.85        59.76609
665.27        59.64972
665.70        59.72908
666.13        59.77481
666.55        59.84666
666.98        59.94234
667.41        60.02642
667.83        60.05526
668.26        60.02997
668.69        59.90939
669.11        59.72591
669.54        59.74895
669.96         60.0459
670.39        59.73872
670.82        60.22506
671.24           60.29
671.67         60.3239
672.09        60.28402
672.52        60.22515
672.94        60.18518
673.37        60.16791
673.80        60.13176
674.22        60.08651
674.65        60.04502
675.07        60.02835
675.50        60.01355
675.92        60.01077
676.35        60.02426
676.77        60.05051
677.20        60.10147
677.62        60.18336
678.05        60.22334
678.47        60.20266
678.90        60.41267
679.32        60.34484
679.75        60.40855
680.17        60.45139
680.60        60.48149
681.02        60.49694
681.45        60.50659
681.87        60.52146
682.30         60.5051
682.72        60.47208
683.15        60.47281
683.57        60.45977
684.00        60.40839
684.42        60.03294
684.85        59.96272
685.27        60.10449
685.70        60.31292
686.12        60.49114
686.54        60.58183
686.97        60.55055
687.39        60.44386
687.82        60.31833
688.24        60.24076
688.66        60.21767
689.09        60.46462
689.51        60.48796
689.94        60.62235
690.36        60.69448
690.78        60.69422
691.21        60.64328
691.63        60.53929
692.06        60.44009
692.48        60.54247
692.90        60.64808
693.33        60.70304
693.75        60.65185
694.17        60.54434
694.60        60.42022
695.02        60.51256
695.44        60.55346
695.87        60.63446
696.29        60.67826
696.71        60.60481
697.14        60.47484
697.56        60.69397
697.98        61.18224
698.41        61.15045
698.83        61.18309
699.25        61.02142
699.68        60.89247
700.10        60.76422
700.52        60.66289
700.94        60.59528
701.37         60.5317
701.79        60.48084
702.21        60.42141
702.64        60.36614
703.06        60.32981
703.48        60.33751
703.90         60.3976
704.33        60.50127
704.75        60.61901
705.17        60.68664
705.59         60.6883
706.01        60.62767
706.44        60.57524
706.86        60.65171
707.28        60.85698
707.70        61.19251
708.12        61.53165
708.55        61.57406
708.97        61.32727
709.39        61.08905
709.81        60.94194
710.23        60.82345
710.66        60.77509
711.08        60.89565
711.50        61.10085
711.92        61.20824
712.34        61.18369
712.76        61.08292
713.19        60.95253
713.61        60.91289
714.03        60.97011
714.45        61.09793
714.87        61.25411
715.29        61.33851
715.71        61.32467
716.13        61.39935
716.56         61.2904
716.98        61.31694
717.40        61.39221
717.82        61.50249
718.24        61.61345
718.66        61.67708
719.08        61.68372
719.50        61.64759
719.92        61.59973
720.34        61.58603
720.76        61.61855
721.19        61.67596
721.61        61.75034
722.03        61.79948
722.45        61.81449
722.87        61.80998
723.29        61.80518
723.71        61.83084
724.13        61.89352
724.55        61.97591
724.97        62.06711
725.39        62.15132
725.81        62.21907
726.23        62.27536
726.65        62.30567
727.07        62.29202
727.49        62.23862
727.91        62.14171
728.33        62.03886
728.75        62.02815
729.17        62.10943
729.59        62.18569
730.01        62.24805
730.43        62.34579
730.85        62.46694
731.27        62.56274
731.69        62.62862
732.10        62.62725
732.52        62.74635
732.94        62.59403
733.36        62.30968
733.78        62.19496
734.20        62.28646
734.62        62.42816
735.04        62.54893
735.46        62.59545
735.88        62.54514
736.30        62.42758
736.72        62.27782
737.13        62.18041
737.55        62.12843
737.97        62.08638
738.39        62.07771
738.81        62.21662
739.23          62.474
739.65        62.65105
740.06        62.66371
740.48         62.7108
740.90        62.77252
741.32        62.52529
741.74        62.44694
742.16        62.37495
742.57        62.47828
742.99        62.67671
743.41        62.90536
743.83        63.03311
744.25        63.01968
744.67        62.90127
745.08        62.75586
745.50        62.66993
745.92        62.68943
746.34        62.79439
746.75         62.9069
747.17        62.89795
747.59        62.74723
748.01        62.46686
748.42        62.19613
748.84        62.17769
749.26        62.41522
749.68        62.79119
750.09        63.15184
750.51        63.16294
750.93          62.888
751.35        62.83466
751.76        63.01445
752.18        63.01991
752.60         62.8552
753.01        62.80743
753.43         62.8239
753.85        62.72633
754.27        62.51078
754.68        62.24427
755.10        62.02021
755.52        61.95604
755.93        62.08024
756.35        62.34295
756.77        62.63953
757.18         62.9038
757.60        63.09821
758.02        63.06516
758.43        62.83173
758.85        63.26293
759.26        62.99487
759.68        63.34145
760.10         63.0957
760.51        62.80721
760.93        63.02007
761.34        62.93829
761.76        62.85401
762.18        63.01554
762.59         63.3093
763.01        63.44353
763.42        62.63022
763.84        62.66929
764.26        62.96933
764.67        63.37069
765.09        63.62729
765.50        63.74802
765.92        63.70579
766.33        63.40091
766.75        62.94983
767.16        62.72599
767.58         62.7424
768.00        63.03907
768.41        63.49337
768.83        63.42582
769.24        62.90914
769.66        63.24423
770.07        63.44852
770.49        63.64195
770.90        63.52049
771.32        63.37857
771.73        63.28249
772.15        63.24477
772.56        63.30241
772.97        63.41583
773.39        63.51933
773.80        63.59813
774.22         63.6002
774.63        63.55004
775.05        63.45969
775.46        63.40017
775.88        63.36897
776.29        63.37558
776.70         63.3725
777.12        63.29765
777.53         63.1618
777.95        62.98129
778.36        62.82402
778.77        62.78868
779.19        62.89612
779.60        63.12003
780.02        63.37972
780.43        63.58541
780.84        63.70601
781.26        63.68374
781.67        63.60606
782.09        63.71328
782.50        63.94939
782.91        63.97887
783.33        63.78998
783.74        63.72374
784.15        63.76683
784.57        63.75005
784.98        63.70562
785.39        63.74519
785.81        63.87318
786.22        64.04671
786.63        64.22874
787.04          64.364
787.46        64.44547
787.87        64.46864
788.28        64.45556
788.70        64.42724
789.11        64.37608
789.52        64.31884
789.93        64.27509
790.35         64.2401
790.76        64.24411
791.17        64.34924
791.58        64.51247
792.00        64.57874
792.41        64.55449
792.82         64.5209
793.23        64.56197
793.65        64.64542
794.06        64.83408
794.47        65.38199
794.88        66.11078
795.29        66.16223
795.71        66.23464
796.12        65.89243
796.53        65.45827
796.94        65.18992
797.35        65.11222
797.76        64.89294
798.18        64.56969
798.59        64.47987
799.00        64.63173
799.41        64.85904
799.82        65.06828
800.23        65.18098
800.64        65.15864
801.06        64.98763
801.47        64.79182
801.88        64.71659
802.29        64.80064
802.70        64.99538
803.11        65.22133
803.52        65.34055
803.93        65.32336
804.34        65.22647
804.75        65.10674
805.17        65.08754
805.58        65.23407
805.99        65.34766
806.40        65.43593
806.81        65.85227
807.22        66.40717
807.63        66.34119
808.04        65.76613
808.45        65.55145
808.86        65.77351
809.27        65.94171
809.68         65.9686
810.09        65.93289
810.50         65.8138
810.91        65.61028
811.32         65.3811
811.73        65.21613
812.14        65.14462
812.55        65.14265
812.96        65.20309
813.37         65.3052
813.78        65.42825
814.19        65.57812
814.60        65.70518
815.01        65.73045
815.42        65.64561
815.83         65.4703
816.24        65.27643
816.65        65.20483
817.05        65.30415
817.46        65.50481
817.87        65.76649
818.28        65.98627
818.69        66.13164
819.10        66.22765
819.51        66.28464
819.92        66.32113
820.33        66.34234
820.74        66.32941
821.14        66.28345
821.55        66.23199
821.96        66.17123
822.37        66.11075
822.78        66.03893
823.19        65.93009
823.60        65.78682
824.00        65.63535
824.41        65.49084
824.82        65.44117
825.23        65.50125
825.64        65.65072
826.04        65.84596
826.45        65.97887
826.86        66.03613
827.27        66.04362
827.68        66.03732
828.08        66.10743
828.49        66.20131
828.90        66.32711
829.31        66.48052
829.72        66.55962
830.12        66.55308
830.53        66.85946
830.94        66.71738
831.35        66.57174
831.75        66.22479
832.16         65.6997
832.57        65.22316
832.97        65.16599
833.38        65.58747
833.79        66.35908
834.20        67.18663
834.60        67.62711
835.01        67.57835
835.42        67.16327
835.82        66.61227
836.23        66.28406
836.64        66.31116
837.04         66.5905
837.45        66.93845
837.86        67.11704
838.26         67.0673
838.67        66.87232
839.08        66.64488
839.48        66.53741
839.89        66.59166
840.29        66.75158
840.70        66.97305
841.11        67.19067
841.51        67.38692
841.92        67.54567
842.33        67.67843
842.73        67.79664
843.14         67.8602
843.54        67.89407
843.95        67.88494
844.35        67.84569
844.76        67.77593
845.17        67.67892
845.57        67.60949
845.98        67.61548
846.38         67.7341
846.79        67.93499
847.19        68.15997
847.60         68.2348
848.00         68.1563
848.41        67.92056
848.81        67.69417
849.22        67.69275
849.62        67.99715
850.03        68.49902
850.43        69.01867
850.84        69.17107
851.24        68.92731
851.65        68.32626
852.05        67.65973
852.46        67.35633
852.86        67.53897
853.27        68.09421
853.67        68.67936
854.07        68.96241
854.48        68.83884
854.88        68.43694
855.29        67.91187
855.69        67.71149
856.10        67.86842
856.50        68.34166
856.90        68.84559
857.31        68.95407
857.71        68.61908
858.12        67.93485
858.52        67.16748
858.92         66.6906
859.33        66.61893
859.73        66.88809
860.13        67.34193
860.54        67.72348
860.94        67.99094
861.34        68.15556
861.75        68.23591
862.15        68.34231
862.55        68.45095
862.96        68.49715
863.36        68.42177
863.76        68.09468
864.17        67.50926
864.57         66.7719
864.97        66.00607
865.38        65.38718
865.78        65.03419
866.18        64.91385
866.58        65.04739
866.99        65.41499
867.39        65.98332
867.79        66.68477
868.19        67.37392
868.60        67.77651
869.00        67.92366
869.40        68.04643
869.80        68.09142
870.21        67.80338
870.61        67.25603
871.01        66.58685
871.41        65.98053
871.81        65.60336
872.22        65.51109
872.62        65.69229
873.02        65.99202
873.42        66.27593
873.82        66.28893
874.22        65.62119
874.63        64.71354
875.03        64.41841
875.43        64.87532
875.83        66.63408
876.23        66.83312
876.63        66.62889
877.03        65.66998
877.44        63.48644
877.84        165.7003
878.24        63.94099
878.64        64.80974
879.04        66.51267
879.44        67.27245
879.84        64.32751
880.24        68.92226
880.64         68.9475
881.04        66.49772
881.44        64.58323
881.84        63.79536
882.24        64.22458
882.65         65.2765
883.05        65.60316
883.45         64.9258
883.85        64.08829
884.25        63.47653
884.65        63.30171
885.05        63.65784
885.45        64.37476
885.85        65.16378
886.25        65.65044
886.65        65.73761
887.05        65.54653
887.45        65.19573
887.85        64.88145
888.25        64.69602
888.65        64.58796
889.04        64.57615
889.44        64.70251
889.84        64.94141
890.24         65.2601
890.64        65.59843
891.04        65.86207
891.44        66.02251
891.84        66.11241
892.24        66.07774
892.64         65.8423
893.04        65.42945
893.44        64.88129
893.83        64.40649
894.23         64.2881
894.63         64.5789
895.03        65.19443
895.43        65.90452
895.83        66.31004
896.23        66.31227
896.63        66.03759
897.02        65.65724
897.42        65.49487
897.82        65.59148
898.22        65.82362
898.62        66.10109
899.01        66.29401
899.41        66.33223
899.81        66.30496
900.21        66.17717
900.61        65.87442
901.00        65.41338
901.40        64.89202
901.80        64.50601
902.20        64.43405
902.59        64.68951
902.99        65.43922
903.39        66.57775
903.79        66.37514
904.18        67.17673
904.58        67.09464
904.98        66.81538
905.38         66.2185
905.77        65.36011
906.17        64.32046
906.57        63.32467
906.96        62.84782
907.36         62.9925
907.76        63.64923
908.15        64.60836
908.55        65.34196
908.95        65.71812
909.34        65.79768
909.74        65.71473
910.14          65.666
910.53        65.71464
910.93        65.78001
911.33         65.7609
911.72        65.51049
912.12        65.03499
912.52        64.43329
912.91        63.86453
913.31        63.64062
913.70         63.7982
914.10        64.23153
914.49        64.80557
914.89        65.20441
915.29        65.34724
915.68         65.2974
916.08        65.13099
916.47        64.92876
916.87        64.76879
917.26        64.62231
917.66        64.51759
918.05        64.52632
918.45         64.6355
918.84        64.83572
919.24        65.08624
919.64        65.36922
920.03        65.65393
920.42        65.90989
920.82        66.04461
921.21        65.93466
921.61        65.60256
922.00        65.17068
922.40        64.82812
922.79        64.74081
923.19        64.59467
923.58        65.19743
923.98        66.85502
924.37        67.07344
924.77        64.49626
925.16        72.46521
925.55        66.80746
925.95        67.40575
926.34         67.4169
926.74        66.68726
927.13        65.27681
927.52        64.46088
927.92        64.75207
928.31        65.47804
928.70         66.3509
929.10        66.87576
929.49        66.96301
929.89        66.79042
930.28        66.43728
930.67         65.9401
931.07        65.39548
931.46         64.6842
931.85          64.061
932.24        64.38953
932.64        65.73907
933.03        67.28325
933.42        68.19285
933.82        70.47466
934.21        68.89781
934.60        67.54922
934.99        66.15856
935.39        65.85616
935.78        66.70126
936.17          68.991
936.56        75.33022
936.96        68.80919
937.35        72.16533
937.74        68.57798
938.13        65.76369
938.53        63.71671
938.92        63.32077
939.31        64.95209
939.70        67.08914
940.09        68.16221
940.49        67.83294
940.88        66.62792
941.27        65.10704
941.66        64.32256
942.05        64.65738
942.44         65.6996
942.84        66.88082
943.23        67.52161
943.62        67.43462
944.01        66.82595
944.40        66.14136
944.79        66.10886
945.18        66.87961
945.57        68.18321
945.97        69.39274
946.36        69.66238
946.75        68.77126
947.14        67.01749
947.53        65.03326
947.92        63.90809
948.31        63.97009
948.70        64.88307
949.09        66.13068
949.48         66.9091
949.87        66.99264
950.26        66.64436
950.65        66.11464
951.04        65.79828
951.43        65.82926
951.82        66.03871
952.21        66.33239
952.60        66.59128
952.99        66.74229
953.38          66.833
953.77        66.86428
954.16        66.80469
954.55        66.67333
954.94        66.51012
955.33        66.30673
955.72          66.074
956.11        65.83558
956.50        65.55537
956.89        65.41852
957.28        65.70727
957.66        66.45161
958.05        67.48656
958.44        68.38242
958.83        68.47907
959.22        67.65569
959.61        66.05946
960.00        64.23668
960.39        63.27304
960.78        63.52252
961.16        64.70585
961.55        66.09581
961.94        66.80224
962.33        66.64626
962.72        65.86238
963.11        64.93065
963.49        64.80097
963.88        65.72267
964.27        67.29246
964.66        68.85578
965.04        69.56902
965.43        69.22113
965.82        68.13508
966.21        66.74207
966.60        65.80061
966.98        65.57829
967.37        65.83846
967.76        66.33444
968.15         66.6526
968.53        66.67348
968.92         66.5482
969.31        66.34164
969.69        66.11938
970.08        65.90067
970.47        65.61802
970.86        65.40691
971.24        65.53548
971.63         66.0039
972.02        66.72846
972.40        67.42636
972.79         67.5818
973.17        67.16518
973.56        66.32967
973.95        65.39442
974.33         64.9408
974.72         65.1363
975.11        65.76991
975.49        66.70023
975.88        67.60554
976.26        68.41122
976.65        69.14201
977.04        69.65245
977.42        69.68964
977.81        69.18999
978.19        68.12199
978.58        67.05911
978.96        67.01416
979.35        68.14812
979.74        70.05544
980.12        71.91718
980.51        72.52842
980.89        71.84938
981.28         70.0985
981.66        67.85477
982.05        66.59195
982.43        66.89146
982.82        68.36688
983.20        70.28696
983.59        71.50844
983.97        71.76614
984.35        71.36095
984.74         70.5834
985.12        70.02863
985.51        69.88061
985.89        70.00318
986.28        70.20834
986.66        70.31655
987.04        70.32211
987.43        70.21555
987.81        69.91196
988.20        70.62427
988.58        72.49814
988.96        72.89474
989.35        71.03677
989.73        76.41154
990.12        72.75252
990.50        72.60664
990.88        71.68861
991.27        70.81126
991.65        70.01704
992.03        69.40948
992.42         69.2139
992.80         69.1832
993.18        69.29091
993.56         69.6844
993.95        70.12537
994.33        70.17165
994.71        69.77028
995.10        68.97527
995.48         68.2867
995.86        68.54608
996.24        69.86522
996.63        71.84779
997.01        73.89798
997.39         74.8768
997.77        74.51499
998.15         73.1711
998.54        71.41711
998.92        70.04935
999.30        69.38957
999.68        69.27321
1000.06         69.5005
1000.45         69.6145
1000.83        69.54862
1001.21        69.46828
1001.59        69.59489
1001.97        70.19759
1002.35        71.22629
1002.73        72.42148
1003.12        73.51029
1003.50        74.26433
1003.88        74.62556
1004.26        74.68348
1004.64        74.48323
1005.02        74.12073
1005.40        73.66981
1005.78        73.12534
1006.16         72.5771
1006.54        72.14665
1006.92          71.894
1007.30        71.87492
1007.69         71.9958
1008.07        72.18351
1008.45        72.39116
1008.83        72.63825
1009.21        73.05937
1009.59        73.87783
1009.97        75.00193
1010.35        76.14958
1010.73        77.12009
1011.11         78.0058
1011.49         78.9684
1011.86        79.76057
1012.24        80.09392
1012.62        81.96636
1013.00        82.69796
1013.38        82.29463
1013.76        79.77487
1014.14        82.70744
1014.52        87.73811
1014.90        80.57838
1015.28        81.39839
1015.66        82.58112
1016.04        79.32778
1016.41        79.82867
1016.79        79.33029
1017.17        79.09419
1017.55         78.5334
1017.93        77.93031
1018.31         77.6319
1018.69        77.68542
1019.06        78.18688
1019.44        79.02453
1019.82        79.80381
1020.20         79.9668
1020.58        79.42037
1020.95        78.11373
1021.33        76.60381
1021.71         76.3122
1022.09        77.74955
1022.46        80.06754
1022.84         82.1552
1023.22        83.30118
1023.60        83.59923
1023.97        83.38058
1024.35         82.8565
1024.73        82.42386
