SpectraSmart Spectrum 2.9.0.0
--------- Device Information -----------
Spectrum Name :  反射率_0
Saving Time :  2024/04/21 00:02:33
Spectro-Module Model Name : SE2030-DUVN
Spectro-Module Serial Number : OS361AC55029948
Wavelength Start : 200
Wavelength End : 1025
Wavelength Unit : Wavelength(nm)
Spectrum Unit : Reflectance(%)
-----------Spectrum Setting ------------
Integration Time : 20ms
Average : 10
Boxcar : 0
Background removal :  enabled
linearity correction :  enabled
SC :  disabled
Intensity correction :  disabled
DWT denoise :  enabled
savitzky-golay :  disabled
FFT :  disabled
Running average :  disabled
Kalman :  disabled
High pass :  disabled
---------------BEGIN--------------------
Wavelength(nm)             Reflectance(%)
200.29               0
200.75        8.594114
201.21        11.66242
201.67        11.27385
202.13        14.24724
202.58        20.69277
203.04        30.87845
203.50        42.00525
203.96        44.92579
204.42        35.69538
204.88        17.58035
205.34       -1.538551
205.80       -12.29609
206.26        -12.1492
206.72        0.938884
207.18        20.11739
207.64        25.19023
208.10        8.063218
208.55        -24.7747
209.01       -47.53937
209.47       -28.95185
209.93        5.445314
210.39        34.00618
210.85        52.41493
211.31        60.62846
211.77        61.46155
212.23        56.20504
212.69        42.05138
213.14         15.5821
213.60       -31.56525
214.06       -162.7819
214.52       -466.0007
214.98       -215.4385
215.44       -57.81545
215.90       -2.676786
216.36         15.5806
216.81        15.92398
217.27     -0.04265841
217.73       -80.90481
218.19        882.5996
218.65        357.9615
219.11       -726.2025
219.57       -18.61573
220.02        25.78128
220.48        33.42707
220.94        29.15407
221.40        11.79957
221.86       -28.09914
222.32       -45.86967
222.77      -0.9705076
223.23        33.79697
223.69        50.12159
224.15        54.64983
224.61        53.02385
225.06        48.10581
225.52        41.74055
225.98        36.67646
226.44        34.22729
226.90        32.95729
227.36        34.25979
227.81        39.41559
228.27        45.64736
228.73        51.25771
229.19        54.53936
229.65        54.48942
230.10        51.60667
230.56        46.73302
231.02        40.83313
231.48        37.53649
231.93        39.09055
232.39        44.01979
232.85        49.15609
233.31        51.96882
233.77        52.70852
234.22        52.53196
234.68        51.88021
235.14        51.56405
235.60        52.11175
236.05        52.79373
236.51        53.61306
236.97        57.99002
237.43        65.61821
237.88        71.10999
238.34        72.60956
238.80        83.51692
239.26        79.89706
239.71        79.03336
240.17        75.17661
240.63        72.58636
241.08        74.64057
241.54        82.31584
242.00        93.44729
242.46         101.923
242.91        106.4443
243.37        106.3103
243.83        100.9851
244.28        92.10566
244.74        82.98383
245.20        75.09451
245.66        67.79121
246.11        58.97071
246.57        47.80854
247.03        35.21891
247.48         22.0044
247.94        9.409658
248.40       -4.120847
248.85       -28.82376
249.31       -84.24947
249.77       -70.09969
250.22        34.88964
250.68         60.5456
251.14        65.95633
251.59        68.48141
252.05        71.65061
252.51        76.58687
252.96        82.22621
253.42        84.31903
253.88        80.89587
254.33        74.88099
254.79        74.35977
255.25        82.27988
255.70        92.82944
256.16        102.4208
256.62        108.2906
257.07        109.0933
257.53         107.315
257.99        104.2918
258.44        101.1215
258.90        99.78387
259.35        99.33663
259.81        99.69365
260.27        99.89472
260.72        99.12347
261.18        98.04827
261.63        96.48989
262.09        95.19302
262.55        94.05195
263.00        92.86945
263.46        91.89784
263.91        90.72617
264.37        89.55862
264.83        88.27868
265.28        86.85142
265.74        85.55952
266.19        84.33052
266.65        83.28299
267.11        82.30388
267.56        81.25007
268.02        80.06219
268.47        78.65269
268.93        77.11271
269.38        75.52013
269.84        74.09956
270.30        72.87457
270.75        71.78471
271.21        70.74064
271.66        69.49825
272.12        68.07942
272.57        66.53229
273.03        65.05679
273.48        63.82381
273.94          62.908
274.39        62.15757
274.85        61.49821
275.31        60.70445
275.76         59.7085
276.22        58.65625
276.67        57.56654
277.13        56.62579
277.58        55.78955
278.04        55.07758
278.49         54.3812
278.95        53.72407
279.40        53.01237
279.86         52.3205
280.31        51.58283
280.77        50.86534
281.22        50.11275
281.68        49.40368
282.13        48.67318
282.59        47.96918
283.04        47.25634
283.50          46.594
283.95        46.00578
284.41         45.6045
284.86        45.37167
285.32        45.30722
285.77        45.30198
286.22         45.2578
286.68        45.16608
287.13        44.99109
287.59        44.84094
288.04        44.74897
288.50        44.72745
288.95        44.81757
289.41        44.98477
289.86        44.77999
290.32        44.16478
290.77        44.58175
291.22        43.77109
291.68        43.80652
292.13        44.01801
292.59        44.44638
293.04        45.04032
293.50        45.78644
293.95        46.66593
294.40        47.65888
294.86        48.73395
295.31        49.83006
295.77         50.9265
296.22        52.00131
296.68        53.07307
297.13        54.15556
297.58        55.27481
298.04        56.43128
298.49        57.61805
298.95        58.85506
299.40        60.11742
299.85        61.40421
300.31          62.705
300.76        63.96147
301.21        65.17409
301.67        66.38331
302.12        67.56315
302.58        68.80358
303.03         70.0808
303.48        71.42728
303.94        72.83974
304.39        74.25115
304.84         75.6533
305.30        77.06507
305.75        78.45063
306.20        79.88016
306.66        81.35503
307.11        82.79372
307.57        84.16061
308.02        85.30989
308.47        86.25663
308.93        87.09067
309.38        87.84413
309.83        88.64291
310.29        89.57011
310.74        90.52716
311.19        91.52291
311.65        92.53275
312.10        93.51394
312.55        94.47662
313.00        95.36417
313.46        96.08835
313.91         96.6245
314.36        97.01371
314.82        97.33926
315.27        97.72866
315.72        98.22307
316.18        98.77971
316.63        99.36134
317.08        99.90732
317.53        100.3841
317.99        100.8072
318.44        101.1472
318.89        101.3407
319.35        101.3895
319.80        101.3263
320.25        101.2332
320.70        101.2527
321.16        101.4156
321.61        101.7021
322.06        102.0511
322.51        102.3662
322.97        102.5949
323.42        102.7915
323.87        102.9505
324.32        103.0843
324.78        103.1837
325.23        103.2802
325.68        103.3635
326.13        103.4523
326.59        103.5338
327.04        103.6659
327.49         103.841
327.94        104.0758
328.39        104.3687
328.85        104.6759
329.30        105.0372
329.75        105.3878
330.20        105.7088
330.66        105.9707
331.11         106.221
331.56        106.4099
332.01        106.5424
332.46        106.6272
332.92        106.6724
333.37        106.8336
333.82        107.0979
334.27        107.4589
334.72        107.8788
335.17        108.2863
335.63        108.6272
336.08        108.9699
336.53        109.3253
336.98        109.7631
337.43        110.2884
337.88        110.8654
338.34        111.3933
338.79        111.7703
339.24        111.9493
339.69         111.981
340.14        111.9587
340.59        112.0308
341.05        112.2448
341.50        112.5695
341.95        112.9632
342.40        113.3577
342.85        113.7209
343.30         114.067
343.75        114.3848
344.20        114.6592
344.66        114.8938
345.11        115.0652
345.56        115.1851
346.01        115.2775
346.46        115.3604
346.91        115.4286
347.36        115.4748
347.81        115.5325
348.26        115.6144
348.72        115.5439
349.17        115.6594
349.62        115.7536
350.07        115.9211
350.52        116.1193
350.97        116.2796
351.42         116.288
351.87        116.1106
352.32        115.7855
352.77        115.3563
353.22        114.8898
353.67        114.4154
354.13        113.9365
354.58         113.441
355.03        112.9642
355.48         112.511
355.93         112.078
356.38        111.6491
356.83        111.1889
357.28        110.6778
357.73         110.117
358.18        109.4945
358.63        108.8007
359.08        108.0529
359.53        107.2733
359.98        106.4953
360.43        105.7633
360.88        105.0843
361.33        104.4378
361.78        103.8245
362.23        103.2454
362.68         102.687
363.13        102.1441
363.58        101.5537
364.03        100.8165
364.48        99.91979
364.93        98.89706
365.38        97.84338
365.83         96.9175
366.28        96.16146
366.73        95.52959
367.18        94.95403
367.63        94.32209
368.08        93.60027
368.53        92.82993
368.98        92.02687
369.43        91.20322
369.88        90.36473
370.33        89.49776
370.78        88.63017
371.23        87.83245
371.68        87.13473
372.13        86.53226
372.58        85.99899
373.03        85.47268
373.48        84.92603
373.93        84.37006
374.38        83.80853
374.83        83.25905
375.28          82.733
375.72        82.20654
376.17        81.70673
376.62        81.20904
377.07        80.69772
377.52        80.16593
377.97        79.61668
378.42        79.07068
378.87        78.54876
379.32        78.06162
379.77        77.59488
380.22        77.11122
380.67        76.59434
381.11        76.05109
381.56        75.50864
382.01        75.03593
382.46        74.65762
382.91        74.36121
383.36        74.08604
383.81        73.73647
384.26        73.29028
384.71        72.77132
385.15        72.24106
385.60        71.85614
386.05        71.61932
386.50        71.49162
386.95        71.37255
387.40        71.11205
387.85         70.6926
388.29        70.13112
388.74        69.62782
389.19        69.27714
389.64        69.08846
390.09        69.00207
390.54        68.93006
390.98        68.72041
391.43        68.38573
391.88        67.98188
392.33        67.57509
392.78        67.25456
393.23        67.04275
393.67        66.86691
394.12        66.78597
394.57         66.7395
395.02        66.70166
395.47         66.6535
395.91        66.57736
396.36        66.43015
396.81        66.23148
397.26        66.02657
397.71        65.79369
398.15        65.50753
398.60         65.2506
399.05         64.8447
399.50        64.44984
399.95        64.53072
400.39        64.95599
400.84        65.12177
401.29        64.90684
401.74        64.31155
402.18        63.54205
402.63        63.23958
403.08        63.37056
403.53        63.20175
403.97        62.71843
404.42        62.44147
404.87        62.40211
405.32        62.41311
405.76        62.45265
406.21        62.55961
406.66         62.6585
407.11        62.67011
407.55          62.564
408.00        62.26311
408.45        61.86616
408.90        61.53083
409.34        61.35357
409.79        61.46355
410.24        61.74638
410.68        61.87078
411.13        61.78991
411.58        61.66898
412.03        61.54111
412.47        61.41471
412.92        61.29379
413.37        61.18866
413.81        61.09777
414.26         61.0684
414.71        61.08513
415.15        61.15403
415.60        61.22372
416.05        61.25525
416.49        61.23355
416.94        61.15596
417.39        61.04539
417.83        60.93104
418.28        60.82716
418.73        60.72981
419.17        60.62511
419.62        60.50208
420.07        60.36435
420.51        60.21786
420.96        60.12326
421.41        60.11916
421.85        60.18406
422.30        60.34312
422.74        60.51241
423.19        60.65674
423.64        60.74571
424.08        60.83598
424.53        60.88925
424.98        60.92152
425.42        60.95417
425.87        60.98613
426.31        61.02338
426.76        61.05359
427.21        61.07331
427.65        61.13558
428.10        61.22275
428.54        61.25645
428.99        61.26728
429.44        61.42275
429.88        61.59095
430.33        61.37693
430.77        60.89386
431.22        60.76768
431.66        60.99875
432.11        61.38234
432.56        61.85445
433.00        61.96884
433.45        61.49219
433.89        61.50992
434.34          62.211
434.78        60.70126
435.23        60.44539
435.67        61.61164
436.12        62.10519
436.57         62.4234
437.01        61.85409
437.46        61.51686
437.90        62.03033
438.35        62.55635
438.79        62.27932
439.24        62.30522
439.68        62.37463
440.13        62.32037
440.57         62.1739
441.02        62.37272
441.46        62.79044
441.91        62.64455
442.35        62.08916
442.80        62.30705
443.24        63.10449
443.69        63.29627
444.13        62.84885
444.58        62.57064
445.02        62.53376
445.47        62.64003
445.91        62.81353
446.36        62.86285
446.80        62.76262
447.24         62.6461
447.69        62.58833
448.13        62.70029
448.58         62.9148
449.02        62.96207
449.47        62.85099
449.91        62.84726
450.36          62.972
450.80        62.98093
451.25        62.90294
451.69        62.94304
452.13        63.05379
452.58         62.9197
453.02        62.57655
453.47        62.35934
453.91        62.28669
454.36        62.20518
454.80        62.08558
455.24        61.99611
455.69        61.95778
456.13        61.83547
456.58        61.69218
457.02        61.88142
457.46        62.00302
457.91        62.03659
458.35        61.96566
458.79        61.87194
459.24        61.79874
459.68        61.64859
460.13        61.50139
460.57        61.29221
461.01        61.02905
461.46        61.12359
461.90        61.12407
462.34        60.76192
462.79        60.86329
463.23        60.96797
463.68        61.25398
464.12        61.12957
464.56        60.69838
465.01        60.79095
465.45        61.19151
465.89        61.17641
466.34        60.83928
466.78        60.57388
467.22         60.3588
467.67        60.87214
468.11        60.20338
468.55        60.13295
468.99        60.10572
469.44        60.08493
469.88        60.05835
470.32        60.05986
470.77        60.09651
471.21        60.11871
471.65        60.11624
472.10        60.10038
472.54        60.04534
472.98        59.93315
473.42        59.77602
473.87         59.6048
474.31        59.43471
474.75        59.38216
475.20         59.4376
475.64         59.5153
476.08        59.60667
476.52        59.69702
476.97        59.72902
477.41        59.89556
477.85         60.1564
478.29        59.73862
478.74        59.26973
479.18        59.49771
479.62        59.30307
480.06        59.35611
480.50        59.29849
480.95        59.27528
481.39        59.19686
481.83        59.53872
482.27        59.64792
482.72         59.4231
483.16        59.50552
483.60        59.78356
484.04         59.7209
484.48        59.34463
484.93        59.21136
485.37        58.95705
485.81        59.48127
486.25        58.95221
486.69        59.58285
487.14        59.39293
487.58        59.14576
488.02        59.35944
488.46        59.31152
488.90        58.87199
489.34        58.95119
489.79        58.56024
490.23        58.82439
490.67        59.00415
491.11        59.22855
491.55        59.08827
491.99        58.65993
492.43         58.4704
492.88        58.54329
493.32        58.57876
493.76         58.5173
494.20        58.51828
494.64        58.59427
495.08        58.38664
495.52        58.46806
495.96        58.45432
496.41        58.46837
496.85        58.42935
497.29        58.31715
497.73        58.32803
498.17          58.168
498.61        58.27417
499.05        58.46518
499.49          58.302
499.93        57.90213
500.37        57.84187
500.82        58.09337
501.26        58.31567
501.70        58.42035
502.14        58.09528
502.58        57.88032
503.02        57.70042
503.46        57.67501
503.90        57.64456
504.34        57.58812
504.78        57.60603
505.22        57.71285
505.66        57.79781
506.10        57.80032
506.54        57.90664
506.98        58.15889
507.42        57.46291
507.86         57.7442
508.30        57.61744
508.74        57.53886
509.18        57.53415
509.62        57.56507
510.06        57.62608
510.50         57.6698
510.94        57.65201
511.38        57.58741
511.82        57.55998
512.26        57.57642
512.70         57.5881
513.14        57.58018
513.58        57.55235
514.02        57.50085
514.46        57.42415
514.90        57.33245
515.34        57.28501
515.78        57.29585
516.22        57.31269
516.66        57.15817
517.10         57.4145
517.54        57.11429
517.98        57.02799
518.42        56.92213
518.86         56.9047
519.30        56.98756
519.74        57.10667
520.18        57.23787
520.62        57.41166
521.06        57.56579
521.50        57.50978
521.93        57.28609
522.37        57.14752
522.81        57.12623
523.25        57.09467
523.69        57.04142
524.13        57.00283
524.57        56.97693
525.01        56.95762
525.45        56.95978
525.89        57.00153
526.32        57.07959
526.76          57.191
527.20        57.29841
527.64        57.34721
528.08        57.32606
528.52         57.2511
528.96        57.16668
529.40         57.1355
529.83        57.16986
530.27        57.27879
530.71        57.40086
531.15        57.43705
531.59        57.36765
532.03         57.2242
532.46        57.06545
532.90        56.99622
533.34        57.03381
533.78        57.14961
534.22        57.26872
534.66        57.27594
535.09        57.14593
535.53        56.94072
535.97        56.73515
536.41        56.66121
536.85        56.74541
537.28        56.93715
537.72        57.16283
538.16        57.30602
538.60         57.3285
539.04        57.26825
539.47        57.14461
539.91        57.03394
540.35        56.94368
540.79        56.86036
541.22        56.78533
541.66        56.73691
542.10        56.71276
542.54        56.71274
542.97        56.72564
543.41          56.757
543.85        56.79847
544.29        56.85894
544.72        56.90888
545.16        56.95066
545.60        56.96896
546.04        56.90826
546.47          56.828
546.91        56.91697
547.35        57.12088
547.79        57.23979
548.22        57.20696
548.66        57.00306
549.10         56.7239
549.53        56.65706
549.97        56.79681
550.41        56.82553
550.84         56.7416
551.28        56.72471
551.72        56.76003
552.15        56.82725
552.59        56.95268
553.03        56.69704
553.46        56.87379
553.90        56.80198
554.34        56.70596
554.77        56.66532
555.21        56.75309
555.65        56.52482
556.08        56.82341
556.52        56.95181
556.96        57.09437
557.39         57.1919
557.83        57.21526
558.27        57.04028
558.70        56.75362
559.14        56.62644
559.57        56.68287
560.01        56.88241
560.45        57.08586
560.88        57.05443
561.32        56.84973
561.75        56.56926
562.19        56.36473
562.63        56.50643
563.06        56.87427
563.50        56.90226
563.93        56.59116
564.37        56.42253
564.80        56.42974
565.24        56.51691
565.68        56.64647
566.11        56.71756
566.55        56.73248
566.98         56.8053
567.42        56.93298
567.85        56.89671
568.29        56.76691
568.72        56.77287
569.16        56.95586
569.60        56.92257
570.03        56.93025
570.47        56.97839
570.90        57.11565
571.34        56.96865
571.77         57.0386
572.21        57.00035
572.64        56.98288
573.08        56.67654
573.51        57.09374
573.95        57.50244
574.38        57.19628
574.82        57.88524
575.25        57.26897
575.69        57.24379
576.12         57.1409
576.56         57.0046
576.99        57.03814
577.42          57.106
577.86        57.20667
578.29        57.56977
578.73        57.71278
579.16        57.34956
579.60        57.07667
580.03        57.22948
580.47        57.16811
580.90        57.21143
581.33        57.39698
581.77        57.58321
582.20         57.8528
582.64        57.91795
583.07         57.3361
583.51        57.10561
583.94        56.96346
584.37        56.78783
584.81        56.69537
585.24        56.70823
585.68        57.19519
586.11        57.19646
586.54        57.30066
586.98        57.36095
587.41        57.11668
587.85        57.63982
588.28        57.52482
588.71        57.29083
589.15        57.37122
589.58        57.11629
590.01        57.05346
590.45        56.78796
590.88        57.22281
591.31        56.99667
591.75         56.9952
592.18        56.86278
592.61        56.79611
593.05        57.16115
593.48        57.07544
593.91        57.28939
594.35        57.38054
594.78        57.34063
595.21        57.10122
595.65        56.98582
596.08        57.00787
596.51         57.2137
596.94        57.03358
597.38        57.06324
597.81        57.19782
598.24        57.01866
598.68        56.81774
599.11        57.19258
599.54        57.24696
599.97        57.18417
600.41        56.92997
600.84        57.31539
601.27        57.14895
601.70        57.00352
602.14        56.63723
602.57        56.69926
603.00        57.13414
603.43        57.31622
603.87        57.34497
604.30        57.13748
604.73        57.22873
605.16        56.84666
605.60        56.83098
606.03        56.97002
606.46        57.39893
606.89        56.99754
607.32        56.58976
607.76         56.9748
608.19        57.07749
608.62        56.94876
609.05        57.86131
609.48        57.26946
609.92        57.07057
610.35        57.12008
610.78        57.08508
611.21        56.86649
611.64        56.88811
612.07        56.87915
612.50        57.00312
612.94        57.00144
613.37        56.86345
613.80        57.07064
614.23        56.85655
614.66        56.81643
615.09        56.74009
615.52        56.72615
615.96        56.78043
616.39        56.71552
616.82          56.502
617.25        56.77332
617.68        56.60916
618.11        56.47091
618.54        56.30697
618.97        56.31009
619.40        56.52087
619.84        56.47115
620.27        56.71839
620.70        56.57547
621.13        56.30862
621.56        56.33888
621.99        56.66551
622.42        56.81803
622.85        56.69487
623.28         56.7202
623.71        56.70877
624.14        56.64959
624.57        56.45853
625.00        57.05348
625.43        56.40897
625.86        56.56597
626.29        56.94346
626.72        56.57514
627.15        56.73745
627.58        56.61957
628.01        56.70675
628.44        56.38326
628.87        56.33392
629.30        56.67695
629.73        56.57634
630.16        56.39417
630.59         56.3259
631.02        56.50602
631.45        56.27369
631.88        56.30505
632.31        56.38969
632.74         56.2404
633.17        56.40483
633.60        56.36686
634.03        56.29707
634.46        56.24209
634.89        56.14736
635.32        56.13832
635.75        56.19057
636.18        56.29177
636.61         56.4007
637.04        56.45602
637.47        56.44332
637.89        56.38458
638.32        56.29678
638.75        56.24181
639.18        56.23239
639.61        56.23347
640.04        56.24461
640.47        56.28564
640.90        56.35197
641.33        56.42971
641.76        56.50879
642.18        56.58342
642.61        56.63422
643.04         56.6662
643.47        56.67645
643.90        56.66869
644.33        56.64576
644.76        56.59406
645.18        56.52993
645.61        56.50249
646.04        56.50457
646.47        56.47045
646.90        56.40028
647.33        56.34964
647.75        56.31048
648.18        56.27201
648.61        56.26379
649.04        56.24725
649.47        56.20597
649.89        56.52389
650.32        56.53499
650.75        56.54211
651.18        56.37798
651.61        56.29079
652.03        56.31746
652.46        56.24576
652.89        56.12818
653.32        56.29333
653.74        56.61697
654.17        56.53533
654.60        56.02559
655.03        55.84422
655.46        56.02821
655.88        56.74778
656.31        57.72992
656.74        59.96136
657.16        58.50076
657.59        56.91283
658.02        56.11233
658.45        56.30223
658.87        56.16253
659.30        56.21004
659.73        56.22209
660.15        55.96035
660.58        56.49589
661.01        56.76473
661.44         56.9685
661.86        56.86697
662.29        56.52997
662.72        56.33973
663.14        56.34014
663.57        56.30337
664.00        56.22132
664.42        56.19455
664.85         56.2284
665.27        56.19071
665.70        56.25264
666.13        56.25964
666.55        56.26489
666.98         56.2612
667.41        56.24456
667.83        56.21708
668.26         56.1914
668.69        56.11762
669.11        56.01221
669.54        56.10065
669.96        56.43272
670.39        56.19157
670.82        56.67688
671.24        56.71182
671.67        56.66093
672.09        56.52485
672.52        56.38766
672.94        56.25716
673.37        56.18657
673.80        56.30203
674.22        56.53424
674.65        56.59601
675.07        56.46554
675.50        56.28101
675.92         56.1337
676.35        56.05582
676.77        56.06063
677.20        56.35274
677.62         56.5046
678.05        56.65544
678.47        56.64551
678.90        56.82726
679.32        56.67039
679.75        56.66274
680.17        56.65896
680.60        56.65623
681.02        56.64622
681.45        56.63067
681.87        56.61891
682.30        56.58178
682.72        56.55412
683.15        56.60414
683.57        56.68503
684.00        56.79262
684.42        56.55356
684.85        56.53086
685.27         56.6081
685.70        56.67278
686.12        56.68684
686.54        56.68483
686.97        56.65906
687.39         56.6148
687.82        56.59657
688.24        56.58385
688.66        56.57127
689.09        56.77575
689.51        56.76093
689.94        56.88692
690.36        57.00127
690.78        57.06221
691.21        57.06208
691.63         56.9881
692.06        56.88958
692.48        56.86748
692.90        56.92113
693.33         56.9455
693.75        56.94851
694.17         56.9575
694.60        56.94976
695.02        57.07321
695.44        57.05991
695.87        56.93257
696.29        56.71215
696.71        56.67764
697.14        56.81791
697.56         57.0053
697.98        57.18438
698.41        57.05146
698.83        57.16137
699.25        57.02172
699.68        56.85196
700.10        56.75755
700.52        56.76671
700.94        56.84072
701.37        56.92284
701.79        56.97531
702.21        56.96332
702.64        56.91703
703.06        56.86236
703.48        56.84299
703.90        56.87377
704.33        56.93267
704.75         57.0089
705.17        57.06839
705.59        57.10115
706.01          57.115
706.44        57.12156
706.86        57.15524
707.28        57.20985
707.70        57.27424
708.12        57.33641
708.55        57.36944
708.97        57.36124
709.39        57.33091
709.81        57.28543
710.23        57.24095
710.66        57.20863
711.08         57.1952
711.50        57.19242
711.92        57.20161
712.34         57.2223
712.76        57.25401
713.19        57.28664
713.61        57.34476
714.03        57.40524
714.45        57.47516
714.87        57.55061
715.29        57.58819
715.71        57.57737
716.13        57.67482
716.56         57.6018
716.98        57.62271
717.40        57.64631
717.82        57.67431
718.24        57.69657
718.66        57.70024
719.08        57.68721
719.50        57.66397
719.92        57.64173
720.34        57.63546
720.76         57.6491
721.19        57.66814
721.61        57.70713
722.03        57.76232
722.45        57.83011
722.87        57.91058
723.29         57.9853
723.71        58.02443
724.13        58.02303
724.55        57.98654
724.97        57.94579
725.39        57.95369
725.81        58.02053
726.23        58.12843
726.65        58.23899
727.07        58.29665
727.49         58.2891
727.91        58.22041
728.33        58.12348
728.75        58.09193
729.17        58.12639
729.59        58.12363
730.01        58.08998
730.43        58.11423
730.85         58.1946
731.27        58.26399
731.69        58.31512
732.10        58.32509
732.52        58.45703
732.94        58.31672
733.36         58.0287
733.78        57.89942
734.20        57.96461
734.62        58.05338
735.04        58.13171
735.46        58.21411
735.88        58.29027
736.30         58.3716
736.72        58.42402
737.13        58.44407
737.55         58.4052
737.97        58.20293
738.39        57.95547
738.81        58.14394
739.23        58.67125
739.65        58.79861
740.06         58.4888
740.48        58.39123
740.90        58.48368
741.32        58.40643
741.74        58.19222
742.16        58.10195
742.57        58.17691
742.99        58.32648
743.41        58.50376
743.83        58.61636
744.25        58.63643
744.67        58.58965
745.08        58.53872
745.50        58.54367
745.92        58.63512
746.34        58.79179
746.75        58.94127
747.17        58.96578
747.59        58.84645
748.01        58.59272
748.42        58.31873
748.84        58.23809
749.26        58.35865
749.68        58.55386
750.09        58.72392
750.51        58.69469
750.93        58.50733
751.35        58.46363
751.76        58.57788
752.18        58.61264
752.60        58.56861
753.01        58.62296
753.43        58.73155
753.85          58.762
754.27         58.6959
754.68        58.65428
755.10        58.52976
755.52         58.4975
755.93        58.52578
756.35          58.609
756.77        58.71883
757.18        58.77399
757.60        58.75527
758.02        58.73706
758.43        58.79942
758.85        58.58943
759.26        59.04366
759.68        59.09116
760.10        58.68941
760.51         58.4497
760.93        58.98359
761.34        59.02262
761.76        59.15662
762.18        59.19865
762.59        59.24016
763.01        59.41273
763.42        58.93187
763.84        59.02665
764.26        59.05789
764.67        59.19492
765.09        59.28846
765.50        59.46878
765.92        59.67089
766.33        59.54506
766.75        59.17216
767.16        59.06584
767.58        59.21965
768.00         59.5494
768.41        59.92212
768.83        59.74258
769.24        59.09651
769.66        59.24915
770.07        59.19451
770.49        59.35875
770.90        59.39029
771.32        59.34954
771.73        59.27356
772.15        59.31059
772.56        59.48421
772.97        59.65189
773.39        59.74678
773.80        59.81005
774.22         59.8005
774.63        59.72828
775.05        59.61205
775.46        59.53401
775.88        59.49806
776.29        59.51281
776.70        59.54688
777.12        59.55698
777.53        59.54943
777.95         59.5329
778.36        59.52803
778.77        59.55995
779.19        59.63234
779.60        59.73704
780.02        59.85127
780.43        59.96574
780.84        60.07205
781.26        60.13544
781.67         60.1865
782.09        60.26871
782.50        60.35303
782.91        60.34915
783.33        60.25518
783.74        60.22658
784.15        60.24527
784.57        60.25761
784.98        60.26307
785.39        60.26184
785.81        60.25243
786.22        60.23326
786.63         60.2242
787.04        60.25835
787.46        60.35079
787.87        60.46868
788.28         60.5887
788.70        60.66652
789.11        60.67233
789.52        60.62567
789.93        60.56719
790.35        60.55331
790.76         60.6132
791.17        60.73878
791.58        60.87513
792.00        60.92338
792.41        60.89269
792.82        60.77833
793.23        60.69374
793.65        60.80233
794.06        61.10455
794.47        61.53923
794.88        62.00126
795.29        61.88464
795.71        62.09823
796.12         61.8636
796.53        61.53636
796.94         61.3732
797.35        61.39865
797.76        61.35221
798.18        61.21652
798.59        61.16708
799.00        61.19627
799.41        61.21192
799.82        61.19558
800.23        61.16628
800.64         61.1221
801.06        61.03489
801.47        60.96845
801.88        60.96193
802.29        61.02673
802.70        61.14822
803.11        61.29691
803.52         61.4182
803.93        61.49467
804.34        61.54034
804.75        61.56951
805.17        61.60592
805.58        61.68219
805.99         61.7475
806.40        61.80256
806.81        61.90537
807.22        62.02114
807.63        62.02772
808.04        61.94913
808.45        61.93301
808.86        61.99171
809.27        62.03951
809.68        62.07043
810.09        62.11224
810.50           62.16
810.91        62.20704
811.32         62.2349
811.73         62.2126
812.14         62.1363
812.55        62.01686
812.96        61.88791
813.37         61.8079
813.78        61.79313
814.19        61.82718
814.60        61.88027
815.01        61.90284
815.42        61.88239
815.83        61.83731
816.24        61.78123
816.65         61.7395
817.05        61.73156
817.46        61.72458
817.87        61.75148
818.28        61.82483
818.69        61.94487
819.10         62.1086
819.51        62.29482
819.92        62.46044
820.33         62.5825
820.74        62.65681
821.14         62.6918
821.55        62.72859
821.96        62.76444
822.37        62.79092
822.78        62.78167
823.19        62.69423
823.60        62.52386
824.00        62.30309
824.41        62.05744
824.82          61.884
825.23         61.8137
825.64        61.84156
826.04         61.9343
826.45        61.99592
826.86        62.01595
827.27        62.01061
827.68        62.03686
828.08        62.21415
828.49        62.48533
828.90        62.84718
829.31        63.21177
829.72        63.34093
830.12        63.19478
830.53        63.24127
830.94        62.76265
831.35        62.47538
831.75        62.21358
832.16        61.95702
832.57         61.7903
832.97        61.84198
833.38        62.11626
833.79        62.56695
834.20        63.05291
834.60        63.35872
835.01        63.43221
835.42        63.32281
835.82        63.13929
836.23        63.03838
836.64        63.08638
837.04        63.24109
837.45        63.41257
837.86        63.51066
838.26        63.51965
838.67         63.4738
839.08        63.41792
839.48        63.40168
839.89        63.43834
840.29        63.50421
840.70        63.61207
841.11        63.78331
841.51        64.01921
841.92        64.27103
842.33        64.48712
842.73        64.58004
843.14        64.48698
843.54        64.26875
843.95        63.97373
844.35        63.70673
844.76        63.50341
845.17        63.35154
845.57        63.27463
845.98        63.26984
846.38        63.35596
846.79        63.51299
847.19        63.72125
847.60        63.86683
848.00        63.95407
848.41        63.96697
848.81        63.98149
849.22        64.07169
849.62        64.28381
850.03        64.53939
850.43        64.80154
850.84        64.91542
851.24        64.89556
851.65         64.7257
852.05        64.50468
852.46         64.3179
852.86        64.21353
853.27         64.2177
853.67          64.221
854.07        64.19862
854.48        64.10876
854.88        63.97608
855.29        63.83905
855.69           63.92
856.10         64.1631
856.50         64.5865
856.90        64.94757
857.31        64.88931
857.71        64.39816
858.12        63.54774
858.52         62.6121
858.92        62.00237
859.33        61.84014
859.73          62.049
860.13        62.48608
860.54         62.8977
860.94        63.23325
861.34        63.52077
861.75        63.69271
862.15        63.71481
862.55        63.55377
862.96        63.18581
863.36        62.74547
863.76        62.42152
864.17        62.27329
864.57        62.31315
864.97        62.41405
865.38        62.32812
865.78        62.03719
866.18          61.596
866.58        61.23497
866.99        61.32896
867.39        61.96673
867.79        62.96561
868.19        63.97231
868.60        64.42267
869.00        64.30063
869.40        63.94983
869.80        63.50613
870.21        63.03188
870.61         62.7005
871.01        62.55384
871.41        62.54304
871.81        62.50413
872.22         62.4185
872.62        62.35066
873.02        62.30136
873.42        62.43795
873.82        62.56801
874.22        62.13829
874.63        61.45576
875.03        61.15904
875.43        61.34335
875.83        62.75507
876.23        62.41254
876.63        61.87811
877.03        60.83886
877.44        58.69118
877.84        173.5298
878.24        59.89079
878.64        60.82535
879.04        62.52858
879.44        63.11686
879.84        59.56949
880.24        64.67443
880.64        64.65347
881.04          61.875
881.44        59.79644
881.84        59.08578
882.24        59.83107
882.65        61.29076
883.05        61.83704
883.45        61.14522
883.85        60.17168
884.25         59.3825
884.65        59.08811
885.05        59.42116
885.45        60.17572
885.85        61.02352
886.25        61.53468
886.65        61.59832
887.05         61.3614
887.45        60.95833
887.85        60.60839
888.25        60.40964
888.65        60.29297
889.04        60.28153
889.44        60.42521
889.84        60.70231
890.24        61.09852
890.64        61.51482
891.04        61.79932
891.44        61.91899
891.84        61.90455
892.24        61.80832
892.64        61.73342
893.04        61.71698
893.44        61.73405
893.83        61.78321
894.23        61.82766
894.63        61.87578
895.03        61.95783
895.43         62.0723
895.83        62.20459
896.23        62.34703
896.63        62.47504
897.02        62.60313
897.42        62.82091
897.82        63.09683
898.22        63.39402
898.62        63.60471
899.01        63.56581
899.41        63.23286
899.81        62.69158
900.21        62.05999
900.61        61.53093
901.00        61.16883
901.40        61.00322
901.80        61.03709
902.20        61.10717
902.59        61.16167
902.99        61.53399
903.39        62.28662
903.79        61.75601
904.18        62.70042
904.58        62.84353
904.98        62.96376
905.38        62.93869
905.77        62.75998
906.17        62.47325
906.57        62.10169
906.96        61.78698
907.36        61.58046
907.76         61.4967
908.15        61.54383
908.55        61.58525
908.95        61.63488
909.34        61.65001
909.74        61.75346
910.14        62.09626
910.53        62.66486
910.93        63.38202
911.33        63.93132
911.72        63.81877
912.12         63.0033
912.52        61.68741
912.91        60.30181
913.31          59.606
913.70        59.75459
914.10        60.52202
914.49         61.6034
914.89        62.38097
915.29        62.66405
915.68         62.6104
916.08        62.36007
916.47          62.089
916.87        61.91562
917.26        61.76886
917.66        61.67332
918.05        61.71189
918.45        61.87268
918.84         62.1533
919.24         62.5206
919.64        62.95427
920.03        63.41541
920.42        63.86714
920.82         64.1789
921.21        64.17435
921.61        63.86106
922.00        63.36208
922.40         62.9187
922.79        62.77744
923.19        62.62256
923.58         63.2981
923.98        65.04562
924.37        65.11219
924.77        62.00451
925.16        70.10902
925.55        63.45351
925.95        63.85291
926.34        63.91297
926.74         63.4215
927.13        62.25249
927.52        61.44106
927.92        61.45994
928.31        61.70007
928.70        62.15543
929.10        62.72729
929.49        63.37256
929.89        64.13268
930.28        64.76801
930.67        64.76358
931.07        64.05761
931.46        62.69654
931.85        61.21984
932.24         61.0239
932.64        62.34721
933.03        64.12393
933.42        65.34043
933.82        68.01878
934.21        66.42361
934.60        65.07057
934.99        63.62614
935.39         63.2261
935.78        63.94244
936.17        66.11985
936.56        72.80064
936.96        65.52338
937.35        69.38916
937.74        65.81087
938.13        63.16681
938.53        61.12679
938.92        60.51787
939.31        61.85336
939.70        63.69317
940.09        64.56922
940.49        64.16964
940.88        63.01867
941.27         61.6678
941.66        61.14362
942.05        61.78025
942.44          63.106
942.84        64.57555
943.23        65.56617
943.62        65.87864
944.01        65.71342
944.40        65.30892
944.79          65.049
945.18        65.06399
945.57        65.23186
945.97        65.33942
946.36        65.18033
946.75         64.6675
947.14        63.90459
947.53        63.14981
947.92        62.82214
948.31        63.01636
948.70        63.58556
949.09        64.20832
949.48         64.3886
949.87        64.02715
950.26        63.30502
950.65        62.47924
951.04        61.97143
951.43        61.91882
951.82        62.17536
952.21        62.65489
952.60        63.20825
952.99        63.71637
953.38        64.19244
953.77        64.53407
954.16        64.58539
954.55          64.346
954.94        63.87685
955.33        63.28377
955.72        62.79601
956.11        62.52411
956.50        62.41084
956.89        62.53068
957.28          62.971
957.66        63.71893
958.05        64.65872
958.44        65.50859
958.83        65.83513
959.22         65.5499
959.61        64.72276
960.00        63.66686
960.39        63.02402
960.78        63.01667
961.16        63.52046
961.55        64.09892
961.94        64.23457
962.33        63.82404
962.72        63.01064
963.11        62.13576
963.49         61.8878
963.88        62.45015
964.27        63.52981
964.66        64.64407
965.04        65.16078
965.43        64.90432
965.82         64.1405
966.21         63.1377
966.60          62.378
966.98        62.05727
967.37        62.01457
967.76        62.22046
968.15        62.62407
968.53        63.17111
968.92         63.8725
969.31        64.52739
969.69        64.77623
970.08        64.52231
970.47        63.83931
970.86        63.03286
971.24        62.67105
971.63        62.88415
972.02        63.50425
972.40        64.24144
972.79        64.56686
973.17        64.41895
973.56        63.96684
973.95        63.43026
974.33        63.19131
974.72        63.35992
975.11        63.76327
975.49        64.35568
975.88        64.99863
976.26        65.68136
976.65        66.38488
977.04        66.93697
977.42        67.03395
977.81        66.60027
978.19        65.64088
978.58        64.71815
978.96        64.79467
979.35        66.00188
979.74        67.90511
980.12        69.75286
980.51        70.43894
980.89        69.93553
981.28        68.45645
981.66        66.43869
982.05        65.05719
982.43        64.82136
982.82        65.48032
983.20        66.60143
983.59        67.46554
983.97        67.88847
984.35        68.03236
984.74        67.99576
985.12        68.01152
985.51        68.10759
985.89        68.24364
986.28         68.2584
986.66        68.01167
987.04        67.54568
987.43        66.83663
987.81        65.88406
988.20        66.29429
988.58        68.34307
988.96         68.9529
989.35        67.19992
989.73        73.66014
990.12         70.0215
990.50        70.30247
990.88        69.73426
991.27        69.17809
991.65        68.65168
992.03         68.2645
992.42        68.14771
992.80        67.90152
993.18        67.49528
993.56        67.12114
993.95        66.83475
994.33        66.64764
994.71        66.60821
995.10        66.67682
995.48         66.9503
995.86        67.59624
996.24        68.56326
996.63        69.62571
997.01         70.6575
997.39        71.27207
997.77        71.35519
998.15        71.03652
998.54         70.3698
998.92        69.32861
999.30        68.01785
999.68        66.46832
1000.06        65.03031
1000.45        64.36243
1000.83         64.7894
1001.21        66.13766
1001.59        67.95335
1001.97        69.51214
1002.35        70.55563
1002.73        71.17714
1003.12        71.55764
1003.50        72.04966
1003.88        72.72845
1004.26        73.53612
1004.64        74.23109
1005.02        74.34241
1005.40        73.70447
1005.78        72.41797
1006.16        71.02567
1006.54        70.39285
1006.92        70.74639
1007.30        71.93725
1007.69        73.19532
1008.07        73.46254
1008.45         72.5088
1008.83         70.5727
1009.21        68.61894
1009.59        68.62037
1009.97        70.88258
1010.35        74.30643
1010.73         77.5163
1011.11         79.3231
1011.49        79.71793
1011.86        78.84213
1012.24        76.75632
1012.62         77.1351
1013.00        77.46383
1013.38        77.17471
1013.76        74.73079
1014.14        79.08249
1014.52        85.56602
1014.90        77.87051
1015.28        79.45707
1015.66        80.95969
1016.04        77.06413
1016.41        76.81056
1016.79        75.39407
1017.17        75.01849
1017.55          75.144
1017.93        75.88148
1018.31        77.19746
1018.69        78.34558
1019.06        79.14913
1019.44        79.76811
1019.82        79.98748
1020.20        79.43848
1020.58        78.06808
1020.95        75.63287
1021.33        72.92413
1021.71         72.2282
1022.09         74.4121
1022.46        78.23853
1022.84        81.77405
1023.22        83.67098
1023.60         84.0624
1023.97        83.42936
1024.35        82.30559
1024.73         81.7525
