SpectraSmart Spectrum 2.9.0.0
--------- Device Information -----------
Spectrum Name :  反射率_0
Saving Time :  2024/04/21 00:35:44
Spectro-Module Model Name : SE2030-DUVN
Spectro-Module Serial Number : OS361AC55029948
Wavelength Start : 200
Wavelength End : 1025
Wavelength Unit : Wavelength(nm)
Spectrum Unit : Reflectance(%)
-----------Spectrum Setting ------------
Integration Time : 20ms
Average : 10
Boxcar : 0
Background removal :  enabled
linearity correction :  enabled
SC :  disabled
Intensity correction :  disabled
DWT denoise :  enabled
savitzky-golay :  disabled
FFT :  disabled
Running average :  disabled
Kalman :  disabled
High pass :  disabled
---------------BEGIN--------------------
Wavelength(nm)             Reflectance(%)
200.29               0
200.75       -146.5246
201.21       -65.42107
201.67       -17.99769
202.13        3.305955
202.58        10.44163
203.04        11.02448
203.50        6.802135
203.96       0.7326936
204.42       -5.007709
204.88       -12.35807
205.34       -19.16434
205.80       -22.98152
206.26       -22.92367
206.72       -14.55434
207.18       -2.945814
207.64       -3.440571
208.10       -20.79851
208.55       -51.61284
209.01       -68.70935
209.47       -41.45382
209.93      -0.4709263
210.39        32.47522
210.85        52.51527
211.31        58.70307
211.77        53.62611
212.23        36.77054
212.69        1.953354
213.14       -54.31621
213.60       -135.0259
214.06       -320.7658
214.52       -637.7778
214.98       -231.6938
215.44       -48.17001
215.90        6.923077
216.36        22.45102
216.81        19.19193
217.27       -3.676753
217.73       -112.6489
218.19        1185.996
218.65        490.1377
219.11       -1083.182
219.57       -51.39819
220.02        14.11206
220.48        25.84585
220.94        20.12469
221.40        -3.87212
221.86       -61.89463
222.32       -98.61829
222.77       -45.06055
223.23       0.9077103
223.69        24.21117
224.15        32.73808
224.61        33.85366
225.06        31.78666
225.52         27.5963
225.98        22.18593
226.44        16.44647
226.90        9.143742
227.36        4.114033
227.81        8.239934
228.27         18.0855
228.73        28.48982
229.19        35.29488
229.65        36.32847
230.10        32.50065
230.56        25.35182
231.02        16.09119
231.48        9.722857
231.93        9.973957
232.39        14.97579
232.85        20.83987
233.31        24.21059
233.77        25.19856
234.22        25.33021
234.68        24.69696
235.14        23.37596
235.60        21.82552
236.05        19.12057
236.51        15.73125
236.97        19.08917
237.43        29.95477
237.88         37.1344
238.34         36.0608
238.80        58.89141
239.26        47.43653
239.71        44.15515
240.17        33.80247
240.63        23.63928
241.08        18.90599
241.54        23.43676
242.00        36.33052
242.46         44.3944
242.91        44.11472
243.37        36.46822
243.83        23.58957
244.28        15.80334
244.74        19.73463
245.20        29.57242
245.66        39.04655
246.11        42.59629
246.57        39.39197
247.03          31.249
247.48        19.63943
247.94        6.876776
248.40       -9.303875
248.85       -44.18081
249.31       -154.8865
249.77       -293.0364
250.22       -143.9621
250.68       -66.14354
251.14       -36.71679
251.59       -24.82907
252.05       -18.93274
252.51       -13.53534
252.96       -8.335081
253.42       -4.010336
253.88       -1.335463
254.33       0.4983064
254.79        5.652978
255.25        15.77119
255.70        26.85961
256.16        35.80077
256.62        42.22227
257.07        46.21515
257.53        48.75043
257.99        50.41936
258.44        50.97576
258.90        50.71707
259.35         49.5387
259.81         48.0766
260.27        46.69891
260.72        45.88612
261.18         45.7769
261.63        45.82682
262.09        45.78885
262.55        45.08995
263.00        43.74288
263.46        42.20464
263.91          40.665
264.37        39.72903
264.83        39.35413
265.28         39.2497
265.74        39.28494
266.19         39.1435
266.65        38.79431
267.11        38.28862
267.56        37.57453
268.02        36.64785
268.47        35.50632
268.93         34.2146
269.38        32.88707
269.84        31.76634
270.30        30.90919
270.75        30.26887
271.21        29.80218
271.66        29.36246
272.12         28.9194
272.57        28.48049
273.03        28.05625
273.48        27.63245
273.94        27.21912
274.39        26.77215
274.85        26.30669
275.31        25.79429
275.76        25.23783
276.22        24.69488
276.67        24.17989
277.13        23.77383
277.58        23.45355
278.04        23.20922
278.49        22.99109
278.95        22.79527
279.40        22.56821
279.86        22.33862
280.31        22.04434
280.77        21.66714
281.22         21.1958
281.68        20.71516
282.13        20.24836
282.59        19.89646
283.04        19.65789
283.50        19.50762
283.95        19.46922
284.41        19.59695
284.86        19.85903
285.32        20.23664
285.77        20.56484
286.22        20.61593
286.68        20.38866
287.13        19.93034
287.59        19.48911
288.04        19.34197
288.50        19.51565
288.95        20.04078
289.41         20.7587
289.86        20.93166
290.32         20.4257
290.77        21.33254
291.22        20.40357
291.68        20.55096
292.13        20.83883
292.59        21.30348
293.04        21.89777
293.50        22.62739
293.95        23.49228
294.40        24.46666
294.86        25.52499
295.31        26.61101
295.77        27.70198
296.22        28.79032
296.68        29.88241
297.13        30.98832
297.58        32.13447
298.04        33.33096
298.49         34.6016
298.95        36.00076
299.40         37.5166
299.85        39.13461
300.31        40.81213
300.76         42.4612
301.21        44.06559
301.67        45.66642
302.12        47.26588
302.58        48.96735
303.03        50.76237
303.48        52.65955
303.94        54.63901
304.39        56.62234
304.84        58.58855
305.30        60.56259
305.75        62.50654
306.20        64.46413
306.66         66.4358
307.11        68.35676
307.57        70.22601
308.02        71.98082
308.47        73.62952
308.93        75.22208
309.38        76.73003
309.83        78.15206
310.29        79.57101
310.74        80.89988
311.19        82.16956
311.65        83.37994
312.10        84.51817
312.55         85.5963
313.00        86.61095
313.46        87.55912
313.91        88.42527
314.36        89.21571
314.82        89.95559
315.27        90.67841
315.72        91.39733
316.18        92.10622
316.63         92.7663
317.08        93.31715
317.53        93.74649
317.99        94.07288
318.44        94.34787
318.89        94.64015
319.35          94.969
319.80        95.32359
320.25        95.67419
320.70        95.97456
321.16        96.20546
321.61        96.40273
322.06        96.58246
322.51        96.77767
322.97        96.98366
323.42        97.21552
323.87        97.45626
324.32        97.69657
324.78        97.91393
325.23        98.15372
325.68        98.38223
326.13        98.57242
326.59        98.69878
327.04        98.81167
327.49        98.93719
327.94        99.15633
328.39        99.48196
328.85        99.86066
329.30        100.2729
329.75         100.558
330.20        100.6821
330.66        100.6532
331.11        100.6092
331.56        100.6555
332.01        100.8378
332.46        101.1211
332.92        101.4232
333.37        101.7361
333.82        101.9925
334.27        102.2232
334.72        102.4515
335.17        102.7102
335.63         102.987
336.08        103.3279
336.53        103.7028
336.98         104.112
337.43        104.5492
337.88        105.0042
338.34        105.4594
338.79        105.9389
339.24        106.4099
339.69        106.8643
340.14        107.2622
340.59        107.5518
341.05        107.7337
341.50        107.8364
341.95        107.9258
342.40        108.1141
342.85        108.4308
343.30        108.8475
343.75        109.2964
344.20        109.6689
344.66        109.9389
345.11        110.1127
345.56        110.2409
346.01        110.4027
346.46        110.6168
346.91        110.8472
347.36        111.0247
347.81        111.0843
348.26        111.0207
348.72         110.747
349.17        110.5627
349.62        110.4385
350.07        110.4689
350.52        110.5962
350.97        110.7149
351.42        110.6504
351.87         110.357
352.32        109.8948
352.77          109.35
353.22        108.8508
353.67        108.4339
354.13        108.0768
354.58        107.7147
355.03        107.2988
355.48        106.8201
355.93        106.3114
356.38        105.8057
356.83        105.3437
357.28        104.9235
357.73         104.511
358.18         104.077
358.63        103.5859
359.08        103.0264
359.53        102.4145
359.98        101.7411
360.43        100.9865
360.88        100.1557
361.33        99.25957
361.78        98.35087
362.23        97.51532
362.68        96.77635
363.13        96.11715
363.58        95.48225
364.03        94.77741
364.48        93.97661
364.93        93.10303
365.38        92.21025
365.83        91.38772
366.28        90.65683
366.73        89.98747
367.18        89.32651
367.63        88.59236
368.08        87.77199
368.53        86.90472
368.98        86.03337
369.43        85.21032
369.88        84.44629
370.33        83.71773
370.78        83.01596
371.23        82.34337
371.68        81.70255
372.13        81.09548
372.58        80.51318
373.03         79.9283
373.48        79.32201
373.93        78.69261
374.38        78.03323
374.83        77.34595
375.28        76.65151
375.72        75.95685
376.17        75.30196
376.62        74.68044
377.07        74.08253
377.52        73.49004
377.97         72.9306
378.42        72.46327
378.87        72.10094
379.32        71.83343
379.77         71.5684
380.22        71.15907
380.67          70.576
381.11        69.85754
381.56        69.11835
382.01        68.57711
382.46        68.29253
382.91        68.19727
383.36        68.15119
383.81        67.93623
384.26        67.49804
384.71        66.90507
385.15        66.25137
385.60         65.7403
386.05        65.39692
386.50        65.16318
386.95        64.95922
387.40        64.67017
387.85        64.27939
388.29        63.80267
388.74        63.38183
389.19        63.04161
389.64        62.78268
390.09        62.56517
390.54        62.35659
390.98        62.10192
391.43        61.82418
391.88        61.53552
392.33         61.2408
392.78        60.94411
393.23        60.65121
393.67          60.327
394.12        60.05222
394.57        59.80836
395.02        59.58184
395.47        59.34366
395.91        59.09762
396.36        58.83868
396.81        58.59389
397.26        58.39931
397.71        58.21479
398.15         57.9942
398.60        57.80185
399.05        57.44514
399.50        57.07265
399.95        57.20715
400.39         57.7015
400.84        57.76767
401.29        57.33537
401.74        56.79859
402.18        56.29102
402.63          55.911
403.08        55.68249
403.53        55.41825
403.97        55.13895
404.42        55.06851
404.87        55.16102
405.32        55.24759
405.76        55.28639
406.21        55.25192
406.66        55.15354
407.11        55.16589
407.55        55.21562
408.00        54.93071
408.45        54.37748
408.90        53.84795
409.34        53.50275
409.79        53.56268
410.24        53.88484
410.68        53.96762
411.13        53.75869
411.58        53.53805
412.03          53.381
412.47        53.30252
412.92        53.31466
413.37        53.41524
413.81        53.53837
414.26        53.63253
414.71        53.66522
415.15        53.66314
415.60        53.62717
416.05        53.60649
416.49         53.6135
416.94        53.61803
417.39         53.6033
417.83        53.54112
418.28        53.42778
418.73        53.27627
419.17        53.10445
419.62        52.95043
420.07        52.83635
420.51        52.75918
420.96        52.73161
421.41         52.7563
421.85        52.80505
422.30        52.82733
422.74         52.8291
423.19        53.05742
423.64        53.43316
424.08        53.60881
424.53        53.48856
424.98        53.39678
425.42        53.36666
425.87        53.05472
426.31        52.62582
426.76        52.73296
427.21        53.27903
427.65        53.45982
428.10        53.22665
428.54        53.20406
428.99        53.41316
429.44        53.48484
429.88        53.39058
430.33        53.31197
430.77         53.2409
431.22        53.23186
431.66         53.2609
432.11        53.40668
432.56        53.67508
433.00        53.54507
433.45        52.87372
433.89        52.98465
434.34        54.02117
434.78        52.56761
435.23        52.43864
435.67        53.69607
436.12        53.86131
436.57        54.12432
437.01        53.56723
437.46        53.30983
437.90        53.93773
438.35        53.75943
438.79        53.94024
439.24        53.85394
439.68        53.82145
440.13        53.74263
440.57        53.67156
441.02        53.82304
441.46        54.13774
441.91        54.30695
442.35        54.29454
442.80         54.6227
443.24        55.14217
443.69        55.17934
444.13         54.7616
444.58        54.45985
445.02        54.35276
445.47        54.41908
445.91        54.59155
446.36         54.6881
446.80        54.67534
447.24        54.63983
447.69        54.62255
448.13        54.77349
448.58        54.89428
449.02        54.84805
449.47        54.61164
449.91        54.44826
450.36        54.39219
450.80        54.22813
451.25        54.02565
451.69        54.02167
452.13        54.18467
452.58        54.22915
453.02        54.11745
453.47         54.0293
453.91        53.94283
454.36         53.7464
454.80        53.50447
455.24        53.30282
455.69        53.16127
456.13         53.2163
456.58        53.43774
457.02        52.97133
457.46        52.84096
457.91        52.67131
458.35        52.81333
458.79        52.78598
459.24        52.62456
459.68        52.53939
460.13         52.5637
460.57        52.44898
461.01        52.17659
461.46        52.27324
461.90        52.12722
462.34        51.72625
462.79        51.62605
463.23        51.58606
463.68         51.8392
464.12        51.60456
464.56        51.05552
465.01        51.12475
465.45        51.60376
465.89        51.63612
466.34        51.26068
466.78        50.96673
467.22        50.81773
467.67        50.90686
468.11        50.66739
468.55        50.67015
468.99        50.68421
469.44        50.59287
469.88        50.37578
470.32        50.06903
470.77        49.75701
471.21        49.55892
471.65        49.50583
472.10        49.56223
472.54        49.65408
472.98        49.68056
473.42        49.61747
473.87        49.50532
474.31        49.36464
474.75        49.31299
475.20        49.34554
475.64        49.35952
476.08        49.32781
476.52         49.3131
476.97        49.30184
477.41        49.26989
477.85        49.15963
478.29        49.23562
478.74        48.69622
479.18        48.85581
479.62        49.20014
480.06         49.3962
480.50        49.37352
480.95        49.28358
481.39        49.10874
481.83        49.54189
482.27        49.44825
482.72        49.46067
483.16        49.61246
483.60        49.75974
484.04        49.39557
484.48        49.07629
484.93          49.282
485.37        48.64603
485.81          49.424
486.25        49.10342
486.69         51.3009
487.14        51.35691
487.58        50.40008
488.02        49.44052
488.46        49.29527
488.90        49.08149
489.34        48.66122
489.79        48.11275
490.23        48.50761
490.67        48.63097
491.11        48.75208
491.55        48.72925
491.99        48.59806
492.43        48.54307
492.88        48.57435
493.32        48.58294
493.76        48.50703
494.20        48.46087
494.64        48.47808
495.08        48.05357
495.52        47.97293
495.96        48.07741
496.41        48.45224
496.85        48.44744
497.29        48.07019
497.73        47.99369
498.17         47.9719
498.61        48.03711
499.05        48.04995
499.49        47.83896
499.93        47.52769
500.37        47.56822
500.82        47.89443
501.26        48.14095
501.70        48.20238
502.14         47.8119
502.58        47.48125
503.02        47.28624
503.46        47.34616
503.90        47.47196
504.34        47.58249
504.78        47.66869
505.22        47.70858
505.66        47.66346
506.10        47.56784
506.54        47.56351
506.98        47.67745
507.42        47.40173
507.86        47.83916
508.30        47.40121
508.74        47.56535
509.18         47.3837
509.62        47.23553
510.06        47.15045
510.50        47.12509
510.94        47.08664
511.38        47.02253
511.82        46.99816
512.26        47.00668
512.70        47.01225
513.14        47.00126
513.58          46.967
514.02        46.90742
514.46        46.82362
514.90        46.71463
515.34        46.64247
515.78        46.62681
516.22        46.57448
516.66        46.35651
517.10        46.72422
517.54         46.4849
517.98        46.57259
518.42        46.62635
518.86        46.66217
519.30        46.67035
519.74        46.63325
520.18        46.57919
520.62        46.59716
521.06        46.65919
521.50         46.5905
521.93        46.42049
522.37        46.34406
522.81        46.37569
523.25        46.41373
523.69        46.42354
524.13        46.39305
524.57        46.31547
525.01        46.19913
525.45         46.0848
525.89        46.03691
526.32        46.06888
526.76         46.1638
527.20        46.28238
527.64        46.37026
528.08        46.40838
528.52        46.39369
528.96        46.35079
529.40        46.35238
529.83        46.38731
530.27        46.38093
530.71        46.32115
531.15        46.26785
531.59        46.22495
532.03        46.15437
532.46        46.08648
532.90         46.1016
533.34        46.19947
533.78        46.34989
534.22        46.49368
534.66        46.53994
535.09        46.46719
535.53         46.3273
535.97        46.16027
536.41        46.04291
536.85        45.99865
537.28        45.99911
537.72        46.03996
538.16        46.11376
538.60        46.20457
539.04        46.31537
539.47        46.39129
539.91        46.38564
540.35        46.28203
540.79        46.10297
541.22        45.90883
541.66        45.81106
542.10        45.83271
542.54        45.94067
542.97        46.07892
543.41        46.18289
543.85        46.22339
544.29        46.22612
544.72        46.20138
545.16        46.19764
545.60        46.21781
546.04        46.22335
546.47        46.21981
546.91         46.2757
547.35        46.36627
547.79         46.3678
548.22        46.27032
548.66        46.22667
549.10        46.22453
549.53        46.10171
549.97        45.90746
550.41        45.82727
550.84        45.88739
551.28        45.97727
551.72        46.04192
552.15        46.11306
552.59        46.20255
553.03        45.93942
553.46        46.00622
553.90         45.9328
554.34        45.91877
554.77        45.92842
555.21        45.97088
555.65        46.03855
556.08        46.10923
556.52        46.18431
556.96         46.2364
557.39        46.26865
557.83         46.2643
558.27        46.14212
558.70         45.9453
559.14        45.79795
559.57        45.72962
560.01        45.80052
560.45        45.94331
560.88        45.94991
561.32        45.87049
561.75        45.85248
562.19        45.93786
562.63        46.07824
563.06        46.20851
563.50        46.18837
563.93         46.0252
564.37          45.874
564.80        45.76695
565.24         45.7881
565.68        45.92637
566.11        45.93525
566.55          45.972
566.98        46.07476
567.42        46.28468
567.85         46.1681
568.29        46.16067
568.72        46.18331
569.16        46.38586
569.60        46.46876
570.03        46.65125
570.47        46.80562
570.90        46.94928
571.34        47.08343
571.77         47.4872
572.21        47.22269
572.64        47.53009
573.08        47.34856
573.51        46.89445
573.95        47.15428
574.38        47.22234
574.82        47.92502
575.25        47.79623
575.69        47.54007
576.12         47.0608
576.56        47.38889
576.99        47.38637
577.42        47.55411
577.86        47.68333
578.29        48.14817
578.73        48.58076
579.16        48.44161
579.60        47.23198
580.03        47.52169
580.47        47.68756
580.90        47.69036
581.33        47.74845
581.77         47.9921
582.20        48.72885
582.64        48.83527
583.07        48.43284
583.51        47.93704
583.94        47.67451
584.37        47.19065
584.81        46.84069
585.24        47.03328
585.68        47.94617
586.11        47.74274
586.54        47.83379
586.98        47.67818
587.41        47.31495
587.85        47.50826
588.28        47.82517
588.71        47.72359
589.15        47.30376
589.58        47.13284
590.01        46.92639
590.45        46.43345
590.88        46.92949
591.31        46.60485
591.75        46.48738
592.18         46.3372
592.61        46.32413
593.05        47.14436
593.48        47.47589
593.91         47.3712
594.35        47.45124
594.78        47.30523
595.21        46.70612
595.65        46.65689
596.08        46.92741
596.51        47.06441
596.94        46.62675
597.38        46.54714
597.81        46.76062
598.24        46.81798
598.68        46.77194
599.11        46.88569
599.54        47.11704
599.97        46.99217
600.41        46.94641
600.84        47.16787
601.27        46.99901
601.70        46.95596
602.14        46.91836
602.57        46.72569
603.00        46.44848
603.43          46.847
603.87        47.03036
604.30        47.21846
604.73        46.83378
605.16        46.57758
605.60        46.56532
606.03        46.70671
606.46        47.04884
606.89        46.69153
607.32        46.53352
607.76        46.84138
608.19        46.80862
608.62        46.48488
609.05        47.08152
609.48        46.42361
609.92        46.76127
610.35        46.54312
610.78        46.78696
611.21         46.8883
611.64        46.66067
612.07        46.50463
612.50        46.36576
612.94        46.26966
613.37        46.23822
613.80        46.32591
614.23        46.47091
614.66        46.39137
615.09         46.1329
615.52         46.1344
615.96        46.36139
616.39        46.33963
616.82        46.03506
617.25        46.07799
617.68        45.76975
618.11        45.80756
618.54        46.03477
618.97        46.10322
619.40        46.05695
619.84        45.84325
620.27         46.0113
620.70        46.00514
621.13        45.95847
621.56        45.76206
621.99        45.49384
622.42        45.50484
622.85        45.75604
623.28        45.83717
623.71         45.9119
624.14        45.92931
624.57        45.78026
625.00        46.06923
625.43        45.69558
625.86        45.73631
626.29        45.91578
626.72        45.55024
627.15         45.6817
627.58        45.65703
628.01         45.8238
628.44        45.51639
628.87         45.2855
629.30        45.61686
629.73        45.44234
630.16        45.31691
630.59         45.2761
631.02        45.49523
631.45        45.40333
631.88        45.45652
632.31          45.474
632.74        45.24625
633.17        45.25341
633.60        45.14388
634.03        45.07352
634.46        45.06186
634.89        45.03341
635.32        45.03778
635.75        45.04301
636.18        45.05713
636.61        45.07752
637.04        45.10086
637.47        45.12587
637.89        45.15544
638.32        45.17247
638.75        45.17292
639.18        45.15554
639.61        45.12024
640.04        45.08268
640.47        45.06885
640.90        45.08255
641.33        45.11694
641.76        45.14743
642.18          45.138
642.61        45.07209
643.04        44.97038
643.47        44.86347
643.90        44.80575
644.33        44.81222
644.76         44.8516
645.18        44.90648
645.61        44.97986
646.04        45.04444
646.47        45.02712
646.90        44.95422
647.33        44.94497
647.75        44.99935
648.18        45.06646
648.61        45.14477
649.04        45.16932
649.47        45.11592
649.89        45.32985
650.32        45.27871
650.75        45.16174
651.18        44.88627
651.61        44.75595
652.03        44.79242
652.46        44.79992
652.89         44.8259
653.32        44.96574
653.74        45.14574
654.17        45.45057
654.60        45.19312
655.03        44.91244
655.46          44.533
655.88        45.49851
656.31        47.65486
656.74        52.82616
657.16        51.98343
657.59        50.44442
658.02        47.29544
658.45         45.6189
658.87        45.30379
659.30        45.89648
659.73        44.95653
660.15        44.67324
660.58        45.47215
661.01        45.73635
661.44        45.66836
661.86        45.40041
662.29        45.04515
662.72        44.83695
663.14         44.8214
663.57        44.82076
664.00        44.81456
664.42        44.88121
664.85        45.00724
665.27        45.05317
665.70        45.14334
666.13        45.16506
666.55        45.15933
666.98        45.10483
667.41        45.01851
667.83        44.94442
668.26        44.90605
668.69        44.86066
669.11        44.80461
669.54         44.8909
669.96        45.15186
670.39        44.93755
670.82        45.31682
671.24        45.39141
671.67        45.45462
672.09        45.49689
672.52        45.53005
672.94        45.45785
673.37        45.31551
673.80        45.25983
674.22        45.29952
674.65        45.28428
675.07        45.22707
675.50        45.21423
675.92        45.24229
676.35        45.24502
676.77        45.21292
677.20        45.18904
677.62        45.21389
678.05        45.24146
678.47        45.25611
678.90        45.63363
679.32        45.64141
679.75         45.7789
680.17        45.82303
680.60         45.8092
681.02        45.75347
681.45        45.69375
681.87        45.65212
682.30        45.60965
682.72        45.59192
683.15         45.5949
683.57        45.58899
684.00        45.75109
684.42        45.58781
684.85        45.61181
685.27        45.66837
685.70        45.71422
686.12         45.7248
686.54        45.72196
686.97        45.70337
687.39        45.68299
687.82        45.67161
688.24        45.66537
688.66        45.65485
689.09        45.81387
689.51        45.79358
689.94        45.90122
690.36        46.00839
690.78        46.03654
691.21        46.00287
691.63        45.96162
692.06        45.95573
692.48        46.03831
692.90         46.1594
693.33        46.16271
693.75        46.04254
694.17        45.84856
694.60        45.63603
695.02         45.6282
695.44        45.64082
695.87        45.69545
696.29        45.72761
696.71        45.79882
697.14        45.92512
697.56        46.12149
697.98        46.28836
698.41        46.54176
698.83        46.31424
699.25        46.14792
699.68        45.94003
700.10        45.77618
700.52        45.68792
700.94        45.66828
701.37        45.70016
701.79        45.76673
702.21        45.83813
702.64         45.9222
703.06        46.00182
703.48        46.05427
703.90        46.07692
704.33        46.07048
704.75        46.04158
705.17        45.98962
705.59        45.92411
706.01        45.84685
706.44         45.7973
706.86        45.84919
707.28        46.00026
707.70        46.22382
708.12        46.45724
708.55        46.59944
708.97        46.62082
709.39        46.55294
709.81        46.43517
710.23        46.34366
710.66        46.30896
711.08         46.3207
711.50         46.3459
711.92        46.34338
712.34        46.30546
712.76        46.25011
713.19        46.20176
713.61        46.23225
714.03        46.33197
714.45        46.48318
714.87        46.64727
715.29        46.73633
715.71        46.72803
716.13         46.7682
716.56        46.64529
716.98        46.59899
717.40        46.56915
717.82        46.54964
718.24        46.54479
718.66         46.5655
719.08        46.61137
719.50        46.67836
719.92        46.74704
720.34        46.78249
720.76        46.77664
721.19        46.73308
721.61        46.68075
722.03        46.64551
722.45        46.64128
722.87        46.66668
723.29        46.71709
723.71        46.78409
724.13        46.86245
724.55        46.94637
724.97        47.04688
725.39        47.18248
725.81        47.34587
726.23        47.52179
726.65        47.66053
727.07        47.69416
727.49        47.61713
727.91        47.44027
728.33        47.22836
728.75         47.1396
729.17        47.18483
729.59        47.22019
730.01        47.24492
730.43        47.35677
730.85        47.54327
731.27        47.71638
731.69        47.83184
732.10        47.86567
732.52        47.92449
732.94        47.59898
733.36        47.08777
733.78        46.90225
734.20        47.11227
734.62        47.46817
735.04        47.82248
735.46        48.02837
735.88        48.03509
736.30        47.88783
736.72        47.65179
737.13         47.5255
737.55        47.52293
737.97        47.41084
738.39        47.24628
738.81        47.47823
739.23        47.98648
739.65        48.03576
740.06        47.63384
740.48        47.47813
740.90        47.56355
741.32        47.51379
741.74        47.34586
742.16        47.29255
742.57         47.3809
742.99        47.53109
743.41        47.69633
743.83        47.78579
744.25        47.77301
744.67        47.68334
745.08         47.5737
745.50        47.50411
745.92        47.50844
746.34        47.57456
746.75        47.64916
747.17        47.64022
747.59        47.53524
748.01        47.34419
748.42        47.16383
748.84        47.16477
749.26        47.34684
749.68        47.62312
750.09        47.89322
750.51        47.92973
750.93        47.78205
751.35        47.82377
751.76        48.03851
752.18         48.0744
752.60        47.92595
753.01        47.82806
753.43        47.76041
753.85        47.62718
754.27        47.43812
754.68        47.23043
755.10        47.07259
755.52        47.04189
755.93        47.15189
756.35        47.38097
756.77        47.66237
757.18         47.8552
757.60        47.90938
758.02        47.90421
758.43        47.93306
758.85        47.72385
759.26        48.06572
759.68        48.19939
760.10        47.74699
760.51        47.52939
760.93        48.04607
761.34        47.43507
761.76        47.90923
762.18         47.9286
762.59        48.04657
763.01        48.19822
763.42         47.7573
763.84         47.9395
764.26        47.99917
764.67        48.17706
765.09        48.26593
765.50        48.34258
765.92        48.38313
766.33        48.21037
766.75        47.88913
767.16        47.76841
767.58        47.84935
768.00        48.03563
768.41        48.26352
768.83        48.28933
769.24         48.0443
769.66          48.207
770.07        47.59798
770.49        47.63492
770.90         47.9015
771.32        47.94993
771.73        47.78469
772.15        47.79786
772.56        48.01059
772.97        48.18745
773.39         48.2573
773.80        48.27134
774.22        48.19563
774.63        48.04087
775.05        47.85431
775.46        47.75164
775.88        47.74566
776.29        47.82948
776.70         47.9464
777.12        48.00549
777.53        47.99444
777.95        47.94051
778.36         47.8722
778.77        47.83168
779.19        47.83613
779.60        47.87459
780.02        47.94207
780.43        48.06342
780.84        48.23298
781.26        48.38576
781.67        48.52708
782.09        48.71219
782.50        48.87287
782.91        48.82568
783.33        48.59655
783.74        48.47146
784.15        48.46495
784.57        48.44333
784.98        48.41545
785.39        48.42611
785.81        48.47028
786.22        48.53313
786.63        48.60011
787.04        48.64861
787.46        48.68074
787.87         48.6856
788.28        48.66935
788.70        48.63613
789.11        48.57481
789.52        48.49087
789.93        48.41628
790.35        48.39346
790.76        48.44503
791.17        48.57278
791.58        48.71986
792.00        48.78939
792.41        48.78679
792.82        48.68782
793.23        48.61154
793.65        48.79018
794.06        49.20286
794.47        49.65506
794.88        50.04866
795.29        49.98647
795.71        50.19928
796.12        49.99258
796.53        49.65088
796.94        49.44081
797.35        49.38056
797.76        49.19579
798.18        48.91317
798.59         48.7855
799.00        48.82208
799.41        48.90205
799.82        48.97314
800.23        49.00071
800.64        48.96263
801.06        48.84766
801.47        48.72775
801.88        48.66558
802.29         48.6854
802.70        48.77136
803.11        48.89603
803.52        49.00914
803.93        49.09097
804.34        49.15162
804.75        49.21754
805.17        49.31113
805.58        49.45247
805.99        49.64968
806.40        49.85098
806.81        49.87813
807.22        49.75723
807.63        49.72683
808.04        49.80279
808.45        49.81881
808.86        49.77336
809.27        49.77261
809.68        49.82168
810.09        49.86475
810.50        49.89567
810.91        49.94036
811.32        49.96229
811.73        49.89893
812.14        49.74533
812.55        49.51354
812.96        49.29223
813.37        49.23627
813.78        49.37495
814.19        49.65702
814.60        49.96222
815.01          50.104
815.42        50.03918
815.83        49.82149
816.24        49.54236
816.65        49.37769
817.05        49.39699
817.46        49.52483
817.87        49.72256
818.28        49.90118
818.69        50.03088
819.10         50.1417
819.51        50.23812
819.92        50.32103
820.33        50.38743
820.74        50.41718
821.14        50.41419
821.55        50.41484
821.96        50.41602
822.37        50.42056
822.78        50.40268
823.19        50.31511
823.60        50.15371
824.00        49.94439
824.41        49.73231
824.82        49.62958
825.23        49.66411
825.64        49.81647
826.04        50.02482
826.45        50.15403
826.86        50.18626
827.27        50.15721
827.68        50.13947
828.08        50.27532
828.49        50.52822
828.90        50.89006
829.31        51.30043
829.72        51.52987
830.12        51.52377
830.53        51.88206
830.94        51.56918
831.35         51.3773
831.75        51.03437
832.16        50.56735
832.57        50.12263
832.97        49.95249
833.38        50.10888
833.79        50.50897
834.20        50.99144
834.60        51.30392
835.01        51.37648
835.42        51.28276
835.82         51.1053
836.23        50.96362
836.64        50.91718
837.04        50.92512
837.45        50.96013
837.86        51.03437
838.26        51.14217
838.67        51.27639
839.08        51.39683
839.48         51.4159
839.89        51.31561
840.29        51.11919
840.70        50.89548
841.11        50.74953
841.51        50.72486
841.92        50.76618
842.33        50.84958
842.73        50.92818
843.14         50.9481
843.54         50.9595
843.95        50.95217
844.35        50.92345
844.76        50.87234
845.17        50.78558
845.57        50.72806
845.98        50.78202
846.38        50.98212
846.79        51.29466
847.19        51.62226
847.60        51.73565
848.00        51.62153
848.41        51.31378
848.81        51.02178
849.22        51.05933
849.62        51.51962
850.03        52.25346
850.43        53.04706
850.84        53.47808
851.24        53.48075
851.65        53.10878
852.05          52.578
852.46        52.21921
852.86        52.15454
853.27        52.33646
853.67         52.5447
854.07        52.57825
854.48        52.37282
854.88        52.00648
855.29        51.64688
855.69        51.70633
856.10        52.20003
856.50        53.06879
856.90        53.92666
857.31        54.17587
857.71        53.71585
858.12        52.68174
858.52        51.46579
858.92        50.70875
859.33        50.60615
859.73        51.01864
860.13        51.68456
860.54        52.15063
860.94        52.31443
861.34        52.27544
861.75        52.11869
862.15         52.0444
862.55         52.0766
862.96        52.10996
863.36        52.10875
863.76        51.99738
864.17        51.76417
864.57        51.48913
864.97        51.18631
865.38        50.84584
865.78        50.51802
866.18        50.20895
866.58        50.04875
866.99        50.22199
867.39        50.76211
867.79        51.57051
868.19        52.40218
868.60        52.81299
869.00        52.81932
869.40        52.76498
869.80        52.65395
870.21        52.23522
870.61        51.59911
871.01        50.95976
871.41        50.39225
871.81        49.86363
872.22        49.43325
872.62        49.12675
873.02        49.00676
873.42        49.40815
873.82        50.05762
874.22        50.17111
874.63        50.01015
875.03          50.143
875.43        50.59622
875.83        52.35487
876.23        51.70504
876.63        50.80482
877.03        49.30477
877.44        46.39809
877.84        195.6903
878.24        47.52145
878.64        48.36106
879.04        50.22469
879.44        50.74405
879.84        46.02393
880.24        53.12672
880.64        53.56503
881.04        50.48786
881.44        48.28922
881.84        47.70562
882.24        48.83977
882.65        50.71396
883.05        51.19767
883.45        49.91373
883.85        48.11528
884.25        46.52031
884.65        45.71817
885.05        45.94151
885.45        46.88314
885.85        48.08778
886.25        48.93424
886.65        49.24303
887.05         49.2261
887.45        48.97012
887.85        48.61512
888.25        48.25726
888.65        47.81815
889.04        47.48033
889.44        47.58195
889.84        48.14429
890.24        49.06554
890.64         50.0102
891.04        50.47026
891.44        50.34738
891.84        49.78197
892.24        49.04055
892.64        48.59924
893.04        48.60077
893.44        48.89915
893.83         49.3163
894.23        49.53487
894.63        49.50143
895.03        49.35779
895.43        49.20346
895.83        49.18229
896.23        49.33876
896.63        49.57201
897.02        49.88855
897.42        50.36395
897.82        50.94458
898.22        51.59416
898.62        52.11409
899.01        52.18501
899.41        51.73778
899.81        50.90043
900.21        49.91101
900.61        49.16922
901.00         48.7969
901.40        48.77154
901.80        49.01721
902.20        49.18887
902.59        49.17191
902.99        49.44387
903.39        50.14047
903.79        49.14344
904.18        50.16005
904.58         50.1693
904.98        50.17168
905.38        49.93998
905.77        49.47534
906.17        48.84393
906.57          48.194
906.96        47.88951
907.36        48.00806
907.76        48.47284
908.15        49.09753
908.55        49.42715
908.95        49.38552
909.34        49.04482
909.74        48.65886
910.14        48.59049
910.53        48.92072
910.93        49.51117
911.33        50.08792
911.72         50.2278
912.12        49.84757
912.52        49.09517
912.91        48.24774
913.31        47.81201
913.70        47.88143
914.10        48.31501
914.49         48.8622
914.89        49.03626
915.29        48.73264
915.68        48.09363
916.08        47.40268
916.47        47.04444
916.87        47.14956
917.26        47.58879
917.66        48.14404
918.05         48.4866
918.45        48.50823
918.84         48.3151
919.24        48.08684
919.64        48.16937
920.03        48.62497
920.42        49.29261
920.82        49.92762
921.21        50.16917
921.61        49.97288
922.00        49.55717
922.40        49.18278
922.79        49.05967
923.19         48.7457
923.58        49.41847
923.98        51.56311
924.37        51.57918
924.77        47.45961
925.16        58.98497
925.55        50.31512
925.95        51.18462
926.34        51.39462
926.74        50.70156
927.13         49.0307
927.52        47.95753
927.92        48.15714
928.31        48.75776
928.70        49.57268
929.10        50.23099
929.49        50.64664
929.89        50.96776
930.28        51.10547
930.67        50.81578
931.07        50.13049
931.46        48.97962
931.85        47.79182
932.24        47.91623
932.64        49.54802
933.03         51.4319
933.42        52.45686
933.82         55.8184
934.21        53.69604
934.60        52.19638
934.99        50.69989
935.39        50.48296
935.78        51.53226
936.17        54.39643
936.56        63.26677
936.96        53.26728
937.35        58.36858
937.74        53.36295
938.13        49.61506
938.53        46.68379
938.92        45.71648
939.31         47.4318
939.70        49.93546
940.09         51.3094
940.49        51.12185
940.88        50.04405
941.27        48.64835
941.66        47.98311
942.05        48.42394
942.44        49.47221
942.84        50.63372
943.23         51.4081
943.62        51.60934
944.01        51.41444
944.40        51.06647
944.79        50.93557
945.18        51.12921
945.57         51.5316
945.97        51.84391
946.36        51.72484
946.75        51.07527
947.14        50.04105
947.53        49.02113
947.92        48.68322
948.31        49.17856
948.70        50.26445
949.09        51.48485
949.48        52.14326
949.87        52.06733
950.26        51.47861
950.65        50.65339
951.04        50.04808
951.43        49.82906
951.82        49.85409
952.21        50.05342
952.60        50.31826
952.99        50.56769
953.38        50.82983
953.77        51.06505
954.16        51.19238
954.55        51.20869
954.94        51.15111
955.33        51.00067
955.72        50.75326
956.11        50.44753
956.50        50.08496
956.89        49.87388
957.28        50.13076
957.66        50.91153
958.05        52.02473
958.44        53.11186
958.83        53.62657
959.22        53.44349
959.61        52.66795
960.00        51.63427
960.39        51.00995
960.78        51.02969
961.16         51.5679
961.55        52.15083
961.94        52.24525
962.33        51.74562
962.72        50.79769
963.11        49.80832
963.49        49.57795
963.88        50.33606
964.27        51.74837
964.66        53.19282
965.04        53.84756
965.43        53.50221
965.82        52.45872
966.21        51.14683
966.60        50.33898
966.98        50.28783
967.37         50.7473
967.76        51.44825
968.15        51.94801
968.53        52.11594
968.92         52.1248
969.31          52.017
969.69        51.82826
970.08        51.58987
970.47        51.23093
970.86        50.97033
971.24        51.21407
971.63        51.97552
972.02        53.10997
972.40        54.19112
972.79        54.48105
973.17        53.91037
973.56        52.70174
973.95        51.29602
974.33        50.49997
974.72        50.57988
975.11        51.26591
975.49        52.33886
975.88        53.34486
976.26        54.17066
976.65        54.89465
977.04         55.4165
977.42        55.53902
977.81        55.22389
978.19        54.39977
978.58        53.64052
978.96        53.89489
979.35        55.25814
979.74        57.29421
980.12        59.21369
980.51        59.81991
980.89        59.08909
981.28         57.2471
981.66        54.76727
982.05        53.02571
982.43        52.59025
982.82        53.18967
983.20        54.32152
983.59        55.14971
983.97        55.45235
984.35        55.45499
984.74        55.24788
985.12        55.02441
985.51        54.85589
985.89        54.74154
986.28        54.64202
986.66        54.63634
987.04        54.79843
987.43        54.99633
987.81         54.9668
988.20        56.31683
988.58        59.16936
988.96         59.7282
989.35        56.95969
989.73        65.07365
990.12        59.99387
990.50        60.18918
990.88        59.31337
991.27        58.50316
991.65        57.75887
992.03        57.28366
992.42        57.23338
992.80        56.94436
993.18        56.36286
993.56        55.74126
993.95        55.21574
994.33        54.92516
994.71        54.95336
995.10        55.21332
995.48        55.73434
995.86        56.58287
996.24        57.68459
996.63        58.86196
997.01         60.0154
997.39        60.80545
997.77         61.1159
998.15         61.0062
998.54         60.5881
998.92        59.92743
999.30        59.15447
999.68        58.35584
1000.06        57.60838
1000.45        57.03328
1000.83        56.81612
1001.21        56.91565
1001.59        57.56784
1001.97        59.06026
1002.35        61.18584
1002.73        63.62501
1003.12        65.72276
1003.50        66.74377
1003.88        66.59587
1004.26        65.51833
1004.64        63.93561
1005.02        62.80862
1005.40        62.53698
1005.78        62.82399
1006.16        63.48335
1006.54        64.10809
1006.92        64.52641
1007.30        65.01966
1007.69        65.21722
1008.07        64.62807
1008.45        63.19865
1008.83        60.91086
1009.21        58.79528
1009.59        59.00869
1009.97        61.80709
1010.35          66.029
1010.73        69.92769
1011.11         71.9362
1011.49        72.05393
1011.86        70.33543
1012.24        67.08016
1012.62        67.89763
1013.00          69.227
1013.38        70.17725
1013.76        68.41717
1014.14         74.3649
1014.52        82.11662
1014.90        71.51857
1015.28        72.32186
1015.66        74.03535
1016.04        69.75787
1016.41        71.33887
1016.79        71.48285
1017.17        71.60448
1017.55        70.78735
1017.93        69.53918
1018.31        68.60473
1018.69        68.47936
1019.06        69.40372
1019.44        71.10938
1019.82        72.70616
1020.20        72.98576
1020.58        71.70031
1020.95        68.75402
1021.33        65.24826
1021.71         64.3154
1022.09        67.15918
1022.46         72.0457
1022.84        76.39969
1023.22        78.43857
1023.60        78.32127
1023.97        76.68642
1024.35        74.36212
1024.73        73.02585
