SpectraSmart Spectrum 2.9.0.0
--------- Device Information -----------
Spectrum Name :  光譜_0
Saving Time :  2024/04/20 23:42:37
Spectro-Module Model Name : SE2030-DUVN
Spectro-Module Serial Number : OS361AC55029948
Wavelength Start : 200
Wavelength End : 1025
Wavelength Unit : Wavelength(nm)
Spectrum Unit : Intensity(Counts)
-----------Spectrum Setting ------------
Integration Time : 1ms
Average : 10
Boxcar : 0
Background removal :  enabled
linearity correction :  enabled
SC :  disabled
Intensity correction :  disabled
DWT denoise :  enabled
savitzky-golay :  disabled
FFT :  disabled
Running average :  disabled
Kalman :  disabled
High pass :  disabled
---------------BEGIN--------------------
Wavelength(nm)          Intensity(Counts)
200.29       -17.94565
200.75       -19.31867
201.21       -20.61526
201.67       -21.41932
202.13       -21.02642
202.58       -19.41153
203.04       -16.78403
203.50       -13.99406
203.96       -12.43377
204.42       -12.50483
204.88       -13.93803
205.34       -15.97985
205.80       -17.39766
206.26       -17.73524
206.72       -17.05653
207.18        -16.0501
207.64       -15.86368
208.10       -16.62382
208.55       -17.99861
209.01       -18.56867
209.47       -16.08307
209.93       -10.44048
210.39       -2.773849
210.85        4.567208
211.31        7.923489
211.77        6.440712
212.23        1.382439
212.69        -5.53435
213.14       -11.48453
213.60       -15.37723
214.06       -17.89992
214.52       -19.05133
214.98       -18.94769
215.44        -17.8098
215.90       -15.36262
216.36       -12.48482
216.81       -10.76259
217.27       -10.52111
217.73       -11.52311
218.19       -12.61319
218.65       -11.76491
219.11       -8.584171
219.57       -3.740876
220.02        1.470268
220.48        4.971439
220.94        6.292719
221.40        6.182864
221.86        5.744438
222.32        6.724308
222.77        9.609027
223.23        13.78484
223.69        18.68075
224.15        23.37989
224.61        27.58794
225.06        31.74271
225.52        35.83222
225.98        39.78859
226.44        43.70152
226.90        47.45694
227.36        51.67003
227.81         57.3745
228.27        64.67656
228.73        73.28314
229.19        82.01484
229.65        88.96992
230.10        93.70837
230.56        96.67146
231.02        99.13825
231.48        103.2222
231.93        109.3227
232.39        116.6412
232.85        123.6511
233.31        128.0164
233.77        129.0158
234.22        127.1256
234.68        123.5349
235.14        120.2017
235.60        117.5872
236.05        115.1371
236.51        111.5125
236.97        104.5989
237.43        94.17063
237.88        81.27428
238.34        67.86938
238.80        56.90952
239.26        49.23932
239.71        44.13515
240.17          40.238
240.63        35.25238
241.08        28.58795
241.54        21.07876
242.00        13.71634
242.46        8.013382
242.91        4.428572
243.37        2.412062
243.83        1.407063
244.28       0.6174538
244.74      -0.2723251
245.20       -1.077303
245.66       -1.555542
246.11       -1.348833
246.57      -0.4330055
247.03       0.9611634
247.48        2.367891
247.94        3.137912
248.40        3.145207
248.85        2.589016
249.31        2.045073
249.77        2.432078
250.22        3.967118
250.68        6.400946
251.14        9.173762
251.59        11.37213
252.05        12.82153
252.51        13.90759
252.96        15.24881
253.42        17.78044
253.88        21.86972
254.33          27.431
254.79        34.22538
255.25         41.7998
255.70        50.18104
256.16        59.76801
256.62        71.16222
257.07        85.16483
257.53        102.0999
257.99        121.9564
258.44        144.3907
258.90        168.7513
259.35        194.9426
259.81        223.1874
260.27        254.0004
260.72        288.1873
261.18        325.6821
261.63        365.7768
262.09        407.4285
262.55        449.1768
263.00        490.1908
263.46        530.1591
263.91         568.874
264.37        606.3806
264.83        642.3068
265.28        675.9553
265.74        706.6959
266.19        733.8458
266.65        757.2009
267.11         777.053
267.56        793.6672
268.02        807.4425
268.47        818.9146
268.93        828.5624
269.38        837.1954
269.84        845.8554
270.30        855.1168
270.75        865.2375
271.21        876.3468
271.66        888.3254
272.12        901.2654
272.57        915.5044
273.03        931.1557
273.48        948.2424
273.94        966.9263
274.39        987.3654
274.85        1009.815
275.31         1034.66
275.76        1061.971
276.22        1091.556
276.67        1123.336
277.13        1157.152
277.58        1192.809
278.04        1230.223
278.49        1268.756
278.95        1307.532
279.40        1346.175
279.86        1384.399
280.31         1422.85
280.77        1462.793
281.22        1504.135
281.68        1546.179
282.13        1587.146
282.59         1624.27
283.04        1657.153
283.50        1686.976
283.95        1715.703
284.41        1746.457
284.86        1780.241
285.32        1816.208
285.77        1853.743
286.22        1891.688
286.68        1929.473
287.13        1967.533
287.59        2005.123
288.04        2041.002
288.50        2074.925
288.95        2106.786
289.41        2137.705
289.86        2169.864
290.32        2203.237
290.77         2236.46
291.22        2267.627
291.68         2293.81
292.13        2314.209
292.59        2330.033
293.04        2341.828
293.50        2350.471
293.95        2357.047
294.40        2361.889
294.86        2367.216
295.31         2376.42
295.77        2390.129
296.22        2407.573
296.68        2426.574
297.13        2443.166
297.58        2456.607
298.04         2468.79
298.49        2481.016
298.95        2495.354
299.40        2512.958
299.85        2533.167
300.31        2557.795
300.76        2589.691
301.21        2628.775
301.67        2674.037
302.12        2721.203
302.58        2763.354
303.03        2798.866
303.48        2829.436
303.94        2859.194
304.39        2895.083
304.84        2938.847
305.30        2988.286
305.75        3039.841
306.20          3087.9
306.66        3130.684
307.11        3169.499
307.57        3206.632
308.02        3245.831
308.47         3287.55
308.93        3329.741
309.38        3369.332
309.83        3401.855
310.29        3426.234
310.74        3444.119
311.19        3457.857
311.65        3471.126
312.10        3485.301
312.55        3499.562
313.00        3513.296
313.46        3525.418
313.91        3535.487
314.36        3543.985
314.82        3551.011
315.27        3556.507
315.72        3560.457
316.18         3562.81
316.63        3563.263
317.08         3561.46
317.53        3557.539
317.99        3551.808
318.44        3545.168
318.89        3539.032
319.35        3533.572
319.80        3528.114
320.25        3521.737
320.70        3512.965
321.16        3501.194
321.61        3486.743
322.06         3469.41
322.51        3448.992
322.97        3425.673
323.42        3399.511
323.87        3371.529
324.32         3343.43
324.78        3315.566
325.23        3287.558
325.68         3258.36
326.13        3226.127
326.59         3190.52
327.04        3152.359
327.49         3112.51
327.94        3072.347
328.39        3032.388
328.85        2992.197
329.30        2951.993
329.75        2912.073
330.20        2872.426
330.66        2833.318
331.11        2793.831
331.56        2752.346
332.01        2708.856
332.46        2664.097
332.92        2620.125
333.37        2580.169
333.82         2545.04
334.27        2513.951
334.72        2485.126
335.17        2455.577
335.63        2424.573
336.08        2393.158
336.53        2362.854
336.98        2336.011
337.43        2313.424
337.88        2294.551
338.34        2278.448
338.79        2263.642
339.24        2249.726
339.69        2237.071
340.14        2226.763
340.59        2220.473
341.05        2218.309
341.50        2219.447
341.95        2221.931
342.40        2222.798
342.85        2221.382
343.30        2218.567
343.75        2216.293
344.20        2217.683
344.66        2223.598
345.11        2233.157
345.56        2244.739
346.01        2255.786
346.46        2265.416
346.91        2273.999
347.36        2282.713
347.81        2293.541
348.26        2306.593
348.72        2320.842
349.17        2334.112
349.62        2343.111
350.07        2347.372
350.52        2348.394
350.97        2348.645
351.42         2351.95
351.87        2359.574
352.32         2370.53
352.77        2383.801
353.22        2397.676
353.67        2411.201
354.13        2424.475
354.58        2437.231
355.03        2449.035
355.48        2459.748
355.93        2469.467
356.38        2477.752
356.83        2484.116
357.28        2488.944
357.73        2492.742
358.18        2497.577
358.63        2506.603
359.08        2520.277
359.53        2537.442
359.98         2555.53
360.43        2570.387
360.88        2580.694
361.33        2587.354
361.78        2591.685
362.23        2596.031
362.68        2601.152
363.13        2606.316
363.58         2611.01
364.03        2614.434
364.48         2616.56
364.93        2618.178
365.38        2619.772
365.83        2621.876
366.28        2624.609
366.73        2627.429
367.18        2630.396
367.63        2633.759
368.08        2637.046
368.53        2639.716
368.98        2640.198
369.43        2636.204
369.88        2627.297
370.33        2614.295
370.78        2599.076
371.23        2584.524
371.68        2572.165
372.13        2562.491
372.58        2554.888
373.03        2548.062
373.48        2541.925
373.93        2536.746
374.38        2535.502
374.83         2542.49
375.28        2558.194
375.72         2581.69
376.17        2606.578
376.62        2622.749
377.07        2628.431
377.52        2626.071
377.97        2624.931
378.42        2640.261
378.87        2674.351
379.32        2721.286
379.77        2769.399
380.22        2800.152
380.67        2809.126
381.11        2802.718
381.56        2789.535
382.01        2783.649
382.46        2789.557
382.91        2802.625
383.36        2821.208
383.81        2842.228
384.26        2864.694
384.71        2892.362
385.15        2921.377
385.60        2944.728
386.05        2962.124
386.50        2974.105
386.95        2992.327
387.40        3036.131
387.85        3107.495
388.29        3199.751
388.74        3294.182
389.19        3360.025
389.64          3392.2
390.09        3403.188
390.54         3410.76
390.98        3443.896
391.43        3509.581
391.88        3594.489
392.33         3693.29
392.78        3795.857
393.23        3893.341
393.67        3994.419
394.12        4081.006
394.57        4105.841
395.02        4077.165
395.47         4048.66
395.91        4038.804
396.36        4043.471
396.81        4070.587
397.26        4129.963
397.71        4221.277
398.15        4328.113
398.60        4440.072
399.05        4569.379
399.50        4684.008
399.95         4708.89
400.39        4651.812
400.84        4579.849
401.29        4519.067
401.74        4485.599
402.18        4478.504
402.63        4457.973
403.08        4426.826
403.53        4429.952
403.97        4464.213
404.42        4493.816
404.87        4515.571
405.32        4539.418
405.76         4562.44
406.21        4586.741
406.66        4598.405
407.11        4566.407
407.55        4498.564
408.00        4425.366
408.45         4371.07
408.90        4366.461
409.34        4406.504
409.79        4448.111
410.24        4470.879
410.68        4477.842
411.13        4461.932
411.58        4406.899
412.03        4336.917
412.47        4305.491
412.92        4322.114
413.37         4369.03
413.81        4422.269
414.26        4444.476
414.71        4425.864
415.15        4379.437
415.60        4323.843
416.05        4288.009
416.49        4280.372
416.94        4292.069
417.39        4312.233
417.83        4322.725
418.28        4320.733
418.73        4317.426
419.17        4319.274
419.62         4335.12
420.07        4366.437
420.51        4404.528
420.96        4454.845
421.41        4522.508
421.85        4602.753
422.30        4705.742
422.74         4799.34
423.19        4800.465
423.64        4715.653
424.08        4631.998
424.53        4576.994
424.98        4522.823
425.42        4478.156
425.87        4498.999
426.31        4554.654
426.76        4517.749
427.21         4409.52
427.65        4381.965
428.10        4439.997
428.54        4495.279
428.99        4545.116
429.44        4598.501
429.88        4667.643
430.33        4819.791
430.77        5008.066
431.22          5073.4
431.66         4996.87
432.11        4874.635
432.56            4735
433.00         4585.54
433.45        4501.448
433.89        4514.027
434.34        4554.166
434.78        4891.112
435.23        4854.637
435.67        4655.716
436.12        4700.214
436.57         4667.73
437.01        4715.924
437.46        4736.479
437.90         4693.51
438.35        4682.381
438.79        4749.723
439.24        4771.505
439.68        4760.395
440.13        4753.445
440.57        4773.719
441.02        4795.751
441.46        4838.604
441.91        5027.059
442.35         5293.35
442.80        5345.875
443.24        5213.449
443.69        5210.573
444.13        5344.089
444.58         5403.71
445.02         5383.02
445.47        5382.583
445.91        5410.979
446.36        5443.606
446.80         5479.86
447.24        5524.739
447.69        5569.953
448.13        5587.942
448.58        5597.796
449.02        5612.733
449.47        5641.469
449.91         5667.99
450.36          5692.7
450.80        5731.136
451.25        5777.556
451.69        5804.165
452.13        5814.328
452.58        5840.638
453.02        5878.999
453.47        5899.434
453.91        5901.194
454.36        5900.736
454.80        5911.397
455.24        5939.341
455.69        5986.685
456.13        6073.204
456.58        6182.039
457.02        6222.421
457.46        6243.021
457.91        6313.065
458.35        6428.179
458.79        6525.636
459.24        6598.637
459.68        6675.667
460.13        6745.729
460.57        6812.878
461.01        6884.009
461.46        6839.392
461.90        6844.617
462.34        6889.923
462.79        6796.105
463.23        6743.571
463.68        6700.439
464.12        6778.913
464.56        6961.802
465.01        7118.339
465.45        7231.646
465.89        7365.451
466.34        7482.249
466.78        7508.002
467.22        7465.144
467.67        7276.025
468.11         7249.48
468.55         7223.73
468.99        7262.394
469.44        7255.733
469.88        7200.195
470.32        7166.522
470.77        7161.086
471.21        7164.511
471.65        7177.853
472.10         7205.54
472.54        7250.152
472.98        7310.425
473.42        7381.653
473.87        7475.605
474.31        7577.804
474.75        7623.471
475.20        7628.233
475.64        7696.274
476.08        7811.664
476.52        7857.387
476.97        7828.111
477.41        7795.698
477.85        7791.813
478.29        7771.239
478.74        7869.329
479.18        7930.129
479.62        7930.521
480.06        7978.479
480.50        8043.182
480.95        8136.362
481.39        8255.997
481.83         8196.44
482.27        8168.862
482.72        8288.252
483.16        8236.732
483.60        8179.999
484.04        8137.637
484.48        8215.941
484.93        8274.552
485.37        8338.428
485.81        8600.534
486.25        8836.848
486.69        12088.94
487.14         13817.6
487.58        10038.74
488.02        8762.837
488.46        8732.535
488.90        8420.387
489.34        8161.999
489.79        8125.412
490.23        8153.902
490.67        8170.127
491.11        8115.254
491.55         8101.75
491.99        8120.852
492.43        8094.914
492.88        8034.618
493.32        8010.423
493.76        8025.088
494.20        8021.686
494.64        7993.459
495.08        8000.508
495.52        8034.316
495.96        7974.102
496.41        7856.133
496.85        7909.283
497.29        8085.619
497.73        8065.091
498.17        7903.716
498.61        7794.486
499.05        7781.813
499.49        7800.994
499.93        7829.715
500.37        7833.185
500.82        7807.873
501.26         7772.39
501.70        7743.063
502.14        7793.567
502.58        7842.995
503.02        7858.754
503.46        7822.604
503.90        7780.177
504.34        7744.069
504.78        7706.833
505.22        7670.502
505.66        7648.336
506.10        7642.615
506.54        7618.565
506.98        7566.826
507.42         7635.61
507.86        7572.463
508.30        7561.395
508.74        7544.276
509.18        7517.245
509.62        7488.849
510.06        7466.028
510.50        7455.313
510.94        7459.683
511.38        7473.296
511.82        7478.267
512.26        7471.241
512.70        7460.834
513.14        7448.051
513.58        7432.171
514.02        7414.882
514.46         7395.44
514.90        7378.184
515.34        7372.194
515.78        7379.415
516.22        7390.028
516.66        7412.058
517.10        7420.768
517.54        7417.631
517.98         7404.53
518.42        7391.602
518.86        7393.496
519.30        7412.616
519.74        7449.382
520.18        7489.347
520.62         7497.69
521.06        7476.125
521.50        7459.273
521.93        7457.398
522.37        7463.354
522.81        7480.479
523.25        7516.964
523.69        7564.613
524.13        7603.162
524.57        7628.038
525.01        7646.012
525.45        7659.223
525.89        7670.812
526.32        7683.544
526.76        7696.248
527.20        7713.221
527.64        7742.394
528.08        7784.151
528.52        7834.693
528.96        7888.167
529.40        7935.514
529.83        7973.288
530.27        8003.171
530.71        8026.065
531.15        8045.371
531.59        8064.275
532.03        8082.486
532.46        8107.402
532.90        8151.675
533.34        8215.966
533.78        8293.931
534.22        8376.552
534.66        8448.963
535.09        8505.864
535.53        8551.968
535.97        8585.438
536.41        8604.213
536.85        8611.528
537.28        8609.058
537.72        8611.553
538.16          8642.7
538.60        8706.357
539.04        8795.456
539.47        8892.332
539.91        8967.156
540.35        9012.428
540.79        9037.743
541.22        9054.294
541.66        9080.898
542.10        9123.584
542.54        9174.616
542.97        9232.752
543.41        9296.718
543.85        9362.885
544.29        9432.236
544.72        9496.374
545.16        9537.285
545.60         9554.09
546.04        9564.201
546.47        9578.587
546.91        9595.229
547.35        9632.203
547.79        9722.569
548.22        9848.423
548.66        9968.534
549.10        10050.58
549.53        10054.11
549.97        9999.901
550.41         9982.17
550.84        10012.17
551.28        10043.33
551.72        10079.11
552.15        10126.95
552.59        10181.61
553.03        10323.34
553.46        10390.24
553.90        10476.51
554.34        10532.06
554.77        10564.72
555.21        10590.72
555.65        10639.32
556.08        10717.23
556.52        10818.43
556.96           10923
557.39        10987.23
557.83        11012.79
558.27        11040.02
558.70         11082.9
559.14        11146.92
559.57        11237.17
560.01        11338.71
560.45        11456.71
560.88        11617.69
561.32        11796.84
561.75        11950.08
562.19        12059.19
562.63        12087.27
563.06        12074.75
563.50        12159.36
563.93        12334.55
564.37         12471.2
564.80        12553.47
565.24        12631.42
565.68        12709.38
566.11         12792.6
566.55        12887.94
566.98         12969.6
567.42        13050.33
567.85        13207.26
568.29        13427.85
568.72        13599.62
569.16        13744.61
569.60        14001.43
570.03        14276.88
570.47        14617.12
570.90        14990.89
571.34        15070.73
571.77        15214.36
572.21        15548.11
572.64        15708.64
573.08        15725.62
573.51        15203.06
573.95        15375.63
574.38        16295.08
574.82        16425.34
575.25        16691.23
575.69        16588.93
576.12         16425.3
576.56        15927.58
576.99        15647.71
577.42        16276.14
577.86        16750.91
578.29        16929.17
578.73        18123.44
579.16        17948.09
579.60        16548.09
580.03        15771.97
580.47        16036.36
580.90        16418.43
581.33        16456.39
581.77        16447.41
582.20         18145.7
582.64        19592.83
583.07         18655.2
583.51        17546.55
583.94        16097.82
584.37        15253.65
584.81        15243.24
585.24        15735.05
585.68        16246.41
586.11        16964.72
586.54        16939.45
586.98        16229.94
587.41        15351.99
587.85        15336.71
588.28        16085.19
588.71        15918.85
589.15        15125.75
589.58        14934.18
590.01        14517.54
590.45        14276.71
590.88        14296.86
591.31        14260.73
591.75        14062.05
592.18         13918.9
592.61        14025.85
593.05        14042.15
593.48         14822.8
593.91        15888.02
594.35        15633.68
594.78        15244.15
595.21        14645.05
595.65        14651.24
596.08        15207.86
596.51        15146.47
596.94        14667.12
597.38        14468.38
597.81        14573.86
598.24        14850.51
598.68        14991.99
599.11        14888.32
599.54         15336.2
599.97        16271.04
600.41        15955.31
600.84        15992.83
601.27        16135.86
601.70         15985.7
602.14        15845.85
602.57        15620.17
603.00        15466.56
603.43        15569.35
603.87        15686.91
604.30        15869.13
604.73         15878.2
605.16         15471.4
605.60        15089.21
606.03        15026.59
606.46        15253.99
606.89        15643.03
607.32        15355.85
607.76         14914.9
608.19        15151.12
608.62        15138.29
609.05        14790.84
609.48        14615.57
609.92        14610.04
610.35        14371.41
610.78         14520.7
611.21        14864.95
611.64        14446.95
612.07        14326.22
612.50        14201.82
612.94        14083.34
613.37         13970.5
613.80         13881.6
614.23        13827.11
614.66        13792.01
615.09        13779.94
615.52        13792.72
615.96        13793.13
616.39        13759.73
616.82        13694.67
617.25        13441.41
617.68        13279.57
618.11        13211.82
618.54        13232.88
618.97        13153.74
619.40        12983.92
619.84        12805.97
620.27        12761.56
620.70        12773.69
621.13        12824.53
621.56        12636.37
621.99        12280.75
622.42         12217.5
622.85        12439.55
623.28        12469.22
623.71        12354.96
624.14         12407.6
624.57        12412.12
625.00        12274.89
625.43        12361.27
625.86        12256.97
626.29        12089.59
626.72        12077.96
627.15        11957.08
627.58        11891.44
628.01        11780.72
628.44        11776.87
628.87        11742.59
629.30        11586.69
629.73        11588.52
630.16        11580.79
630.59        11552.37
631.02        11471.82
631.45        11473.82
631.88        11416.64
632.31        11342.39
632.74        11312.67
633.17        11219.06
633.60        11168.84
634.03        11130.11
634.46        11092.85
634.89        11072.25
635.32        11050.18
635.75        11030.84
636.18        11013.74
636.61         10995.5
637.04        10970.16
637.47        10936.49
637.89         10895.2
638.32        10851.84
638.75        10816.37
639.18        10790.46
639.61        10770.74
640.04        10750.83
640.47        10720.14
640.90        10676.74
641.33        10625.74
641.76        10571.67
642.18        10521.68
642.61        10478.52
643.04        10439.24
643.47        10406.41
643.90        10383.99
644.33        10371.27
644.76        10367.88
645.18        10363.73
645.61        10342.25
646.04        10301.17
646.47        10245.63
646.90        10190.28
647.33        10159.58
647.75        10160.44
648.18           10181
648.61        10204.65
649.04        10220.69
649.47        10225.59
649.89        10158.97
650.32        10138.93
650.75        10103.01
651.18        10081.76
651.61        10043.49
652.03         9990.33
652.46        9951.317
652.89        9956.444
653.32        9964.445
653.74        9989.741
654.17        10097.94
654.60          9976.4
655.03        9712.116
655.46        9738.576
655.88        9906.504
656.31        10761.81
656.74        24190.23
657.16        37345.11
657.59        24014.42
658.02        12491.65
658.45        10199.44
658.87        9859.391
659.30        9868.902
659.73        9720.748
660.15        9619.086
660.58        9562.868
661.01        9532.193
661.44        9505.519
661.86        9521.934
662.29        9540.188
662.72        9501.971
663.14        9419.336
663.57        9390.926
664.00        9419.536
664.42        9434.645
664.85        9426.226
665.27        9428.628
665.70        9410.146
666.13        9398.265
666.55        9382.796
666.98        9352.463
667.41         9313.68
667.83        9284.836
668.26         9266.86
668.69        9265.006
669.11        9273.834
669.54        9252.789
669.96        9193.848
670.39        9231.554
670.82        9157.363
671.24        9174.092
671.67        9218.805
672.09        9282.583
672.52         9343.81
672.94        9385.206
673.37        9393.237
673.80        9344.438
674.22        9259.305
674.65        9198.327
675.07        9173.129
675.50        9158.927
675.92        9148.084
676.35        9136.225
676.77        9120.492
677.20        9104.933
677.62        9094.747
678.05        9096.407
678.47        9110.302
678.90        9131.497
679.32        9153.483
679.75        9167.403
680.17        9169.236
680.60         9160.35
681.02        9143.235
681.45        9119.769
681.87        9092.676
682.30         9071.14
682.72        9054.164
683.15        9024.074
683.57        8989.767
684.00         8986.88
684.42        9016.371
684.85        9048.381
685.27        9078.482
685.70        9121.283
686.12        9164.022
686.54        9178.686
686.97        9161.178
687.39        9116.416
687.82        9053.726
688.24        8999.216
688.66        8963.144
689.09        8902.492
689.51        8888.442
689.94        8864.266
690.36        8850.744
690.78        8842.283
691.21        8840.066
691.63        8853.992
692.06        8875.303
692.48        8877.858
692.90        8860.576
693.33        8840.753
693.75        8817.667
694.17        8788.596
694.60        8757.455
695.02        8698.426
695.44         8653.82
695.87        8639.113
696.29        8657.949
696.71        8638.115
697.14        8598.106
697.56        8638.499
697.98        8734.883
698.41        8811.317
698.83        8764.088
699.25        8733.224
699.68        8697.217
700.10        8641.512
700.52        8572.213
700.94        8496.887
701.37        8429.451
701.79        8389.835
702.21        8381.078
702.64        8395.415
703.06         8418.73
703.48        8426.788
703.90        8412.959
704.33        8386.713
704.75        8349.874
705.17        8306.524
705.59         8261.55
706.01        8211.929
706.44        8175.435
706.86        8181.094
707.28        8230.527
707.70        8313.596
708.12        8396.039
708.55        8422.726
708.97        8380.863
709.39        8285.538
709.81        8170.143
710.23        8089.541
710.66        8059.586
711.08        8066.593
711.50        8085.715
711.92        8076.245
712.34        8028.747
712.76         7957.77
713.19        7887.226
713.61        7854.184
714.03        7865.685
714.45        7903.572
714.87        7942.576
715.29        7949.684
715.71        7916.091
716.13        7833.662
716.56        7755.176
716.98        7673.819
717.40          7610.8
717.82        7559.261
718.24        7520.602
718.66        7496.208
719.08        7483.633
719.50        7482.973
719.92        7486.151
720.34        7479.077
720.76        7457.073
721.19        7421.599
721.61        7376.546
722.03        7329.802
722.45         7284.91
722.87        7241.469
723.29        7198.691
723.71        7155.059
724.13        7111.282
724.55        7068.941
724.97        7033.357
725.39        7012.145
725.81         7005.02
726.23        7007.717
726.65        7010.322
727.07        6997.172
727.49        6965.066
727.91        6919.983
728.33        6869.041
728.75        6824.269
729.17        6790.228
729.59         6762.69
730.01        6743.612
730.43        6737.381
730.85        6742.802
731.27        6756.055
731.69        6764.665
732.10        6764.625
732.52        6726.282
732.94        6675.172
733.36        6618.723
733.78        6582.299
734.20         6571.64
734.62        6580.416
735.04        6592.638
735.46        6581.036
735.88        6537.326
736.30         6469.91
736.72         6395.61
737.13        6327.728
737.55        6269.881
737.97        6256.386
738.39        6268.356
738.81        6179.577
739.23        6030.148
739.65        6045.404
740.06        6188.582
740.48         6208.24
740.90        6088.517
741.32        5965.898
741.74        5871.254
742.16         5796.12
742.57        5751.882
742.99        5740.115
743.41        5744.054
743.83        5736.105
744.25        5708.368
744.67        5668.113
745.08        5623.874
745.50        5590.297
745.92        5570.764
746.34        5558.028
746.75        5547.789
747.17         5533.93
747.59        5515.596
748.01        5499.991
748.42        5487.034
748.84        5472.771
749.26        5461.358
749.68         5454.97
750.09        5458.359
750.51        5488.671
750.93        5534.392
751.35        5552.563
751.76        5539.133
752.18        5526.137
752.60        5514.048
753.01        5480.354
753.43        5435.557
753.85         5408.93
754.27        5406.483
754.68        5422.781
755.10         5447.44
755.52        5463.325
755.93        5465.205
756.35        5455.524
756.77        5446.925
757.18         5463.03
757.60        5509.455
758.02        5573.252
758.43        5621.888
758.85        5665.779
759.26        5608.583
759.68        5525.147
760.10        5487.946
760.51        5499.512
760.93        5509.651
761.34        5547.965
761.76        5563.274
762.18        5518.437
762.59        5422.262
763.01        5287.095
763.42        5224.451
763.84        5183.613
764.26        5197.425
764.67        5262.897
765.09        5349.171
765.50        5408.421
765.92        5415.275
766.33        5351.725
766.75        5236.746
767.16        5141.702
767.58        5082.488
768.00        5015.858
768.41        4957.798
768.83        4962.891
769.24        5017.607
769.66        5079.278
770.07        5123.885
770.49        5106.991
770.90         5045.27
771.32        5036.618
771.73        5072.841
772.15        5052.897
772.56        4975.579
772.97        4905.753
773.39        4854.479
773.80        4807.053
774.22        4766.775
774.63        4740.582
775.05        4721.297
775.46        4694.858
775.88        4658.696
776.29        4616.515
776.70        4574.977
777.12        4546.179
777.53        4532.018
777.95        4525.887
778.36        4523.781
778.77        4520.257
779.19         4514.01
779.60        4508.196
780.02        4498.025
780.43         4483.26
780.84        4465.582
781.26        4422.686
781.67        4370.906
782.09        4389.364
782.50        4456.419
782.91        4446.851
783.33        4366.811
783.74        4330.059
784.15        4341.694
784.57         4336.03
784.98        4313.127
785.39        4304.687
785.81        4312.309
786.22        4327.386
786.63        4348.944
787.04        4375.375
787.46        4404.282
787.87        4434.837
788.28        4464.004
788.70        4487.026
789.11        4501.363
789.52        4506.453
789.93         4501.77
790.35        4486.676
790.76        4462.521
791.17        4433.326
791.58        4400.705
792.00        4362.651
792.41         4321.32
792.82        4288.949
793.23        4272.309
793.65        4258.257
794.06         4259.62
794.47        4322.595
794.88        4411.837
795.29        4459.158
795.71        4380.509
796.12        4286.685
796.53        4181.522
796.94        4082.711
797.35        4007.215
797.76        3967.965
798.18        3955.069
798.59         3933.69
799.00        3897.186
799.41        3861.942
799.82        3829.115
800.23        3794.327
800.64        3757.564
801.06        3717.465
801.47        3674.098
801.88         3629.77
802.29        3585.318
802.70        3540.768
803.11         3497.44
803.52        3456.893
803.93        3420.491
804.34        3389.246
804.75         3361.74
805.17        3337.821
805.58        3317.109
805.99        3290.951
806.40        3263.295
806.81        3258.327
807.22        3267.291
807.63        3247.981
808.04            3200
808.45        3158.313
808.86         3124.24
809.27        3076.377
809.68        3019.565
810.09         2971.94
810.50        2936.489
810.91         2910.33
811.32        2887.468
811.73        2857.679
812.14        2818.833
812.55        2773.531
812.96        2731.534
813.37         2708.04
813.78        2705.013
814.19        2716.931
814.60        2728.133
815.01        2714.164
815.42        2669.854
815.83        2602.584
816.24        2529.652
816.65        2478.852
817.05        2457.318
817.46        2457.329
817.87        2463.661
818.28        2451.628
818.69        2415.313
819.10        2363.025
819.51         2308.47
819.92        2273.147
820.33        2261.844
820.74        2266.133
821.14        2274.086
821.55        2267.341
821.96        2241.002
822.37        2201.962
822.78        2157.357
823.19        2118.205
823.60        2088.566
824.00        2064.616
824.41        2045.684
824.82        2031.035
825.23        2019.184
825.64        2010.552
826.04        2001.412
826.45        1985.271
826.86        1960.785
827.27        1929.297
827.68        1894.697
828.08        1863.947
828.49        1838.998
828.90        1817.987
829.31         1798.86
829.72        1777.963
830.12        1754.574
830.53        1731.007
830.94        1708.149
831.35        1686.924
831.75        1668.213
832.16        1651.561
832.57        1638.839
832.97        1633.229
833.38        1634.457
833.79        1640.666
834.20        1647.682
834.60        1648.975
835.01        1642.619
835.42        1630.191
835.82        1614.005
836.23        1598.115
836.64        1584.312
837.04        1571.965
837.45        1561.077
837.86        1551.577
838.26        1543.285
838.67        1536.257
839.08        1530.685
839.48        1526.546
839.89         1523.29
840.29        1520.474
840.70        1515.958
841.11        1506.576
841.51        1492.058
841.92        1473.691
842.33        1454.619
842.73        1439.917
843.14        1430.961
843.54        1426.323
843.95        1424.022
844.35        1420.678
844.76        1415.008
845.17         1407.88
845.57        1399.501
845.98         1390.21
846.38        1380.282
846.79        1369.363
847.19        1357.666
847.60        1345.995
848.00        1334.262
848.41        1321.838
848.81        1309.047
849.22        1296.093
849.62        1283.302
850.03        1272.058
850.43        1260.356
850.84        1244.659
851.24        1225.461
851.65        1204.166
852.05        1187.637
852.46        1186.847
852.86        1202.615
853.27         1229.74
853.67        1258.119
854.07        1271.864
854.48        1266.332
854.88        1245.896
855.29         1215.84
855.69        1185.243
856.10        1158.047
856.50        1132.299
856.90        1108.782
857.31        1088.624
857.71        1071.831
858.12        1059.113
858.52        1048.904
858.92        1037.682
859.33         1024.42
859.73         1009.75
860.13        994.2484
860.54        979.2144
860.94        965.2934
861.34        952.1049
861.75        940.1006
862.15        930.2161
862.55        922.3167
862.96        915.7366
863.36        909.9443
863.76        903.9003
864.17        897.2068
864.57        890.4991
864.97        882.3788
865.38        870.7973
865.78        855.7867
866.18        837.6736
866.58        820.7253
866.99        811.7467
867.39        811.7835
867.79        819.0261
868.19        826.8707
868.60        824.5678
869.00        810.0485
869.40        786.7228
869.80        762.1866
870.21        748.7393
870.61        749.1757
871.01        759.2861
871.41         772.468
871.81        778.1506
872.22        773.4139
872.62         761.924
873.02        747.4902
873.42        736.1006
873.82        729.8434
874.22        726.5042
874.63         725.389
875.03        725.6688
875.43        726.6055
875.83        728.8022
876.23        730.9789
876.63        730.6534
877.03        727.5718
877.44         722.483
877.84        717.0759
878.24        714.3972
878.64        715.0613
879.04        717.6225
879.44        721.3872
879.84         725.242
880.24        728.3469
880.64        731.1143
881.04        731.6411
881.44        726.8446
881.84        716.8135
882.24        702.9345
882.65        689.2152
883.05         682.105
883.45        683.1025
883.85        690.2307
884.25        700.2852
884.65        707.9053
885.05        711.1918
885.45        711.4572
885.85         709.469
886.25        706.6271
886.65        703.5696
887.05        699.6317
887.45         695.261
887.85        691.4118
888.25        688.4328
888.65        686.6494
889.04        685.6772
889.44        684.5209
889.84        683.1055
890.24         681.803
890.64        681.3845
891.04         683.131
891.44        687.0314
891.84        692.1591
892.24          697.53
892.64        701.6542
893.04        704.0427
893.44        705.3494
893.83        705.2492
894.23        703.2974
894.63        699.8569
895.03        695.0779
895.43        691.2074
895.83        691.8485
896.23        697.4244
896.63        706.7447
897.02        716.5103
897.42        721.2704
897.82        719.8669
898.22        714.2025
898.62        707.0033
899.01        702.7762
899.41        702.8591
899.81        705.5576
900.21         710.097
900.61        715.3004
901.00        720.2513
901.40        725.3461
901.80         729.082
902.20        728.8278
902.59        724.5916
902.99        717.6236
903.39        710.3565
903.79        706.8735
904.18        708.2275
904.58        712.8058
904.98        719.9437
905.38        728.4715
905.77        737.1378
906.17        745.9091
906.57        751.9175
906.96         750.722
907.36        741.8503
907.76        726.7759
908.15        709.8832
908.55        698.3175
908.95        694.2501
909.34        696.3232
909.74        701.5187
910.14        704.6024
910.53        704.0617
910.93        701.2652
911.33        698.6863
911.72        700.2308
912.12        706.4361
912.52        715.4655
912.91        723.8777
913.31        726.5314
913.70        722.4233
914.10        713.5139
914.49        703.2354
914.89        697.0122
915.29        696.3698
915.68        699.5877
916.08        704.6713
916.47        708.3886
916.87        709.5035
917.26         708.954
917.66        707.0162
918.05         704.054
918.45        700.4042
918.84        695.8952
919.24        690.8918
919.64          686.17
920.03        682.0663
920.42        678.6315
920.82         676.064
921.21        674.4769
921.61        673.7607
922.00         673.799
922.40        673.9968
922.79        673.4199
923.19         671.786
923.58        669.2429
923.98        666.2522
924.37        663.6049
924.77         661.636
925.16        660.3272
925.55        659.3323
925.95        658.1053
926.34         656.491
926.74         654.449
927.13        652.8043
927.52        652.8395
927.92        654.5925
928.31        657.6229
928.70        659.9222
929.10        658.3653
929.49         652.447
929.89        643.1414
930.28        633.2701
930.67        627.3495
931.07        626.4603
931.46        629.3889
931.85        633.3548
932.24        633.8149
932.64        629.6752
933.03        622.3549
933.42        614.4138
933.82         609.935
934.21        609.8403
934.60        612.6147
934.99         615.976
935.39        616.3752
935.78         612.921
936.17        606.9548
936.56        600.0406
936.96        594.6089
937.35         591.428
937.74        589.5805
938.13        588.5988
938.53        587.8076
938.92        586.7892
939.31        585.8433
939.70        584.4266
940.09        581.5524
940.49        577.1913
940.88        571.6693
941.27        565.9644
941.66        561.7621
942.05         559.427
942.44        558.3279
942.84        557.8421
943.23        556.9242
943.62        555.1116
944.01        552.7244
944.40        549.4027
944.79        544.5884
945.18        538.4006
945.57        531.0828
945.97        523.8011
946.36        518.4241
946.75        515.4541
947.14        514.5456
947.53        514.6146
947.92        513.8293
948.31        511.6197
948.70        508.3022
949.09        504.8546
949.48        502.8583
949.87        502.6138
950.26        503.6417
950.65        504.3907
951.04         502.494
951.43         497.534
951.82        490.2028
952.21        482.7476
952.60        478.7315
952.99        478.8329
953.38        481.9212
953.77        485.2477
954.16        484.4264
954.55        478.4601
954.94        468.7411
955.33        457.9606
955.72        450.4158
956.11        447.2579
956.50        447.2298
956.89        448.2438
957.28        446.9287
957.66        442.4983
958.05        436.2676
958.44        429.9661
958.83        426.2233
959.22        425.7071
959.61         427.323
960.00        429.8989
960.39        431.7191
960.78        432.0508
961.16        431.2455
961.55        429.4605
961.94        426.9664
962.33        423.9154
962.72        420.1995
963.11        415.8212
963.49        410.8685
963.88        405.5569
964.27         400.157
964.66        395.1527
965.04        391.1803
965.43        388.3517
965.82        386.4203
966.21        384.9825
966.60        383.3604
966.98        381.2632
967.37        378.8151
967.76        375.9052
968.15        372.4133
968.53        368.4322
968.92        364.0378
969.31        359.6872
969.69        356.1346
970.08        353.5639
970.47        351.7983
970.86        350.4888
971.24         349.001
971.63        347.1281
972.02        345.0327
972.40        342.7471
972.79        340.3848
973.17        337.9177
973.56        335.0875
973.95        332.0384
974.33         329.049
974.72        326.1536
975.11        323.4587
975.49        320.3298
975.88        315.7113
976.26         309.596
976.65        302.4008
977.04        295.6019
977.42        291.5314
977.81         290.581
978.19        291.9517
978.58          293.89
978.96        293.5483
979.35        290.2071
979.74        284.7623
980.12        278.4483
980.51        273.3138
980.89        269.9672
981.28        267.6416
981.66        265.9165
982.05        264.1599
982.43        262.0589
982.82        259.9673
983.20        257.5237
983.59        254.0323
983.97        249.5462
984.35        244.3335
984.74        239.3391
985.12        236.1318
985.51        235.0338
985.89        235.5132
986.28        236.7599
986.66        237.4229
987.04        237.0175
987.43        235.8851
987.81        234.1097
988.20        231.8925
988.58        229.3643
988.96        226.3389
989.35        223.1801
989.73        220.5459
990.12        218.5451
990.50        217.1071
990.88        215.6374
991.27        213.0806
991.65         209.313
992.03        204.7771
992.42        200.2508
992.80        196.9924
993.18         195.263
993.56        194.5148
993.95         194.277
994.33        193.7854
994.71        192.7257
995.10        191.4253
995.48         189.542
995.86        186.5266
996.24         182.477
996.63        177.5454
997.01        172.8997
997.39        170.4713
997.77        170.5206
998.15        172.3432
998.54        174.4661
998.92        174.4636
999.30        171.7393
999.68        167.1502
1000.06        161.5768
1000.45        156.4794
1000.83        152.4379
1001.21        148.9565
1001.59        146.2887
1001.97        144.8458
1002.35        144.4973
1002.73        145.1914
1003.12        145.8397
1003.50        144.5982
1003.88        141.1497
1004.26        136.0433
1004.64        130.5836
1005.02        126.9471
1005.40        125.6948
1005.78        126.1558
1006.16        127.4089
1006.54        127.9417
1006.92        127.2588
1007.30        125.8196
1007.69        123.9438
1008.07        122.1465
1008.45        120.5758
1008.83        118.9007
1009.21        117.0998
1009.59        115.2219
1009.97        113.2676
1010.35         111.397
1010.73        109.3649
1011.11        106.7053
1011.49        103.4406
1011.86        99.75156
1012.24        96.34827
1012.62        94.36077
1013.00        93.95419
1013.38        94.71407
1013.76        95.74601
1014.14        95.60531
1014.52        93.92278
1014.90        91.15355
1015.28        87.90597
1015.66        85.18957
1016.04        83.34065
1016.41        82.02464
1016.79        81.10146
1017.17        80.36211
1017.55        79.66753
1017.93        79.13065
1018.31        78.57011
1018.69        77.62821
1019.06        76.29453
1019.44        74.71976
1019.82        73.19206
1020.20        72.19852
1020.58         71.8953
1020.95        72.13007
1021.33        72.84489
1021.71        73.94295
1022.09        75.25343
1022.46        76.66811
1022.84        77.89873
1023.22        78.50303
1023.60         78.3768
1023.97        77.66171
1024.35        76.45396
1024.73         74.9679
