SpectraSmart Spectrum 2.9.0.0
--------- Device Information -----------
Spectrum Name :  光譜_0
Saving Time :  2024/04/20 22:58:27
Spectro-Module Model Name : SE2030-DUVN
Spectro-Module Serial Number : OS361AC55029948
Wavelength Start : 200
Wavelength End : 1025
Wavelength Unit : Wavelength(nm)
Spectrum Unit : Intensity(Counts)
-----------Spectrum Setting ------------
Integration Time : 900ms
Average : 10
Boxcar : 0
Background removal :  enabled
linearity correction :  enabled
SC :  disabled
Intensity correction :  disabled
DWT denoise :  enabled
savitzky-golay :  disabled
FFT :  disabled
Running average :  disabled
Kalman :  disabled
High pass :  disabled
---------------BEGIN--------------------
Wavelength(nm)          Intensity(Counts)
200.29       -23.97013
200.75       -27.30065
201.21       -32.22778
201.67       -37.07978
202.13       -39.30072
202.58       -38.30169
203.04       -34.87735
203.50       -30.62124
203.96       -28.09704
204.42       -28.01431
204.88       -29.64765
205.34       -31.83176
205.80        -32.6715
206.26       -31.69217
206.72       -29.60132
207.18       -27.30675
207.64        -26.1839
208.10       -26.57717
208.55       -27.90723
209.01       -29.50748
209.47       -30.41938
209.93       -30.28444
210.39       -29.37323
210.85       -28.01534
211.31       -26.64893
211.77       -25.58102
212.23        -24.9557
212.69       -24.50168
213.14       -23.84948
213.60         -22.906
214.06       -21.47495
214.52       -20.72799
214.98       -22.46378
215.44       -26.78142
215.90       -33.25164
216.36       -38.89896
216.81       -39.04818
217.27       -32.96878
217.73       -21.99102
218.19       -10.67942
218.65       -6.359672
219.11       -10.58543
219.57       -21.28637
220.02       -33.32229
220.48       -38.31604
220.94       -34.44239
221.40       -24.46882
221.86         -13.346
222.32       -9.068986
222.77       -13.39734
223.23       -23.16477
223.69       -34.57574
224.15       -41.61835
224.61        -42.6129
225.06       -40.17599
225.52       -35.29203
225.98       -29.41983
226.44       -23.63875
226.90       -17.02181
227.36       -12.44137
227.81       -14.53665
228.27       -23.47618
228.73       -38.28877
229.19       -52.96852
229.65       -56.58738
230.10       -47.79431
230.56       -32.15149
231.02       -15.47981
231.48       -5.279312
231.93       -4.046906
232.39        -9.94493
232.85       -19.45585
233.31       -26.08406
233.77       -27.99951
234.22       -27.91684
234.68       -26.25233
235.14       -23.58885
235.60       -20.96594
236.05        -16.8328
236.51       -12.07391
236.97       -17.53092
237.43       -35.11987
237.88       -45.76692
238.34       -39.85748
238.80       -89.80074
239.26       -53.96038
239.71        -47.1145
240.17       -32.82868
240.63       -22.90098
241.08       -18.98777
241.54       -20.27067
242.00        -25.3474
242.46       -27.96205
242.91       -26.95462
243.37       -24.22252
243.83       -21.19551
244.28       -19.99406
244.74       -21.06518
245.20       -23.09533
245.66       -25.07836
246.11       -25.74927
246.57       -24.68816
247.03       -22.57457
247.48       -19.49413
247.94        -15.4675
248.40       -10.87928
248.85        -5.85453
249.31       -1.558623
249.77       0.1363969
250.22      -0.9665903
250.68       -4.145363
251.14       -7.883366
251.59        -9.66388
252.05       -8.785115
252.51        -6.05349
252.96       -2.120938
253.42        1.890015
253.88        5.363132
254.33        8.572488
254.79        10.90785
255.25        11.34999
255.70         9.93542
256.16        7.091008
256.62        3.912477
257.07         2.28927
257.53        2.698136
257.99        4.463022
258.44        7.229821
258.90        10.32115
259.35        13.25794
259.81        16.24695
260.27        18.20464
260.72        17.42698
261.18        13.79119
261.63        7.772534
262.09        1.415794
262.55       -1.908108
263.00       -1.457106
263.46        1.845332
263.91        5.955974
264.37        7.467776
264.83        5.556429
265.28        1.391302
265.74        -3.38786
266.19       -6.202482
266.65       -6.251757
267.11       -4.348742
267.56       -1.395638
268.02        1.242629
268.47        3.033736
268.93         4.28506
269.38        5.419469
269.84        7.063101
270.30        9.271116
270.75        11.70386
271.21        13.55004
271.66        13.63477
272.12        11.84458
272.57        8.700024
273.03        5.384939
273.48        3.759168
273.94        4.244635
274.39        6.210851
274.85        8.711036
275.31        10.19626
275.76        10.16053
276.22        9.098057
276.67        7.318774
277.13        5.290363
277.58        3.362901
278.04        1.542045
278.49       0.1059817
278.95      -0.4867193
279.40      -0.1260964
279.86        1.026345
280.31        2.877601
280.77        5.275279
281.22        7.823653
281.68        10.14138
282.13        11.65096
282.59        11.48383
283.04        9.583769
283.50        6.624376
283.95        2.734622
284.41       -1.875289
284.86       -6.672809
285.32       -11.55532
285.77       -14.69546
286.22       -13.27743
286.68       -7.161632
287.13        2.407773
287.59        12.05815
288.04        17.17255
288.50        17.78481
288.95        11.26767
289.41       -1.126795
289.86       -3.413489
290.32        8.688971
290.77       -21.73151
291.22       0.6828213
291.68       -2.286356
292.13       -2.674455
292.59       -2.386868
293.04       -1.109185
293.50      -0.4876194
293.95       -1.541299
294.40       -3.038194
294.86       -4.809377
295.31       -6.238664
295.77       -7.059069
296.22       -7.569958
296.68       -7.447307
297.13       -6.223728
297.58       -4.007831
298.04      -0.9231411
298.49        1.775817
298.95         2.07608
299.40      -0.3338104
299.85       -4.828277
300.31       -9.601084
300.76       -11.78279
301.21       -10.58307
301.67       -6.658757
302.12       -1.801109
302.58        1.164549
303.03        1.284062
303.48       -1.197384
303.94       -4.408042
304.39       -5.284736
304.84       -3.392409
305.30       0.4257489
305.75        2.711558
306.20       -1.989887
306.66         -14.152
307.11       -31.41394
307.57        -48.4107
308.02       -56.16677
308.47       -52.42477
308.93       -40.93929
309.38       -26.73998
309.83       -11.42147
310.29        -7.95119
310.74        -6.25628
311.19       -6.661975
311.65       -4.255867
312.10        1.878714
312.55        9.909884
313.00         16.8825
313.46        18.19874
313.91        13.10842
314.36        3.612664
314.82       -6.742834
315.27        -12.6255
315.72       -12.49708
316.18       -7.756911
316.63       -1.003977
317.08        3.524733
317.53        4.544309
317.99        3.158405
318.44        1.259071
318.89          1.8368
319.35        5.506479
319.80        11.10585
320.25        16.38934
320.70        17.99856
321.16        15.29497
321.61         9.50864
322.06        3.230585
322.51       0.5151647
322.97        2.293023
323.42        7.217938
323.87        12.97689
324.32        15.85382
324.78        14.86734
325.23        11.31013
325.68        6.719373
326.13        3.500712
326.59        2.476768
327.04        2.875497
327.49        4.180019
327.94         5.63228
328.39        6.888002
328.85        8.243005
329.30        9.685994
329.75        11.08319
330.20        12.38032
330.66        13.45163
331.11        14.18999
331.56        14.58694
332.01        14.60394
332.46        14.17009
332.92        13.56134
333.37        13.14024
333.82        13.10567
334.27        13.69925
334.72        14.27914
335.17        13.83548
335.63        12.17019
336.08        9.188887
336.53         6.62665
336.98        7.277835
337.43        11.38214
337.88        18.13383
338.34        23.97258
338.79         23.2049
339.24        15.02486
339.69        1.526242
340.14        -12.3816
340.59       -18.91393
341.05       -16.13417
341.50       -6.349911
341.95        6.245591
342.40        14.86737
342.85        17.38205
343.30        15.43179
343.75        11.60906
344.20        10.18299
344.66        12.10557
345.11         15.6206
345.56        18.11073
346.01        16.06554
346.46        9.683421
346.91        -1.18894
347.36       -14.48293
347.81        -19.7582
348.26       -14.20229
348.72       -29.25756
349.17        -13.8374
349.62       -10.78228
350.07       -5.559476
350.52       0.9767269
350.97        7.344409
351.42        10.19044
351.87        8.536939
352.32        3.252957
352.77       -2.605213
353.22        -3.73136
353.67       0.8299286
354.13        9.500084
354.58        18.16445
355.03        20.08575
355.48        13.98316
355.93        2.410714
356.38       -10.39788
356.83       -17.77162
357.28       -17.81204
357.73       -12.62718
358.18       -4.733097
358.63        1.855661
359.08        5.598302
359.53        7.535921
359.98        8.266426
360.43        8.682878
360.88        9.128169
361.33        9.140129
361.78        8.399258
362.23        6.627861
362.68        4.063694
363.13        1.237149
363.58      -0.9199755
364.03       -1.019134
364.48       0.9500508
364.93        3.984629
365.38        7.349441
365.83        9.814218
366.28        10.91601
366.73        11.49669
367.18        10.25658
367.63        5.154573
368.08       -3.446962
368.53       -14.75453
368.98       -24.21606
369.43       -24.63125
369.88       -14.90334
370.33        2.585816
370.78        21.64059
371.23        32.30671
371.68        31.86704
372.13        22.73925
372.58        9.971467
373.03        1.950153
373.48       0.9656308
373.93        4.656733
374.38        8.875751
374.83        7.015612
375.28       -2.124144
375.72       -15.64095
376.17       -28.84241
376.62       -34.73505
377.07       -31.57921
377.52       -21.77457
377.97       -9.260456
378.42      -0.1615032
378.87        3.489865
379.32        3.084449
379.77       0.9465169
380.22       0.8834543
380.67         3.83746
381.11        8.493534
381.56        12.48741
382.01          12.254
382.46        7.352569
382.91      -0.4936918
383.36       -8.105381
383.81        -10.6764
384.26       -7.132143
384.71       0.7688796
385.15        10.34495
385.60        17.34491
386.05        20.26968
386.50        20.15666
386.95        17.90002
387.40         15.0241
387.85        12.22558
388.29        9.102477
388.74        5.688997
389.19        2.158584
389.64       -1.263066
390.09       -4.200992
390.54       -6.132805
390.98       -6.514642
391.43       -5.334834
391.88       -2.879333
392.33      0.05868058
392.78        2.235452
393.23        3.262549
393.67         3.37097
394.12        3.007457
394.57        2.984362
395.02        3.556098
395.47         4.43341
395.91        5.328267
396.36        5.898991
396.81        5.871526
397.26        5.098346
397.71        3.857818
398.15        2.498397
398.60        1.213133
399.05       0.4348257
399.50      -0.8570605
399.95        -4.35367
400.39       -9.923533
400.84       -16.96134
401.29       -22.32548
401.74       -21.01541
402.18       -12.54901
402.63       0.9996364
403.08        15.06991
403.53        22.33883
403.97        21.07285
404.42        13.76887
404.87        3.577189
405.32       -4.257905
405.76       -7.891625
406.21       -9.080067
406.66       -7.871696
407.11       -4.355828
407.55       0.7559806
408.00        7.668472
408.45        13.82164
408.90        14.87055
409.34        10.14459
409.79       0.8786734
410.24       -9.479763
410.68       -15.20581
411.13       -14.69848
411.58       -9.383385
412.03       -1.888681
412.47        3.473788
412.92        5.280739
413.37        4.430315
413.81        2.824271
414.26        3.488206
414.71        6.958285
415.15        12.14638
415.60        16.19918
416.05        14.78287
416.49        7.370609
416.94       -4.206879
417.39       -15.81159
417.83       -21.03123
418.28         -18.333
418.73       -9.672869
419.17        1.284943
419.62        8.606418
420.07        10.48531
420.51        8.484632
420.96        4.902509
421.41        3.458347
421.85        5.213533
422.30        8.939197
422.74        12.81326
423.19        14.14215
423.64        12.37273
424.08        8.567244
424.53        4.898034
424.98        4.605227
425.42        8.364652
425.87        15.10688
426.31        22.37385
426.76          26.291
427.21        25.95167
427.65        22.54023
428.10        18.39731
428.54        17.30121
428.99        20.13285
429.44        25.56414
429.88        31.61703
430.33        35.16187
430.77        35.41813
431.22        33.63726
431.66        31.12728
432.11        29.86402
432.56        30.58724
433.00        32.65108
433.45        35.85233
433.89        39.94261
434.34        44.57208
434.78        49.71144
435.23        54.87456
435.67        59.17501
436.12        62.44268
436.57        64.99323
437.01         66.8892
437.46        68.40738
437.90        69.72668
438.35         70.5641
438.79        71.93868
439.24        75.43987
439.68        81.18864
440.13        88.90155
440.57        96.24045
441.02        99.38689
441.46        97.82226
441.91        92.84214
442.35        87.89455
442.80        88.52264
443.24         95.9388
443.69        108.3611
444.13        122.5218
444.58        133.1173
445.02        138.6908
445.47        140.9211
445.91        141.9098
446.36        145.0164
446.80        151.2942
447.24        159.5293
447.69        168.7193
448.13        177.4642
448.58        185.0903
449.02         191.886
449.47        198.0773
449.91        203.8882
450.36        209.3578
450.80        214.4139
451.25        218.2565
451.69        219.7824
452.13        218.9516
452.58         216.058
453.02        212.9605
453.47        212.6371
453.91        215.4364
454.36        220.2669
454.80        224.4412
455.24        223.6061
455.69        216.9088
456.13        206.0681
456.58        193.5079
457.02        183.0576
457.46        176.1384
457.91        171.8271
458.35        169.6135
458.79         168.612
459.24        168.1463
459.68        168.2508
460.13        168.3434
460.57        167.4032
461.01        165.0495
461.46        161.3833
461.90        156.2203
462.34        149.4864
462.79        141.6234
463.23        133.0726
463.68        125.2211
464.12        120.1941
464.56        118.4164
465.01        119.1925
465.45        121.4603
465.89         123.336
466.34        124.1188
466.78        124.3558
467.22        123.7127
467.67        121.7783
468.11        118.6936
468.55        114.3471
468.99        110.2396
469.44        108.9311
469.88        110.7173
470.32        114.7637
470.77        118.7703
471.21        118.9478
471.65        114.5249
472.10        106.8757
472.54         98.0705
472.98        91.45728
473.42        88.10394
473.87        87.00007
474.31        87.46904
474.75        88.35902
475.20        89.12886
475.64         90.2906
476.08        91.34654
476.52        91.34335
476.97        90.24428
477.41        88.16262
477.85        86.00501
478.29        85.56001
478.74        86.85712
479.18        88.58083
479.62        89.67471
480.06        89.26112
480.50        88.15929
480.95        83.26506
481.39        72.28095
481.83        65.26521
482.27        65.90791
482.72        19.45597
483.16        27.37366
483.60        19.70811
484.04        26.39647
484.48        42.30344
484.93        62.66614
485.37        77.76202
485.81        83.79715
486.25        83.97871
486.69        80.36005
487.14        76.78089
487.58        74.81694
488.02        73.13628
488.46        71.78834
488.90        71.11251
489.34        71.03083
489.79        71.87616
490.23        73.17718
490.67        73.71688
491.11        73.19723
491.55        72.09105
491.99         70.7674
492.43         68.9743
492.88        65.67515
493.32        65.57471
493.76        70.63549
494.20        68.74147
494.64        56.66724
495.08        95.51295
495.52        77.99734
495.96        88.36904
496.41        94.30463
496.85        98.59619
497.29        99.83979
497.73         98.0194
498.17        94.48222
498.61        88.84214
499.05        83.10489
499.49        80.25713
499.93         81.1291
500.37         84.9803
500.82        91.03257
501.26        97.87268
501.70        104.5592
502.14         110.969
502.58        116.1838
503.02        118.9362
503.46        118.8354
503.90        115.9708
504.34        111.0026
504.78        105.1603
505.22        99.26748
505.66        93.80925
506.10         88.9942
506.54        84.89534
506.98        81.76617
507.42        79.66227
507.86        79.71619
508.30        83.55697
508.74        90.94499
509.18        100.9037
509.62        110.4913
510.06        115.1535
510.50         113.943
510.94        108.2555
511.38        100.9159
511.82        96.63345
512.26        96.81195
512.70        100.1187
513.14        105.2005
513.58        109.5969
514.02        112.1466
514.46        114.5521
514.90         119.087
515.34        118.9434
515.78        112.3628
516.22        118.9129
516.66        143.8401
517.10        95.33768
517.54        133.1131
517.98        128.7508
518.42        129.0759
518.86        129.1201
519.30        129.5495
519.74        129.0525
520.18        126.1511
520.62        122.8723
521.06        119.2772
521.50        115.4001
521.93        111.8098
522.37        109.2396
522.81        107.9825
523.25        107.9886
523.69        109.1084
524.13        111.0222
524.57        113.3776
525.01        115.8662
525.45        118.2013
525.89        120.0262
526.32        121.1073
526.76        121.4734
527.20         120.624
527.64        117.8905
528.08        113.4116
528.52          107.59
528.96        101.9245
529.40         98.7019
529.83        98.51198
530.27        100.9377
530.71        104.4575
531.15        106.4935
531.59        106.3888
532.03        104.7603
532.46        103.1196
532.90        103.9467
533.34        107.6499
533.78        113.2023
534.22        118.7108
534.66        121.2861
535.09        120.2378
535.53        116.5219
535.97        111.7919
536.41        108.6769
536.85        107.9583
537.28        108.8973
537.72        110.4665
538.16        111.0072
538.60        110.0815
539.04        108.3649
539.47         106.655
539.91         106.058
540.35        106.9867
540.79        109.2209
541.22        112.1724
541.66        114.9555
542.10        117.3163
542.54        119.3094
542.97        121.7508
543.41        126.0113
543.85        131.9908
544.29        138.8222
544.72        144.7031
545.16        146.8634
545.60        144.8103
546.04        139.7302
546.47        133.1511
546.91         127.527
547.35        123.8712
547.79         121.623
548.22        121.0854
548.66        122.5947
549.10        125.8822
549.53        130.8984
549.97        136.1551
550.41        139.1245
550.84        139.3351
551.28        137.4884
551.72        135.1566
552.15        135.0489
552.59        137.8484
553.03        142.5788
553.46        148.3086
553.90        153.5543
554.34        157.6333
554.77        160.8885
555.21        163.0425
555.65        163.6814
556.08        162.8268
556.52        160.5143
556.96        157.4885
557.39         155.001
557.83        153.5594
558.27        153.2669
558.70        153.6027
559.14        153.5598
559.57        152.9764
560.01        152.0866
560.45        152.0274
560.88        154.5564
561.32        159.7872
561.75        166.9332
562.19        173.7846
562.63        177.0206
563.06         175.745
563.50        170.6076
563.93        164.0019
564.37        159.7811
564.80         159.062
565.24        161.3093
565.68        163.7734
566.11         161.959
566.55        155.2173
566.98        145.0055
567.42        135.8726
567.85        134.9785
568.29        143.3878
568.72        158.4036
569.16         174.075
569.60        180.9507
570.03        176.8793
570.47        165.1218
570.90        150.7305
571.34        141.7534
571.77        140.8124
572.21        145.5788
572.64        153.5741
573.08        161.0091
573.51        165.8919
573.95        168.4934
574.38        169.6196
574.82        169.9647
575.25         169.775
575.69        170.3224
576.12        168.2384
576.56        156.4296
576.99        136.8032
577.42        114.2596
577.86        102.3999
578.29        100.7135
578.73        112.6318
579.16          138.02
579.60        167.2499
580.03        182.7901
580.47        180.5947
580.90        165.7384
581.33        146.2623
581.77        135.4431
582.20        137.0512
582.64        146.7779
583.07        159.5511
583.51          167.47
583.94        168.0983
584.37        164.2787
584.81        158.8033
585.24        155.6613
585.68        156.0844
586.11        158.5214
586.54        161.1151
586.98        161.2968
587.41        158.4875
587.85        153.7513
588.28        149.0451
588.71        147.2664
589.15        148.9823
589.58          153.09
590.01         157.468
590.45        158.8219
590.88        156.3272
591.31        151.0686
591.75        144.7993
592.18        140.2727
592.61        138.4127
593.05        138.5654
593.48        139.6838
593.91        140.1281
594.35        139.3703
594.78        137.7755
595.21         136.456
595.65        137.0423
596.08        139.8033
596.51        144.2996
596.94        148.4085
597.38         148.894
597.81        145.1899
598.24        138.0771
598.68        130.8332
599.11        128.7648
599.54        132.7389
599.97        140.9843
600.41        149.2403
600.84        150.6218
601.27        143.8004
601.70         131.487
602.14        117.8508
602.57        109.3796
603.00        108.2452
603.43        112.5007
603.87        119.8631
604.30        127.3547
604.73        132.5246
605.16        133.9368
605.60        132.9574
606.03        131.7278
606.46        131.4748
606.89        134.6116
607.32         127.972
607.76        116.3948
608.19        105.4968
608.62        65.86874
609.05       -80.62672
609.48        98.26656
609.92        81.63074
610.35        109.4786
610.78        107.8334
611.21        108.5776
611.64        130.8098
612.07        125.6764
612.50        103.3556
612.94        91.82545
613.37        94.66103
613.80         103.568
614.23        113.7224
614.66        118.0291
615.09        114.5419
615.52        107.0216
615.96        99.20409
616.39        95.75986
616.82         97.9368
617.25        103.8999
617.68        110.5051
618.11        112.9089
618.54        109.8937
618.97        103.2527
619.40         95.2943
619.84        89.53207
620.27        87.19589
620.70        87.30237
621.13        88.78846
621.56        90.08482
621.99        90.44708
622.42        90.00107
622.85        89.37565
623.28        89.48599
623.71        90.33877
624.14        91.66873
624.57        91.57141
625.00        87.10218
625.43        78.27454
625.86        66.59141
626.29        55.74133
626.72         51.5009
627.15        55.07027
627.58        64.40273
628.01        76.31792
628.44          85.608
628.87        90.44092
629.30        92.15687
629.73        91.36378
630.16        89.23087
630.59        86.45956
631.02        82.49442
631.45        78.42227
631.88        76.18137
632.31        76.16214
632.74        78.18764
633.17        80.74415
633.60        81.13295
634.03        78.69176
634.46        74.05093
634.89        68.81283
635.32        65.59907
635.75        65.01793
636.18        66.30821
636.61        67.66938
637.04        66.28106
637.47        61.58842
637.89        54.56706
638.32        47.44096
638.75        43.64157
639.18        43.99946
639.61        47.58441
640.04        52.12186
640.47        53.90593
640.90        52.11721
641.33        47.91881
641.76         43.4879
642.18        42.33783
642.61        44.87337
643.04        49.42054
643.47        54.03507
643.90        54.63953
644.33        50.30547
644.76         45.9511
645.18        41.73787
645.61        30.44669
646.04        16.40924
646.47         16.0158
646.90        28.11738
647.33        36.01876
647.75        38.44333
648.18        45.23482
648.61        54.35119
649.04        57.94898
649.47        55.36536
649.89        48.40343
650.32        40.95176
650.75        39.50095
651.18        45.36278
651.61        56.42965
652.03        67.99187
652.46        72.62927
652.89        68.48614
653.32        57.69219
653.74        44.79224
654.17        37.00867
654.60        36.32079
655.03        40.90694
655.46        46.60878
655.88        46.76868
656.31        40.05577
656.74        28.76968
657.16         17.8524
657.59         15.0378
658.02        21.69692
658.45        34.76056
658.87        48.82648
659.30        55.40732
659.73        52.43906
660.15        43.03396
660.58        30.95764
661.01        22.17866
661.44        18.86696
661.86        19.15382
662.29        22.42264
662.72        27.83192
663.14         34.2637
663.57        41.58398
664.00        48.24961
664.42        51.49084
664.85        50.82316
665.27        47.36145
665.70        41.44064
666.13        34.04123
666.55        25.98239
666.98        16.72287
667.41        9.592856
667.83        9.705299
668.26         17.4876
668.69        31.78451
669.11        45.67921
669.54        47.91516
669.96        36.52762
670.39        14.91293
670.82       -7.870886
671.24       -17.15268
671.67       -9.590247
672.09        10.28184
672.52        33.74702
672.94        46.75058
673.37        45.58466
673.80        34.57341
674.22        20.34416
674.65        13.53574
675.07        16.84143
675.50        26.12647
675.92        36.33432
676.35        40.71956
676.77        38.88639
677.20        28.97207
677.62        12.25765
678.05        7.089396
678.47        18.68303
678.90       -21.96493
679.32         2.13154
679.75       -2.016531
680.17      -0.1911483
680.60        4.306406
681.02        10.16971
681.45        13.50331
681.87        13.39135
682.30        8.268399
682.72       -1.892812
683.15       -4.705333
683.57        3.583662
684.00       -25.88956
684.42       -8.589281
684.85       -12.04238
685.27       -11.34986
685.70       -9.194276
686.12       -4.597747
686.54        2.242149
686.97        9.509399
687.39        17.24082
687.82        21.76512
688.24         16.6333
688.66        1.146336
689.09       -19.10988
689.51       -39.52689
689.94       -60.07791
690.36       -74.73266
690.78        -68.6687
691.21       -47.82804
691.63       -36.74591
692.06       -38.52958
692.48       -41.29788
692.90       -41.72975
693.33       -38.90462
693.75       -31.94815
694.17       -22.47103
694.60       -12.85694
695.02        -6.35138
695.44        -3.95827
695.87       -4.379915
696.29       -7.083952
696.71       -11.27095
697.14       -16.09505
697.56       -21.59835
697.98       -25.98234
698.41       -26.39388
698.83       -22.43917
699.25        -14.9321
699.68       -6.398399
700.10       -1.023937
700.52     -0.08034517
700.94       -2.757213
701.37        -7.29855
701.79       -10.67566
702.21       -12.00951
702.64       -12.07123
703.06       -12.32756
703.48       -15.09115
703.90       -20.62575
704.33       -27.77636
704.75       -34.33628
705.17       -37.03086
705.59        -35.1567
706.01       -29.82704
706.44       -23.16426
706.86       -18.58466
707.28       -17.02283
707.70       -17.43657
708.12       -18.51902
708.55        -18.0965
708.97       -15.59592
709.39       -12.03196
709.81       -7.962727
710.23       -4.123878
710.66      -0.9872559
711.08        1.679886
711.50        3.314623
711.92        2.960951
712.34       0.6140199
712.76       -3.351637
713.19       -7.813998
713.61       -10.94902
714.03        -12.1683
714.45       -11.75448
714.87       -10.35079
715.29       -9.148424
715.71       -8.491232
716.13        -8.04111
716.56         -7.3777
716.98       -5.818714
717.40       -3.352581
717.82      -0.5261585
718.24        2.070552
718.66        3.646575
719.08        3.943519
719.50         3.26336
719.92        1.797936
720.34      -0.1855472
720.76       -2.327229
721.19       -4.380015
721.61       -5.873193
722.03       -6.159506
722.45       -5.046337
722.87       -2.731182
723.29       0.6017034
723.71        4.627224
724.13         8.84145
724.55        12.79874
724.97        15.79378
725.39        16.78597
725.81        15.39727
726.23         12.1634
726.65        7.235793
727.07      -0.1060529
727.49       -9.286389
727.91       -16.81557
728.33       -21.46506
728.75        -27.8312
729.17       -33.01924
729.59       -23.90179
730.01       -4.653812
730.43        3.045026
730.85       -3.452411
731.27       -6.869991
731.69       -6.786367
732.10       -22.40086
732.52       -44.84237
732.94       -37.19831
733.36       -4.991589
733.78        10.73004
734.20        6.749311
734.62         5.47111
735.04          8.7148
735.46        9.508054
735.88        8.382151
736.30        6.791418
736.72        4.873645
737.13        3.132634
737.55        1.852606
737.97        1.092175
738.39       0.5525079
738.81      -0.2344972
739.23       -1.343992
739.65       -2.800647
740.06       -3.714164
740.48       -2.613183
740.90       0.5775636
741.32        5.247202
741.74        9.622938
742.16         10.9649
742.57        8.678946
742.99        3.535725
743.41        -2.52692
743.83        -6.35464
744.25       -7.111573
744.67       -5.611978
745.08       -3.492342
745.50       -3.453143
745.92       -6.067837
746.34       -10.27405
746.75       -14.46472
747.17       -16.22128
747.59       -14.89037
748.01       -11.32269
748.42        -6.86562
748.84        -3.47652
749.26       -2.036331
749.68       -2.533196
750.09       -4.055427
750.51       -5.122118
750.93       -5.407493
751.35       -4.971696
751.76       -5.889585
752.18       -11.45245
752.60       -21.64937
753.01         -34.958
753.43       -46.71304
753.85       -49.69317
754.27       -42.55415
754.68       -27.67894
755.10       -10.38629
755.52       0.7474521
755.93        3.278689
756.35      -0.6077098
756.77        -7.20387
757.18       -10.32677
757.60        -8.28899
758.02       -3.191819
758.43        2.261819
758.85        3.979582
759.26        0.920478
759.68        -5.31416
760.10       -12.42402
760.51       -17.09229
760.93       -18.52471
761.34       -17.47311
761.76       -15.04746
762.18       -16.64447
762.59       -23.50275
763.01       -27.29453
763.42       -24.43378
763.84       -45.02691
764.26       -31.60781
764.67       -30.88792
765.09       -27.20361
765.50       -23.78187
765.92       -21.06644
766.33       -19.30561
766.75       -19.46611
767.16       -20.49292
767.58       -20.52362
768.00       -24.76007
768.41       -34.01237
768.83        -31.4212
769.24       -12.70617
769.66       -51.45692
770.07       -21.12762
770.49       -22.78434
770.90       -19.29174
771.32        -14.2103
771.73       -8.280438
772.15       -5.102013
772.56       -6.510558
772.97       -10.52323
773.39       -15.93143
773.80       -20.48498
774.22       -23.25684
774.63       -24.53171
775.05       -24.99741
775.46       -25.91243
775.88       -27.49544
776.29       -29.25523
776.70       -30.15638
777.12       -28.62647
777.53       -24.65006
777.95       -19.16883
778.36       -13.77461
778.77        -10.9703
779.19       -11.19045
779.60       -13.19425
780.02       -16.16087
780.43       -18.68928
780.84       -20.16076
781.26       -21.44873
781.67       -21.10933
782.09       -16.78105
782.50       -8.783124
782.91        1.944376
783.33        11.00138
783.74        11.29501
784.15        1.786499
784.57       -14.86234
784.98       -33.28024
785.39       -44.79731
785.81       -46.86323
786.22       -41.83887
786.63       -32.65232
787.04        -24.2697
787.46       -18.57497
787.87       -14.20809
788.28       -10.78093
788.70       -7.723779
789.11       -4.855951
789.52       -2.974115
789.93       -2.040657
790.35       -1.554704
790.76       -1.319038
791.17       -1.128664
791.58       -1.145309
792.00        -1.73027
792.41       -3.042403
792.82       -5.290975
793.23       -7.821181
793.65       -9.601253
794.06       -10.55535
794.47       -10.71947
794.88         -11.887
795.29       -17.04882
795.71        -26.1552
796.12       -37.60312
796.53       -47.90702
796.94       -51.58098
797.35       -47.51764
797.76       -37.88886
798.18       -25.37233
798.59       -14.32125
799.00       -6.557774
799.41       -1.055278
799.82        1.560314
800.23       0.5083937
800.64       -3.792358
801.06       -11.20891
801.47       -19.06302
801.88       -22.81331
802.29       -21.50754
802.70       -16.24257
803.11       -9.688552
803.52       -6.533158
803.93       -7.881801
804.34       -12.02274
804.75       -17.25568
805.17       -20.79962
805.58       -21.78341
805.99       -21.51608
806.40       -19.94885
806.81       -16.87493
807.22       -12.75012
807.63         -7.5138
808.04       -3.358413
808.45       -3.870601
808.86       -9.526628
809.27       -19.29732
809.68       -29.78928
810.09       -35.43428
810.50       -34.93209
810.91       -29.81729
811.32       -23.28121
811.73       -20.62266
812.14       -23.11182
812.55       -28.89598
812.96       -35.41808
813.37       -38.65605
813.78       -37.50324
814.19       -33.49719
814.60       -28.20049
815.01       -23.90323
815.42       -21.60609
815.83       -20.83826
816.24        -21.3063
816.65       -22.58535
817.05       -24.46019
817.46       -27.00666
817.87       -30.57278
818.28       -35.57784
818.69       -41.75706
819.10       -48.58834
819.51       -54.49089
819.92       -57.19286
820.33        -56.1866
820.74       -51.97427
821.14       -46.38531
821.55       -42.44601
821.96       -40.96058
822.37       -41.26936
822.78       -41.63239
823.19       -39.17445
823.60       -33.34761
824.00       -25.23865
824.41       -17.03191
824.82       -12.02819
825.23       -11.13623
825.64       -13.60974
826.04       -17.38225
826.45       -19.08244
826.86       -18.01864
827.27       -15.27578
827.68       -13.30493
828.08       -15.74684
828.49       -22.55893
828.90       -33.47381
829.31       -46.20427
829.72       -51.74171
830.12       -47.70595
830.53       -57.98321
830.94        -45.0597
831.35       -41.52259
831.75       -36.98013
832.16       -32.00373
832.57       -27.87366
832.97       -27.38319
833.38       -31.12496
833.79       -38.09035
834.20       -45.74546
834.60       -49.68361
835.01       -48.91947
835.42       -44.79603
835.82       -39.52582
836.23       -36.88717
836.64       -37.84464
837.04       -40.85571
837.45       -44.93311
837.86       -48.55524
838.26       -50.95173
838.67       -52.77274
839.08       -53.06865
839.48       -50.21514
839.89       -44.32015
840.29       -35.96341
840.70       -27.58042
841.11        -23.1807
841.51       -23.61578
841.92       -27.72044
842.33       -33.23807
842.73       -36.33146
843.14        -35.9792
843.54       -33.50168
843.95       -30.03557
844.35       -27.47782
844.76       -26.47018
845.17       -26.06829
845.57       -26.60414
845.98       -28.70098
846.38       -32.21838
846.79       -37.27245
847.19       -41.98079
847.60       -43.19166
848.00       -40.49562
848.41       -34.76722
848.81       -29.06334
849.22       -28.39987
849.62       -33.68697
850.03       -43.14816
850.43       -53.33675
850.84       -58.75124
851.24       -57.89272
851.65       -52.43174
852.05        -44.8021
852.46       -38.89214
852.86       -36.07863
853.27       -35.44744
853.67        -35.8178
854.07       -35.33494
854.48       -33.50795
854.88       -30.97636
855.29       -29.08831
855.69       -29.80301
856.10       -33.26503
856.50       -38.54023
856.90       -43.35095
857.31        -44.2112
857.71       -40.51585
858.12       -33.61562
858.52       -25.98447
858.92        -21.5396
859.33       -21.47859
859.73       -24.73944
860.13       -29.98134
860.54        -34.9821
860.94       -38.82219
861.34       -41.90168
861.75        -44.4267
862.15       -46.80648
862.55       -48.90894
862.96       -50.10647
863.36       -49.88976
863.76       -47.61604
864.17       -43.49619
864.57        -38.5621
864.97       -33.33752
865.38       -28.41243
865.78       -24.41832
866.18        -21.4147
866.58       -21.06885
866.99       -25.53459
867.39       -34.61802
867.79        -48.0721
868.19       -62.33993
868.60       -69.40855
869.00       -68.86246
869.40       -67.40546
869.80       -66.13293
870.21       -62.11066
870.61        -56.2625
871.01       -51.76978
871.41       -48.42343
871.81       -44.15939
872.22       -39.91452
872.62       -36.45143
873.02       -34.52531
873.42       -39.20078
873.82       -46.51144
874.22       -44.18118
874.63       -36.97305
875.03       -35.37741
875.43       -40.02451
875.83        -67.5594
876.23       -56.17286
876.63       -38.44997
877.03       -9.991539
877.44        37.75188
877.84        1104.988
878.24        21.09299
878.64        10.76917
879.04       -27.08136
879.44       -47.89852
879.84         11.8835
880.24       -100.0089
880.64       -107.6324
881.04        -52.1225
881.44       -15.13235
881.84       -4.203996
882.24        -17.6445
882.65       -44.77835
883.05       -54.84761
883.45       -43.07846
883.85       -28.06501
884.25       -16.74706
884.65       -12.35832
885.05       -16.93362
885.45       -27.78803
885.85       -40.75618
886.25       -49.94347
886.65       -53.46152
887.05       -53.42426
887.45       -50.80925
887.85       -47.21333
888.25       -43.65899
888.65       -39.26693
889.04       -36.12202
889.44       -37.81549
889.84       -44.54246
890.24       -55.27495
890.64       -65.91564
891.04       -69.63518
891.44       -65.06618
891.84       -54.44156
892.24       -41.83509
892.64       -33.93183
893.04       -32.70048
893.44       -36.19344
893.83       -42.31817
894.23       -47.56831
894.63       -50.79115
895.03       -53.38224
895.43       -55.68865
895.83       -58.09093
896.23       -60.79985
896.63       -63.07366
897.02       -65.54648
897.42       -69.63261
897.82       -75.17702
898.22       -81.47229
898.62        -86.6273
899.01       -87.60727
899.41        -83.8519
899.81       -76.57827
900.21       -67.56475
900.61       -59.54662
901.00       -53.66589
901.40       -49.92857
901.80       -49.03247
902.20       -48.26635
902.59       -46.58482
902.99       -50.86115
903.39        -62.6795
903.79       -48.62956
904.18       -65.20637
904.58       -66.63041
904.98       -68.29104
905.38       -66.60222
905.77       -61.81764
906.17       -54.10271
906.57       -45.88451
906.96        -42.6008
907.36       -45.20649
907.76       -52.36439
908.15       -60.85184
908.55       -65.32413
908.95        -64.4041
909.34       -59.58221
909.74       -53.64861
910.14       -51.12471
910.53       -53.09998
910.93        -58.0102
911.33        -63.3392
911.72       -65.20023
912.12       -62.64939
912.52        -57.0724
912.91       -50.63805
913.31       -46.70356
913.70       -46.13562
914.10       -47.76419
914.49       -49.97952
914.89       -50.26757
915.29       -47.97189
915.68       -44.11582
916.08       -39.75529
916.47        -36.4245
916.87       -34.75765
917.26       -34.36624
917.66       -34.98288
918.05       -36.26941
918.45       -37.94916
918.84       -39.85231
919.24       -42.06518
919.64       -44.83751
920.03       -47.85358
920.42       -50.69418
920.82        -52.5588
921.21       -52.22683
921.61       -50.15987
922.00       -48.05733
922.40       -47.81454
922.79       -49.67086
923.19       -46.35158
923.58       -55.27719
923.98       -86.02464
924.37       -83.73624
924.77       -22.21121
925.16       -212.3039
925.55       -57.34844
925.95       -69.01772
926.34       -72.04197
926.74       -62.66015
927.13       -41.02218
927.52       -28.85168
927.92       -33.74567
928.31       -44.27362
928.70       -57.66694
929.10       -67.99366
929.49       -72.90692
929.89       -75.12709
930.28       -74.21662
930.67       -69.75564
931.07       -62.58033
931.46       -51.21629
931.85       -39.63749
932.24       -41.92553
932.64       -61.38761
933.03       -82.09262
933.42       -89.40639
933.82       -137.3311
934.21       -99.32852
934.60        -76.2691
934.99       -55.86143
935.39       -54.64507
935.78       -71.69609
936.17       -116.4678
936.56       -297.5663
936.96        -106.623
937.35       -198.5318
937.74       -118.0886
938.13       -68.30209
938.53       -31.32044
938.92       -17.64119
939.31         -32.043
939.70       -56.77174
940.09       -71.51386
940.49       -69.26389
940.88       -58.17053
941.27       -44.87033
941.66       -38.76027
942.05       -42.59514
942.44       -51.80053
942.84       -62.14616
943.23       -68.32333
943.62       -68.66613
944.01       -65.11514
944.40       -60.77326
944.79       -60.18161
945.18       -64.40711
945.57        -71.8422
945.97       -79.34357
946.36       -82.08992
946.75       -79.07097
947.14       -72.01584
947.53       -64.17322
947.92       -60.64418
948.31       -62.61097
948.70       -68.26915
949.09       -74.92123
949.48       -78.27072
949.87       -77.17114
950.26       -73.25867
950.65       -68.04955
951.04       -63.86705
951.43       -61.65566
951.82        -60.6113
952.21       -60.81373
952.60       -62.54108
952.99       -65.43185
953.38       -69.24924
953.77        -73.0271
954.16       -75.00533
954.55       -74.92474
954.94       -73.65565
955.33       -71.45152
955.72       -68.91569
956.11       -66.46262
956.50       -63.53231
956.89       -62.12818
957.28        -65.3797
957.66       -73.39743
958.05       -85.37244
958.44       -96.43668
958.83       -98.80739
959.22       -91.09735
959.61       -75.49362
960.00       -58.58123
960.39       -51.03287
960.78       -55.28486
961.16       -68.30157
961.55       -83.36444
961.94       -89.54398
962.33       -84.33025
962.72       -71.38584
963.11       -56.91204
963.49       -50.74224
963.88       -55.25916
964.27       -66.85502
964.66       -80.66091
965.04       -89.11733
965.43       -89.99032
965.82       -85.87964
966.21       -79.28648
966.60       -74.09236
966.98       -71.64195
967.37       -70.40614
967.76       -69.97668
968.15       -69.89436
968.53       -69.88898
968.92       -70.69989
969.31       -71.52475
969.69       -70.75036
970.08       -68.27004
970.47       -64.37359
970.86       -60.97879
971.24       -61.34352
971.63       -65.84198
972.02       -73.17167
972.40       -80.76937
972.79       -84.44692
973.17       -83.36049
973.56        -79.2642
973.95       -73.79092
974.33       -69.68786
974.72       -67.86906
975.11       -66.95314
975.49       -67.93665
975.88       -72.33714
976.26       -79.92335
976.65       -90.78661
977.04       -100.5111
977.42       -101.8959
977.81       -94.01501
978.19       -78.84544
978.58       -63.71645
978.96       -60.61453
979.35       -71.67603
979.74       -92.75642
980.12       -115.3878
980.51       -125.9477
980.89       -121.0367
981.28       -105.1586
981.66       -84.72502
982.05       -69.99042
982.43       -64.38265
982.82       -64.98225
983.20       -69.09199
983.59       -72.51076
983.97       -73.61307
984.35       -73.78899
984.74       -74.17571
985.12       -76.06466
985.51       -79.76928
985.89       -84.79848
986.28       -89.05368
986.66       -89.80193
987.04       -87.29758
987.43       -81.37913
987.81       -73.12354
988.20       -78.40102
988.58       -100.6498
988.96       -109.9394
989.35       -94.15816
989.73       -172.3969
990.12       -122.3963
990.50       -123.1718
990.88       -113.0816
991.27       -103.7439
991.65        -95.9566
992.03       -90.32867
992.42       -88.13055
992.80       -85.24258
993.18       -81.57875
993.56        -78.6581
993.95       -76.54465
994.33       -74.95376
994.71         -73.983
995.10       -73.39838
995.48       -73.76053
995.86       -76.26038
996.24       -80.73775
996.63       -86.27791
997.01        -91.5891
997.39       -94.74498
997.77       -95.09795
998.15       -93.24187
998.54       -89.46877
998.92       -84.25169
999.30       -78.39011
999.68       -72.47319
1000.06       -67.74201
1000.45       -65.99769
1000.83       -67.73766
1001.21       -72.39455
1001.59       -79.55542
1001.97        -88.4348
1002.35       -98.04382
1002.73       -107.7951
1003.12       -116.0045
1003.50        -120.242
1003.88       -120.0274
1004.26       -116.1221
1004.64       -109.7502
1005.02       -103.1559
1005.40       -97.31997
1005.78       -91.83009
1006.16       -87.58479
1006.54       -85.68132
1006.92       -86.28928
1007.30       -89.72035
1007.69       -93.76221
1008.07       -94.67617
1008.45       -91.82753
1008.83       -85.85405
1009.21       -80.44978
1009.59       -81.94118
1009.97       -91.16184
1010.35       -105.4368
1010.73       -119.3895
1011.11         -126.65
1011.49       -126.6867
1011.86       -118.3669
1012.24       -103.5885
1012.62       -112.6776
1013.00        -120.824
1013.38       -123.5539
1013.76       -105.5603
1014.14       -146.4702
1014.52       -245.2036
1014.90       -115.8964
1015.28        -120.297
1015.66       -131.1544
1016.04       -97.33438
1016.41       -104.8078
1016.79       -103.7232
1017.17       -104.4728
1017.55       -101.2618
1017.93       -97.11346
1018.31       -95.18904
1018.69       -96.22832
1019.06       -100.7164
1019.44       -108.1313
1019.82       -114.1594
1020.20       -111.8765
1020.58       -100.4875
1020.95       -82.71875
1021.33       -64.77511
1021.71       -56.43556
1022.09       -59.98349
1022.46       -72.28381
1022.84       -88.00375
1023.22       -98.47841
1023.60       -100.9625
1023.97       -97.83149
1024.35       -91.71925
1024.73       -86.90719
