SpectraSmart Spectrum 2.9.0.0
--------- Device Information -----------
Spectrum Name :  反射率_0
Saving Time :  2024/04/26 00:42:30
Spectro-Module Model Name : SE2030-DUVN
Spectro-Module Serial Number : OS361AC55029948
Wavelength Start : 200
Wavelength End : 1025
Wavelength Unit : Wavelength(nm)
Spectrum Unit : Reflectance(%)
-----------Spectrum Setting ------------
Integration Time : 20ms
Average : 10
Boxcar : 0
Background removal :  enabled
linearity correction :  enabled
SC :  disabled
Intensity correction :  disabled
DWT denoise :  enabled
savitzky-golay :  disabled
FFT :  disabled
Running average :  disabled
Kalman :  disabled
High pass :  disabled
---------------BEGIN--------------------
Wavelength(nm)             Reflectance(%)
200.29               0
200.75        103.5813
201.21        96.12058
201.67        87.91574
202.13         83.2181
202.58        82.43171
203.04        84.81466
203.50        88.22202
203.96        88.98633
204.42        86.61154
204.88        82.77597
205.34        79.43684
205.80        78.51035
206.26        80.74282
206.72        87.70621
207.18        103.1218
207.64        120.4839
208.10        118.1741
208.55        103.5535
209.01        93.32403
209.47        90.29343
209.93        91.79726
210.39        96.17487
210.85        100.9409
211.31        100.8891
211.77        94.64887
212.23        84.49051
212.69        74.86706
213.14        72.50764
213.60        78.36213
214.06        90.38872
214.52        104.0038
214.98         112.139
215.44        112.9519
215.90        108.8175
216.36         102.593
216.81        98.14713
217.27        96.96378
217.73        97.76197
218.19        99.04359
218.65        99.01265
219.11        97.05872
219.57        92.91557
220.02        88.29814
220.48         89.2009
220.94        97.48189
221.40        110.3474
221.86         119.585
222.32        117.7191
222.77        106.9043
223.23        92.75251
223.69        81.28137
224.15        78.71779
224.61        84.30241
225.06        94.93246
225.52        106.1744
225.98        111.9909
226.44        111.2664
226.90        106.3241
227.36         100.503
227.81        98.38216
228.27        101.1285
228.73        106.7249
229.19         112.715
229.65        115.5772
230.10        114.7712
230.56         112.322
231.02         109.774
231.48        108.8869
231.93        109.7486
232.39        111.5874
232.85         113.845
233.31        115.9138
233.77        117.4724
234.22        118.8512
234.68        119.4732
235.14        118.3439
235.60        115.4632
236.05        111.2752
236.51        106.9774
236.97        104.1527
237.43        103.0492
237.88        103.4289
238.34        104.6441
238.80        105.5536
239.26        105.3777
239.71        104.8343
240.17        103.1145
240.63        99.69361
241.08        95.01577
241.54        89.36366
242.00        84.53599
242.46        82.82838
242.91        85.69807
243.37        96.43554
243.83        130.4846
244.28        228.0104
244.74        310.9711
245.20        231.2977
245.66         174.347
246.11        158.5189
246.57        164.3138
247.03        197.1335
247.48        298.7389
247.94        249.3494
248.40        140.8051
248.85        107.5619
249.31         97.8627
249.77        96.80372
250.22        100.5387
250.68        109.0009
251.14        122.0393
251.59        131.7648
252.05        129.6778
252.51        119.0422
252.96         107.124
253.42        101.4663
253.88        101.7211
254.33         105.108
254.79        110.5092
255.25        115.7269
255.70        119.5676
256.16        123.0038
256.62        125.2198
257.07        125.2548
257.53        123.9911
257.99        121.3931
258.44        118.2699
258.90        116.8759
259.35        116.1808
259.81        115.8903
260.27        114.7243
260.72        111.4179
261.18        106.9157
261.63        101.5547
262.09        96.61039
262.55        92.59155
263.00        89.45642
263.46        87.19096
263.91        85.27734
264.37        83.75929
264.83        82.27466
265.28        80.69713
265.74        79.05595
266.19        76.99754
266.65        74.89104
267.11         72.8633
267.56        70.99536
268.02        69.44403
268.47        68.03934
268.93        66.74883
269.38        65.58566
269.84        64.78478
270.30        64.36909
270.75        64.28675
271.21        64.26405
271.66        63.86666
272.12        63.02334
272.57         61.8323
273.03        60.64361
273.48        59.87736
273.94        59.65682
274.39        59.74476
274.85        59.89547
275.31        59.67962
275.76        58.98075
276.22        58.01118
276.67        56.88386
277.13        55.93278
277.58        55.15789
278.04        54.53848
278.49         53.9344
278.95        53.30272
279.40        52.55089
279.86        51.80349
280.31        51.02115
280.77        50.31882
281.22        49.65246
281.68        49.05484
282.13         48.4884
282.59        48.00714
283.04        47.56981
283.50        47.22248
283.95        46.87275
284.41        46.44954
284.86         45.9167
285.32        45.31866
285.77        44.75208
286.22        44.45807
286.68        44.43991
287.13         44.5704
287.59         44.6417
288.04        44.29338
288.50        43.52405
288.95        42.44299
289.41        41.30835
289.86        40.35775
290.32        39.73454
290.77        39.32147
291.22        39.10843
291.68        39.03391
292.13        39.05022
292.59        39.18327
293.04        39.36689
293.50        39.50613
293.95        39.56572
294.40        39.54515
294.86         39.4995
295.31        39.52335
295.77        39.64941
296.22        39.85598
296.68        40.09104
297.13        40.23982
297.58        40.29588
298.04        40.31311
298.49        40.38051
298.95         40.6796
299.40        41.21634
299.85        41.91577
300.31        42.63895
300.76        43.17796
301.21        43.46646
301.67        43.60817
302.12        43.62729
302.58        43.64002
303.03        43.66047
303.48        43.67989
303.94        43.78852
304.39        44.07781
304.84        44.55555
305.30        45.17491
305.75        45.76238
306.20        46.07197
306.66        46.07866
307.11         45.8391
307.57        45.51879
308.02        45.26912
308.47        45.17672
308.93        45.19218
309.38        45.27979
309.83        45.42558
310.29        45.59929
310.74        45.79272
311.19        45.96091
311.65        46.02457
312.10        45.96282
312.55        45.79964
313.00        45.55683
313.46        45.29109
313.91        45.02266
314.36        44.75622
314.82        44.54559
315.27        44.44368
315.72        44.46447
316.18         44.5868
316.63        44.74068
317.08        44.78284
317.53        44.67329
317.99        44.43684
318.44        44.16008
318.89        43.98897
319.35        43.94441
319.80        43.99339
320.25        44.02309
320.70        43.85279
321.16        43.45316
321.61        42.89411
322.06        42.30744
322.51        41.89018
322.97         41.6753
323.42        41.61602
323.87        41.60975
324.32        41.48666
324.78        41.19754
325.23        40.81207
325.68         40.3941
326.13         40.0546
326.59        39.81939
327.04        39.66917
327.49         39.5747
327.94        39.50019
328.39        39.42775
328.85        39.35856
329.30        39.31495
329.75        39.26801
330.20        39.21843
330.66        39.15542
331.11        39.11485
331.56          39.103
332.01        39.12195
332.46        39.15424
332.92        39.19369
333.37        39.29001
333.82        39.42291
334.27         39.5961
334.72        39.73531
335.17        39.71964
335.63        39.52734
336.08        39.19862
336.53        38.87163
336.98        38.78244
337.43        38.97683
337.88        39.39078
338.34        39.82617
338.79        40.00979
339.24        39.84652
339.69        39.42449
340.14        38.93301
340.59        38.70412
341.05        38.81943
341.50        39.16205
341.95        39.56816
342.40        39.80528
342.85        39.81178
343.30        39.67097
343.75        39.43097
344.20        39.17632
344.66        38.95595
345.11        38.71842
345.56        38.51145
346.01        38.40496
346.46         38.4028
346.91         38.5089
347.36        38.61391
347.81        38.53533
348.26         38.2551
348.72        37.85138
349.17        37.46196
349.62        37.39048
350.07        37.69223
350.52        38.25166
350.97        38.87745
351.42         39.2819
351.87         39.3861
352.32        39.27441
352.77        39.03239
353.22         38.8004
353.67        38.62952
354.13        38.48112
354.58        38.33263
355.03        38.19201
355.48        38.05542
355.93        37.94276
356.38        37.82738
356.83        37.65403
357.28         37.4134
357.73        37.11559
358.18        36.80865
358.63        36.57096
359.08        36.42035
359.53        36.34018
359.98        36.26929
360.43        36.11155
360.88        35.84779
361.33        35.50229
361.78         35.1576
362.23        34.94783
362.68        34.89544
363.13        34.95217
363.58        35.00811
364.03        34.89285
364.48         34.5726
364.93        34.10848
365.38        33.60397
365.83        33.22422
366.28        33.01708
366.73        32.93074
367.18        32.90701
367.63        32.85147
368.08        32.72908
368.53         32.5701
368.98        32.38763
369.43        32.19535
369.88        32.00161
370.33        31.80023
370.78        31.59124
371.23        31.38307
371.68        31.18225
372.13        30.98895
372.58         30.8305
373.03        30.74755
373.48        30.74294
373.93        30.80375
374.38        30.87115
374.83        30.85242
375.28        30.73098
375.72        30.52497
376.17        30.31516
376.62        30.19758
377.07        30.19377
377.52        30.25665
377.97        30.34433
378.42        30.39092
378.87        30.36966
379.32        30.30784
379.77        30.18717
380.22        29.97629
380.67        29.68292
381.11        29.31943
381.56        28.95661
382.01        28.72167
382.46        28.64541
382.91        28.69689
383.36        28.79242
383.81        28.79082
384.26        28.65833
384.71        28.44005
385.15         28.1962
385.60        28.03905
386.05        27.97821
386.50        27.96885
386.95        27.97143
387.40        27.92548
387.85        27.82043
388.29        27.68178
388.74        27.54489
389.19        27.38659
389.64        27.20825
390.09        26.99704
390.54        26.81021
390.98        26.74657
391.43        26.82618
391.88        27.00748
392.33        27.17491
392.78        27.15451
393.23        26.93617
393.67        26.58122
394.12        26.24912
394.57        26.07656
395.02        26.09584
395.47        26.24891
395.91        26.49053
396.36        26.70043
396.81        26.83247
397.26        26.89667
397.71        26.88782
398.15        26.77681
398.60         26.6104
399.05        26.40754
399.50        26.18345
399.95        25.88388
400.39        25.63427
400.84         25.3589
401.29        25.14654
401.74        25.10221
402.18        25.25441
402.63        25.53973
403.08        25.87218
403.53        26.10724
403.97        26.20126
404.42        26.18878
404.87        26.09052
405.32        25.95233
405.76        25.79867
406.21        25.62677
406.66        25.47768
407.11        25.41958
407.55        25.46511
408.00        25.59529
408.45        25.74143
408.90        25.75417
409.34        25.60032
409.79        25.33954
410.24        25.07878
410.68        24.96595
411.13        25.03599
411.58         25.2373
412.03        25.50766
412.47        25.73821
412.92        25.86398
413.37        25.92095
413.81         25.9208
414.26        25.90641
414.71        25.88126
415.15        25.82362
415.60         25.7339
416.05        25.63717
416.49        25.54096
416.94        25.46646
417.39        25.37847
417.83        25.21086
418.28        24.97427
418.73         24.6928
419.17         24.4718
419.62        24.46371
420.07        24.68187
420.51        25.07002
420.96        25.48347
421.41        25.67641
421.85        25.57756
422.30         25.2944
422.74        24.94082
423.19        24.73107
423.64        24.69351
424.08        24.77965
424.53        24.90664
424.98        24.98062
425.42        24.97824
425.87         24.9163
426.31        24.83306
426.76        24.84722
427.21        24.94116
427.65        24.91792
428.10        24.84247
428.54        24.99429
428.99        25.37998
429.44        25.83535
429.88        26.17511
430.33        26.26071
430.77         26.0274
431.22        25.41693
431.66         24.6814
432.11        24.44165
432.56        24.73443
433.00        25.11976
433.45        25.39769
433.89        25.82557
434.34        26.16862
434.78        25.76369
435.23        24.83132
435.67         24.7921
436.12        25.50365
436.57        25.82076
437.01        25.62614
437.46        25.51315
437.90        25.53512
438.35        25.52316
438.79        25.46085
439.24         25.3933
439.68        25.33943
440.13        25.19201
440.57        25.04626
441.02        25.37132
441.46        25.97678
441.91        25.97648
442.35        25.43624
442.80        25.11753
443.24          25.039
443.69        25.09878
444.13        25.20528
444.58        24.97525
445.02        24.51404
445.47        24.50037
445.91         24.8492
446.36        24.90593
446.80        24.63317
447.24        24.39381
447.69        24.26304
448.13        24.19862
448.58         24.2254
449.02        24.34178
449.47        24.49075
449.91        24.57931
450.36         24.5857
450.80        24.52888
451.25        24.45518
451.69        24.42437
452.13         24.4551
452.58        24.51224
453.02         24.5744
453.47        24.61507
453.91        24.62657
454.36          24.631
454.80        24.61294
455.24        24.53833
455.69        24.42366
456.13        24.27098
456.58        24.16781
457.02        24.20753
457.46        24.40875
457.91        24.72478
458.35        25.05313
458.79        25.23247
459.24        25.23655
459.68        25.09718
460.13        24.91098
460.57        24.78077
461.01        24.76253
461.46        24.81381
461.90        24.89214
462.34        24.98441
462.79        24.97936
463.23         24.9544
463.68        24.93995
464.12        25.03691
464.56        25.25183
465.01          25.568
465.45        25.81417
465.89        25.83899
466.34        25.64399
466.78        25.14019
467.22        24.57628
467.67        24.59688
468.11        25.14237
468.55         25.4519
468.99        25.40389
469.44        25.31667
469.88        25.26295
470.32         25.3498
470.77        25.53241
471.21        25.54983
471.65        25.38754
472.10        25.27239
472.54        25.24382
472.98        25.27084
473.42         25.3627
473.87        25.54714
474.31        25.75436
474.75        25.85599
475.20        25.84446
475.64        25.77174
476.08         25.7044
476.52        25.71413
476.97        25.82422
477.41        26.02603
477.85        26.23903
478.29        26.37356
478.74        26.41025
479.18        26.25137
479.62         25.9907
480.06        26.20683
480.50        26.38516
480.95        26.58643
481.39        26.58152
481.83        26.56671
482.27        26.53361
482.72        26.25691
483.16         25.8913
483.60        26.02184
484.04        26.67303
484.48        27.07599
484.93         27.4213
485.37        28.03044
485.81        28.48459
486.25        28.40619
486.69        38.22258
487.14        30.71861
487.58        19.63659
488.02        24.03857
488.46        27.03136
488.90        27.06106
489.34        27.66058
489.79        27.44324
490.23         28.4663
490.67        29.00958
491.11        28.81614
491.55        28.79031
491.99        28.81283
492.43        28.67056
492.88        28.44108
493.32        28.47802
493.76         28.5821
494.20        28.80678
494.64        29.06256
495.08        29.34786
495.52         29.6631
495.96        30.03381
496.41         30.3723
496.85        30.64176
497.29        30.80432
497.73         30.4585
498.17        29.97513
498.61          30.206
499.05        31.15144
499.49        31.27872
499.93        31.34466
500.37        31.44331
500.82        31.49113
501.26        31.77551
501.70         32.1359
502.14        32.31952
502.58        32.28791
503.02         32.2854
503.46        32.32196
503.90        32.23412
504.34        32.07835
504.78        32.02689
505.22         32.1045
505.66        32.27159
506.10        32.46161
506.54        32.55894
506.98        32.53756
507.42        32.43926
507.86        32.34638
508.30        32.38407
508.74        32.57562
509.18        32.87126
509.62        33.19364
510.06        33.41854
510.50        33.50861
510.94        33.50578
511.38        33.44956
511.82        33.40121
512.26        33.38622
512.70        33.38425
513.14        33.40227
513.58        33.45407
514.02        33.53035
514.46        33.62635
514.90        33.71729
515.34        33.72972
515.78        33.62842
516.22        33.56319
516.66        33.56767
517.10        33.31935
517.54        32.82536
517.98        33.44574
518.42        33.21592
518.86        33.44886
519.30        33.54779
519.74        33.69448
520.18        33.84465
520.62        33.90125
521.06        33.87323
521.50        33.77203
521.93        33.64417
522.37        33.57385
522.81        33.58121
523.25        33.63774
523.69        33.71906
524.13         33.7876
524.57        33.82701
525.01          33.849
525.45        33.84119
525.89        33.78387
526.32        33.67506
526.76        33.52102
527.20        33.35179
527.64        33.22612
528.08        33.16423
528.52        33.12426
528.96        33.06761
529.40        33.02272
529.83        32.99911
530.27         32.6594
530.71        32.67515
531.15        32.56583
531.59         32.5355
532.03        32.54634
532.46        32.61256
532.90        32.74867
533.34        32.93092
533.78        33.14692
534.22        33.32558
534.66        33.36576
535.09        33.24676
535.53         33.0122
535.97          32.733
536.41        32.53252
536.85        32.45151
537.28        32.46739
537.72        32.53444
538.16        32.57838
538.60        32.57914
539.04        32.53354
539.47        32.49004
539.91        32.60512
540.35        32.85209
540.79        33.06478
541.22        33.19191
541.66        33.28982
542.10        33.34453
542.54        33.29836
542.97        33.22244
543.41        33.28203
543.85        33.49854
544.29        33.83676
544.72        34.19051
545.16        34.40818
545.60        34.45448
546.04        34.37075
546.47        34.28846
546.91        34.42765
547.35        34.81425
547.79        35.38173
548.22          35.946
548.66        36.19764
549.10        36.09685
549.53        35.79825
549.97        35.49187
550.41        35.38455
550.84        35.54438
551.28        35.92046
551.72        36.40708
552.15        36.80645
552.59         37.0514
553.03        37.20272
553.46        37.28941
553.90        37.39027
554.34        37.53148
554.77        37.63951
555.21        37.71536
555.65          37.884
556.08        38.16271
556.52         38.0554
556.96        38.41862
557.39        38.47857
557.83        38.50652
558.27        38.48652
558.70        38.48005
559.14         38.5675
559.57        38.74704
560.01         39.0078
560.45        39.26635
560.88        39.39064
561.32        39.38363
561.75        39.26804
562.19        39.14356
562.63        39.10951
563.06        39.18587
563.50        39.34602
563.93        39.54214
564.37        39.72343
564.80        39.85514
565.24        39.96805
565.68        40.05962
566.11        40.13041
566.55        40.21384
566.98        40.29713
567.42        40.41267
567.85        40.60609
568.29        40.90526
568.72        41.17699
569.16        41.46767
569.60        41.93068
570.03        42.36838
570.47        42.42754
570.90        42.30798
571.34        41.56902
571.77        42.26832
572.21        42.35117
572.64        42.49026
573.08        41.85529
573.51        40.66843
573.95        42.36916
574.38        44.85895
574.82        43.99599
575.25        43.47561
575.69        42.06729
576.12        41.56419
576.56        41.31901
576.99        42.22704
577.42        44.19175
577.86        44.27036
578.29        43.76679
578.73        46.10769
579.16        42.32754
579.60        38.66898
580.03        40.27178
580.47        43.00472
580.90        43.88036
581.33        43.14606
581.77        42.59946
582.20        46.78702
582.64         46.1602
583.07        39.51648
583.51        38.61031
583.94         37.7153
584.37        39.24355
584.81        41.16206
585.24        43.22536
585.68        44.07022
586.11        43.31452
586.54        40.13556
586.98         38.8984
587.41        39.42768
587.85         41.1635
588.28        42.59451
588.71        40.40869
589.15        39.06136
589.58        39.99659
590.01        40.06592
590.45        40.89172
590.88         40.9777
591.31        40.53883
591.75        40.38985
592.18        40.42174
592.61        41.17791
593.05        42.02108
593.48        44.12865
593.91        44.43405
594.35        40.67382
594.78        39.85661
595.21        39.91171
595.65        41.82735
596.08        43.38216
596.51        41.78975
596.94        40.87882
597.38        41.50413
597.81          43.305
598.24        44.70456
598.68        44.15809
599.11        43.63787
599.54        45.70687
599.97        47.24548
600.41        44.35003
600.84        44.74315
601.27        45.96909
601.70        45.69832
602.14        45.84983
602.57        45.61245
603.00        46.53452
603.43        48.09235
603.87         49.6066
604.30        49.68333
604.73        48.63309
605.16        48.09983
605.60        49.17781
606.03        50.51142
606.46        51.83148
606.89        51.86924
607.32        50.78153
607.76        51.15443
608.19        53.13542
608.62        52.87899
609.05        52.40999
609.48        53.01107
609.92        52.98652
610.35        53.05698
610.78        55.44679
611.21        56.18782
611.64        54.07207
612.07        54.89898
612.50        55.60142
612.94         56.2281
613.37        55.90113
613.80        56.66444
614.23        57.05679
614.66         57.3173
615.09        57.80505
615.52        58.08773
615.96        58.27042
616.39        58.57656
616.82        57.97124
617.25        58.22047
617.68        58.94021
618.11         59.7814
618.54        60.41433
618.97        60.22439
619.40         59.5861
619.84         59.4864
620.27        60.55906
620.70        61.40874
621.13        61.95725
621.56        61.43369
621.99        60.21204
622.42        60.95292
622.85        63.16882
623.28        62.81198
623.71        62.34321
624.14        62.12315
624.57        61.86971
625.00        61.73415
625.43        61.82778
625.86        61.35817
626.29        61.57095
626.72        61.74678
627.15         61.5657
627.58        61.46058
628.01        61.18557
628.44        61.32992
628.87        60.95256
629.30        60.67245
629.73        60.93499
630.16         60.7907
630.59        60.16215
631.02         59.5319
631.45        58.92561
631.88        58.38338
632.31        57.92916
632.74        57.55756
633.17         57.2397
633.60        56.89962
634.03        56.51333
634.46         56.1671
634.89         55.8367
635.32        55.33338
635.75        54.72792
636.18        54.35805
636.61        54.19585
637.04        53.90606
637.47        53.46547
637.89        53.07222
638.32        52.71491
638.75        52.31945
639.18         51.8956
639.61        51.47971
640.04        51.08065
640.47        50.70518
640.90        50.36185
641.33        50.04517
641.76        49.76282
642.18        49.60131
642.61        49.56391
643.04        49.51212
643.47        49.38199
643.90        49.71169
644.33        49.46302
644.76        49.48584
645.18        49.48818
645.61        49.51267
646.04        49.55807
646.47        49.60374
646.90         49.7189
647.33        49.97691
647.75        50.39925
648.18        50.99959
648.61        51.59162
649.04        51.88415
649.47        51.84728
649.89        51.45882
650.32        51.09092
650.75        51.49439
651.18        52.63847
651.61        53.82988
652.03        54.73541
652.46        55.27274
652.89        55.71191
653.32        55.74218
653.74        55.69375
654.17        57.25641
654.60        58.57154
655.03         56.5303
655.46        58.28144
655.88        62.09681
656.31        66.97838
656.74        154.4861
657.16        101.3774
657.59        35.46091
658.02        26.69416
658.45        46.42233
658.87        59.78544
659.30        63.14915
659.73         63.2512
660.15          60.961
660.58        63.47613
661.01        65.15796
661.44        63.43108
661.86        63.12584
662.29        63.51902
662.72        64.69475
663.14        66.34973
663.57        66.57324
664.00        65.60881
664.42         65.5502
664.85        66.49436
665.27        67.09371
665.70        67.17562
666.13        67.23287
666.55        67.25843
666.98        67.11081
667.41        66.92159
667.83        66.95592
668.26        67.26502
668.69        67.73872
669.11        68.19393
669.54          68.657
669.96        68.43332
670.39        68.17117
670.82        67.86089
671.24        67.74973
671.67        67.98227
672.09        68.58526
672.52        69.27284
672.94        70.03597
673.37        69.60349
673.80        69.43925
674.22        69.33018
674.65        69.34299
675.07        69.49908
675.50        69.64176
675.92        69.77029
676.35        69.98258
676.77        70.25343
677.20        70.52988
677.62        70.81601
678.05        70.94102
678.47        70.85285
678.90        71.31062
679.32        71.08086
679.75        71.09685
680.17        71.27448
680.60        71.40715
681.02        71.53388
681.45        71.55971
681.87        71.49311
682.30        71.41403
682.72        71.38186
683.15        71.35272
683.57        71.43169
684.00          71.837
684.42        72.57997
684.85        72.98625
685.27        73.02397
685.70        72.97848
686.12        72.90068
686.54        72.84911
686.97        72.87147
687.39        72.90859
687.82        72.95129
688.24        73.22961
688.66        73.64529
689.09        73.64907
689.51        73.58225
689.94        73.61892
690.36        73.87509
690.78        74.09456
691.21        74.23874
691.63        74.36015
692.06        74.45156
692.48        74.51498
692.90        74.57838
693.33        74.66962
693.75        74.79724
694.17        74.96249
694.60        75.15987
695.02        75.34071
695.44        75.45272
695.87        75.73038
696.29        76.14126
696.71        75.94901
697.14        75.40922
697.56        76.03822
697.98        77.49741
698.41        77.55142
698.83        76.61281
699.25        76.07198
699.68        76.15565
700.10        76.09976
700.52        75.93644
700.94        76.09627
701.37        76.51268
701.79        76.94608
702.21        77.30054
702.64        77.64135
703.06        77.89393
703.48        77.93248
703.90        77.76473
704.33        77.43203
704.75        77.05003
705.17        76.90609
705.59        77.07322
706.01        77.34415
706.44        77.61677
706.86        78.36793
707.28        78.49014
707.70        78.89392
708.12        79.19782
708.55        79.13234
708.97         78.7601
709.39        78.52271
709.81        78.51315
710.23        78.50921
710.66         78.5376
711.08        78.82522
711.50         79.2226
711.92        79.38819
712.34        79.26897
712.76        78.95149
713.19        78.61133
713.61        78.57192
714.03        78.88708
714.45        79.43327
714.87         80.0174
715.29        80.26097
715.71        80.09724
716.13        79.64254
716.56         79.1094
716.98         78.8731
717.40        79.02325
717.82         79.4444
718.24        79.96694
718.66        80.30389
719.08         80.3699
719.50        80.25834
719.92        80.06155
720.34        79.95192
720.76        79.98693
721.19        79.95922
721.61        80.10558
722.03         80.2929
722.45        80.55445
722.87        80.79739
723.29        80.99387
723.71        81.16878
724.13        81.30294
724.55        81.34979
724.97        81.35324
725.39        81.36855
725.81        81.40257
726.23         81.5368
726.65        81.75568
727.07        81.51461
727.49        81.63173
727.91        81.48264
728.33        81.36964
728.75        81.36444
729.17        81.49083
729.59         81.6973
730.01        81.94151
730.43        82.16936
730.85        82.35976
731.27        82.56228
731.69        82.72494
732.10        82.74126
732.52        82.59964
732.94        82.37067
733.36        82.22115
733.78        82.26215
734.20        82.52483
734.62        83.33379
735.04        84.38523
735.46        84.36752
735.88        83.55386
736.30        83.75774
736.72        84.98601
737.13        85.65823
737.55        85.41622
737.97        85.36588
738.39        85.54228
738.81         84.5841
739.23        83.11919
739.65        84.17287
740.06        87.08721
740.48        87.57478
740.90        85.73612
741.32        84.50294
741.74        85.25008
742.16        85.36721
742.57        85.24155
742.99        85.79848
743.41        86.84746
743.83        87.53873
744.25        87.72219
744.67        87.61929
745.08        87.42451
745.50        87.45538
745.92        87.80064
746.34        88.31098
746.75        88.84423
747.17         89.1498
747.59            89.2
748.01        89.16235
748.42         89.1459
748.84        89.23962
749.26        89.60052
749.68        90.16566
750.09        90.86387
750.51        92.03485
750.93        93.22919
751.35        92.85014
751.76        91.29227
752.18        90.80132
752.60        91.44044
753.01        91.69441
753.43         91.4866
753.85        91.63041
754.27        92.14163
754.68        92.72924
755.10        93.27256
755.52        93.73892
755.93        94.05327
756.35        94.16811
756.77        94.25385
757.18        94.38705
757.60         94.6268
758.02        95.45137
758.43        96.22949
758.85        95.58022
759.26        93.30629
759.68        92.30409
760.10        94.62567
760.51        96.51928
760.93        95.45734
761.34         93.6321
761.76        93.47054
762.18        92.49503
762.59        91.91371
763.01        92.33271
763.42         93.6904
763.84        94.87751
764.26        95.60703
764.67        95.66848
765.09        95.13487
765.50        95.17481
765.92        95.70351
766.33        93.66302
766.75         92.1401
767.16        91.50956
767.58        91.87442
768.00        93.78032
768.41        96.45084
768.83        98.44092
769.24        98.90367
769.66         97.7904
770.07        95.84216
770.49        93.87402
770.90        92.47349
771.32        93.55186
771.73        96.26044
772.15        95.74514
772.56          92.528
772.97        91.90298
773.39        93.78488
773.80        94.44423
774.22        93.62366
774.63        93.53403
775.05        94.12639
775.46        94.43185
775.88        94.33981
776.29        94.11013
776.70        93.84928
777.12        93.78513
777.53        93.97816
777.95        94.27549
778.36        94.54637
778.77        94.53548
779.19        94.24187
779.60        93.83305
780.02        93.47095
780.43         93.3597
780.84        93.73339
781.26        94.24609
781.67        94.85258
782.09        96.50826
782.50        98.38418
782.91        97.09843
783.33        93.65559
783.74         92.5597
784.15        94.04825
784.57        95.35155
784.98         95.8749
785.39        95.82557
785.81        95.17385
786.22        94.23964
786.63        93.49925
787.04        93.32531
787.46        93.82168
787.87        95.01344
788.28           96.47
788.70        97.24638
789.11        97.13235
789.52        96.58053
789.93        95.88306
790.35        95.16818
790.76        94.69667
791.17        94.94148
791.58        95.74776
792.00        96.24866
792.41        96.23131
792.82        96.24051
793.23        96.37521
793.65        95.70271
794.06        94.73863
794.47        95.97206
794.88        98.45212
795.29        98.24466
795.71        95.25509
796.12        92.90356
796.53        91.84103
796.94        91.62934
797.35        92.34661
797.76        93.90923
798.18        95.61533
798.59        96.68883
799.00        96.72436
799.41        95.64982
799.82        94.04883
800.23        93.12178
800.64        93.13374
801.06        93.63247
801.47         94.4002
801.88        94.95434
802.29        95.10371
802.70        95.03143
803.11        94.82681
803.52        94.59892
803.93        94.43446
804.34        94.27155
804.75        94.14075
805.17         94.2597
805.58        94.71117
805.99        94.95384
806.40        94.96103
806.81        95.88895
807.22        97.11514
807.63        95.93242
808.04         93.0544
808.45        91.92319
808.86        92.80841
809.27        93.94064
809.68         94.8196
810.09        95.32525
810.50        95.22508
810.91        94.59823
811.32        93.74439
811.73        93.14209
812.14        92.93535
812.55        92.95451
812.96        93.17225
813.37        93.51842
813.78        93.92316
814.19        94.46976
814.60         94.9047
815.01        94.82066
815.42        94.17596
815.83        93.03309
816.24        91.87898
816.65        91.58003
817.05        92.38604
817.46        94.01305
817.87        95.80076
818.28        96.55669
818.69        95.96455
819.10        94.32487
819.51        92.42455
819.92        91.59595
820.33        92.18148
820.74        93.77789
821.14        95.61296
821.55        96.31796
821.96        95.59734
822.37        93.92634
822.78        92.01946
823.19        90.92629
823.60        90.92635
824.00        91.75365
824.41         92.8987
824.82        93.63566
825.23        93.66713
825.64        93.26765
826.04         92.6995
826.45         92.3391
826.86        92.28854
827.27        92.36198
827.68        92.50086
828.08        92.67931
828.49        92.78346
828.90        92.93697
829.31        93.01308
829.72        92.76122
830.12        92.19643
830.53        91.38429
830.94        90.69791
831.35        90.65336
831.75        91.38105
832.16        92.67681
832.57         94.1982
832.97        95.22582
833.38        95.42725
833.79        95.00655
834.20         94.3315
834.60        93.97473
835.01         94.1139
835.42        94.55734
835.82        95.05756
836.23        95.10789
836.64        94.63349
837.04        93.84517
837.45        93.01792
837.86        92.57369
838.26        92.62984
838.67        92.98631
839.08        93.49147
839.48        93.86604
839.89        93.95559
840.29        93.88148
840.70        93.63215
841.11        93.15543
841.51        92.49525
841.92        91.63912
842.33        90.83316
842.73        90.50356
843.14        90.69682
843.54        91.35356
843.95        92.10084
844.35        92.37883
844.76        92.03278
845.17        91.24599
845.57        90.35584
845.98         89.8997
846.38        90.00317
846.79        90.46901
847.19        91.08408
847.60        91.36126
848.00        91.20507
848.41        90.75979
848.81        90.24267
849.22        89.88819
849.62        89.83694
850.03        90.02234
850.43        90.43031
850.84        90.90926
851.24         91.4445
851.65        91.84355
852.05        92.33375
852.46        93.08219
852.86        94.07865
853.27        95.28294
853.67        95.99291
854.07        95.29028
854.48        93.21204
854.88        90.10312
855.29        87.11632
855.69        85.91998
856.10        86.84428
856.50        89.66943
856.90        93.35706
857.31        95.50172
857.71        95.31214
858.12        93.41969
858.52        90.96115
858.92        89.46361
859.33        89.25826
859.73        89.94091
860.13         91.1636
860.54        92.20875
860.94        92.85317
861.34         93.2681
861.75        93.56763
862.15        94.01034
862.55        94.60878
862.96        95.19326
863.36        95.64996
863.76        95.76434
864.17        95.51482
864.57        95.08724
864.97        94.64867
865.38        94.42259
865.78        94.52006
866.18        94.78505
866.58        95.24027
866.99        95.89434
867.39        96.77557
867.79        97.92331
868.19         98.9211
868.60        98.98564
869.00        97.99812
869.40        96.14438
869.80         94.3892
870.21        94.26388
870.61        96.18043
871.01        99.67707
871.41        103.5696
871.81        105.8214
872.22        105.8362
872.62        104.2214
873.02        102.0951
873.42        101.1673
873.82        101.8859
874.22         103.911
874.63        106.4153
875.03        107.5718
875.43         106.649
875.83        104.2358
876.23        102.4213
876.63        102.2955
877.03        104.5627
877.44         109.623
877.84        94.72668
878.24        118.1841
878.64         116.314
879.04        110.8326
879.44        109.9891
879.84        109.3884
880.24        107.7765
880.64         108.979
881.04        112.2884
881.44        114.3088
881.84        113.5146
882.24        110.9356
882.65        108.1909
883.05         107.355
883.45        108.7732
883.85        111.7767
884.25        115.2103
884.65        117.0761
885.05         116.706
885.45        114.8375
885.85        112.6012
886.25        111.5203
886.65        111.9275
887.05        113.2882
887.45        115.0658
887.85        116.3123
888.25        116.6511
888.65         116.455
889.04        115.8507
889.44        115.0608
889.84        114.2151
890.24         113.196
890.64        112.3005
891.04        112.0199
891.44        112.3986
891.84         113.354
892.24        114.3933
892.64        114.5822
893.04         113.784
893.44        112.4241
893.83        111.0895
894.23        110.6602
894.63        111.2929
895.03        112.6288
895.43        114.5239
895.83        116.6732
896.23        118.7737
896.63        120.8594
897.02        122.3279
897.42        122.2251
897.82        120.5104
898.22          117.54
898.62        114.3822
899.01        112.6129
899.41        112.6135
899.81        113.9117
900.21        115.7791
900.61         116.984
901.00        117.1527
901.40        116.6878
901.80        115.9795
902.20        115.6387
902.59        115.8436
902.99        116.3079
903.39        116.8286
903.79        117.1022
904.18        117.0219
904.58        116.7682
904.98        116.4277
905.38        116.1095
905.77        115.8441
906.17        115.5899
906.57        115.3936
906.96        115.3868
907.36        115.5147
907.76        115.7557
908.15        115.9196
908.55         115.566
908.95        114.6836
909.34        113.3856
909.74        112.0723
910.14        111.1961
910.53        110.9304
910.93        111.2053
911.33        111.8656
911.72        112.6085
912.12        113.2111
912.52         113.656
912.91          114.07
913.31        114.7221
913.70        115.7082
914.10        116.9523
914.49        118.0736
914.89        117.9246
915.29        116.2984
915.68        113.6276
916.08        111.1717
916.47        110.0101
916.87        110.2755
917.26        111.6158
917.66        113.1812
918.05         113.607
918.45        112.5589
918.84        110.5368
919.24        108.4668
919.64         107.686
920.03        108.5381
920.42        110.5865
920.82        113.1016
921.21        114.9662
921.61        115.5993
922.00        115.3811
922.40        114.6496
922.79        113.7852
923.19        112.9467
923.58        112.1924
923.98        111.6168
924.37        110.8508
924.77         109.975
925.16        111.0236
925.55        110.5732
925.95        111.7456
926.34        113.3931
926.74          115.24
927.13        116.8351
927.52        117.3243
927.92         116.686
928.31        115.1849
928.70        113.1818
929.10        111.2893
929.49        109.7443
929.89        108.4648
930.28        107.8423
930.67        108.5013
931.07        110.3316
931.46        113.1463
931.85        115.9888
932.24        117.4371
932.64        117.1909
933.03        115.5742
933.42        113.0547
933.82        110.8528
934.21        109.4522
934.60        108.6243
934.99        108.3826
935.39        108.5147
935.78        108.9591
936.17        110.3071
936.56        112.3285
936.96        111.3326
937.35         110.655
937.74        107.9975
938.13        105.9328
938.53        105.6604
938.92        107.1261
939.31        110.0924
939.70        113.4551
940.09        114.5091
940.49          112.37
940.88        108.2056
941.27        103.9681
941.66        101.9063
942.05        102.3037
942.44        104.4463
942.84        107.3923
943.23        109.5906
943.62        110.3404
944.01        110.0558
944.40        109.3171
944.79        109.0331
945.18        109.4786
945.57         110.372
945.97        111.0898
946.36        110.5545
946.75          108.64
947.14        106.1688
947.53        104.1154
947.92         103.276
948.31         103.644
948.70        104.9761
949.09        106.8676
949.48        108.3302
949.87        108.8435
950.26        108.5861
950.65        107.9768
951.04        107.7199
951.43        107.9896
951.82        108.5259
952.21        108.9369
952.60        108.6525
952.99        107.5689
953.38        105.9461
953.77         104.268
954.16        103.1749
954.55        102.8268
954.94        103.1241
955.33        103.6128
955.72        103.5215
956.11        102.6911
956.50        101.3238
956.89        100.1648
957.28        100.5437
957.66        102.8158
958.05        106.2616
958.44        109.8003
958.83        111.8598
959.22        112.0479
959.61        110.7496
960.00        108.7077
960.39        107.1518
960.78        106.4924
961.16        106.4914
961.55        106.5736
961.94         105.819
962.33        104.0943
962.72        101.8661
963.11        99.91749
963.49        99.22475
963.88        99.91418
964.27        101.7162
964.66        103.8829
965.04        104.8467
965.43          103.94
965.82        101.8054
966.21        99.41904
966.60        98.01074
966.98        97.81289
967.37        98.36389
967.76        99.26997
968.15        99.78482
968.53        99.61798
968.92        99.04221
969.31        98.25786
969.69        97.43797
970.08         96.7076
970.47        96.03893
970.86         95.4604
971.24        95.10213
971.63        94.97545
972.02        95.02504
972.40        95.49171
972.79        96.65735
973.17        98.65171
973.56        101.2791
973.95        103.6974
974.33         104.331
974.72        102.8158
975.11        99.68817
975.49        96.49429
975.88        95.35422
976.26        96.56261
976.65        99.73854
977.04        103.4952
977.42        104.3435
977.81        101.0731
978.19        95.18787
978.58        89.68217
978.96        87.70817
979.35        89.73545
979.74        94.95287
980.12         102.226
980.51        107.4858
980.89        109.1109
981.28        108.1425
981.66        105.6912
982.05        103.2692
982.43        101.3699
982.82        99.61008
983.20        98.47233
983.59        98.90865
983.97        101.1387
984.35        105.1542
984.74        109.9582
985.12        113.3877
985.51        113.9035
985.89        111.9335
986.28        108.1455
986.66        103.9482
987.04        100.4952
987.43        97.84882
987.81        96.17513
988.20        95.66027
988.58        96.28645
988.96        98.28935
989.35        102.2531
989.73         108.353
990.12        114.1503
990.50        118.2803
990.88        119.3541
991.27        117.4999
991.65        113.2758
992.03        106.7268
992.42        99.52369
992.80        95.09254
993.18        94.67497
993.56        96.78721
993.95        99.62778
994.33        101.3464
994.71        101.5287
995.10        101.0429
995.48        100.0201
995.86        98.49947
996.24        96.61011
996.63        93.98145
997.01        91.52224
997.39        91.76015
997.77        95.54274
998.15        102.0822
998.54        108.6515
998.92        111.8396
999.30        110.6786
999.68        106.1162
1000.06        99.42968
1000.45        94.02151
1000.83        91.45338
1001.21        90.65827
1001.59        91.45377
1001.97        93.72361
1002.35        97.33878
1002.73        103.2927
1003.12        109.6009
1003.50        110.4203
1003.88        103.3524
1004.26        91.31538
1004.64        80.60357
1005.02        76.79877
1005.40        80.55972
1005.78          92.437
1006.16        112.2724
1006.54        127.0407
1006.92        126.1088
1007.30        116.6096
1007.69        107.6999
1008.07        104.5103
1008.45        107.4197
1008.83        117.4398
1009.21        141.6605
1009.59        188.8885
1009.97        242.3456
1010.35        220.7856
1010.73        126.1017
1011.11        88.20482
1011.49        84.36253
1011.86        89.34968
1012.24        94.35303
1012.62        97.17836
1013.00        98.60602
1013.38        99.78079
1013.76        103.1879
1014.14        114.7423
1014.52        138.6044
1014.90        175.1581
1015.28        215.5519
1015.66        238.6411
1016.04        230.0905
1016.41        191.1509
1016.79         140.187
1017.17        101.0992
1017.55        80.60623
1017.93         71.4059
1018.31        68.97573
1018.69        71.06424
1019.06        77.09911
1019.44          88.424
1019.82        108.7814
1020.20        140.9412
1020.58         188.969
1020.95        264.8213
1021.33        423.5747
1021.71       -2053.424
1022.09       -72.31216
1022.46         33.8801
1022.84        66.44458
1023.22         76.0649
1023.60         69.7816
1023.97       -64.60901
1024.35        177.4602
1024.73        158.8644
