SpectraSmart Spectrum 2.9.0.0
--------- Device Information -----------
Spectrum Name :  反射率_0
Saving Time :  2024/04/26 00:46:30
Spectro-Module Model Name : SE2030-DUVN
Spectro-Module Serial Number : OS361AC55029948
Wavelength Start : 200
Wavelength End : 1025
Wavelength Unit : Wavelength(nm)
Spectrum Unit : Reflectance(%)
-----------Spectrum Setting ------------
Integration Time : 20ms
Average : 10
Boxcar : 0
Background removal :  enabled
linearity correction :  enabled
SC :  disabled
Intensity correction :  disabled
DWT denoise :  enabled
savitzky-golay :  disabled
FFT :  disabled
Running average :  disabled
Kalman :  disabled
High pass :  disabled
---------------BEGIN--------------------
Wavelength(nm)             Reflectance(%)
200.29               0
200.75        84.55403
201.21        75.99222
201.67        67.58995
202.13        63.44965
202.58        63.81356
203.04        67.84831
203.50         73.3624
203.96        76.39823
204.42          75.967
204.88        73.49443
205.34        70.96515
205.80        70.44969
206.26        72.78513
206.72        79.55117
207.18        93.22291
207.64        104.3255
208.10        94.49879
208.55        76.54741
209.01        66.13061
209.47        64.32976
209.93        67.81184
210.39        75.22108
210.85        82.79443
211.31        82.30283
211.77        71.69295
212.23         54.4392
212.69        37.63525
213.14        32.04888
213.60        39.56356
214.06        56.97694
214.52        77.70223
214.98        91.35658
215.44        94.95855
215.90        91.81756
216.36        85.17734
216.81        79.52281
217.27        76.64066
217.73        74.95406
218.19        73.41141
218.65        70.65494
219.11        65.86138
219.57        58.64291
220.02        49.56419
220.48        43.41538
220.94        43.04275
221.40         47.7686
221.86        52.51839
222.32        51.79189
222.77        46.18489
223.23        38.75411
223.69         32.9018
224.15        32.18532
224.61        36.05334
225.06        42.68757
225.52        49.13676
225.98         51.7143
226.44        49.87656
226.90        45.31062
227.36        40.25726
227.81        37.74922
228.27        38.65562
228.73        41.57803
229.19        45.34365
229.65        48.22309
230.10        49.62465
230.56        50.21842
231.02         50.1698
231.48        49.58398
231.93        48.61319
232.39        47.24266
232.85        45.82994
233.31        45.04289
233.77         44.9905
234.22        45.50958
234.68        46.22854
235.14        46.30652
235.60        45.53219
236.05        44.28979
236.51        42.91106
236.97        41.76151
237.43        40.98274
237.88        40.48149
238.34        40.55626
238.80        41.99305
239.26        44.97064
239.71        49.34997
240.17        54.01595
240.63        57.46417
241.08        59.29626
241.54        59.72014
242.00        59.48855
242.46         59.8921
242.91        61.89069
243.37         66.5503
243.83        81.63699
244.28         135.562
244.74         206.195
245.20        179.8914
245.66        149.0595
246.11        138.5818
246.57         139.027
247.03        149.3688
247.48        175.0665
247.94        130.8748
248.40        95.28764
248.85        88.01612
249.31        87.57319
249.77        89.37697
250.22        92.85793
250.68        98.81651
251.14        106.5709
251.59        109.2634
252.05        101.6269
252.51        87.76688
252.96        74.46797
253.42        67.47363
253.88        65.87661
254.33        67.48148
254.79        71.54207
255.25        76.32531
255.70        80.45943
256.16        84.13657
256.62        85.82401
257.07        83.93893
257.53        79.45599
257.99        73.08648
258.44         66.7449
258.90        63.54522
259.35        62.71192
259.81         63.0935
260.27        62.83193
260.72        60.13757
261.18        55.67576
261.63        50.22992
262.09        45.32447
262.55         42.0913
263.00        40.46459
263.46        39.91192
263.91         39.5443
264.37         38.6499
264.83        37.07668
265.28        35.00846
265.74        33.04343
266.19        31.84918
266.65        31.60144
267.11        31.89975
267.56        32.19014
268.02        31.80886
268.47        30.65496
268.93        28.96927
269.38        27.09769
269.84        25.85965
270.30        25.47362
270.75        25.70298
271.21        26.13461
271.66        26.15478
272.12        25.59703
272.57        24.67245
273.03         23.6786
273.48        22.98061
273.94        22.69403
274.39        22.64588
274.85        22.66539
275.31        22.51136
275.76        22.11833
276.22        21.60331
276.67        21.05525
277.13        20.67265
277.58        20.45083
278.04        20.33569
278.49        20.21319
278.95        19.97115
279.40        19.56746
279.86        19.09992
280.31        18.59263
280.77        18.17652
281.22        17.85023
281.68        17.59517
282.13        17.40503
282.59        17.29144
283.04        17.24087
283.50        17.27453
283.95        17.30915
284.41        17.22595
284.86        17.00742
285.32        16.69584
285.77        16.42491
286.22        16.45119
286.68        16.77991
287.13        17.29712
287.59        17.78138
288.04        17.90682
288.50        17.63543
288.95        17.07347
289.41        16.42942
289.86        15.92019
290.32        15.66208
290.77        15.57859
291.22         15.6423
291.68        15.77494
292.13        15.95381
292.59         16.2032
293.04        16.53864
293.50        16.97605
293.95        17.49353
294.40        18.04277
294.86        18.55641
295.31        18.95299
295.77        19.22272
296.22        19.39913
296.68        19.53081
297.13        19.66925
297.58        19.85925
298.04        20.10612
298.49        20.43719
298.95         20.9248
299.40        21.55736
299.85        22.30022
300.31        23.06762
300.76        23.73498
301.21        24.24679
301.67          24.654
302.12        24.94619
302.58        25.16018
303.03        25.30947
303.48        25.40294
303.94        25.54676
304.39        25.87127
304.84        26.39453
305.30        27.06307
305.75         27.7202
306.20        28.12935
306.66        28.25955
307.11        28.17519
307.57        28.02104
308.02        27.94688
308.47        28.02583
308.93        28.20615
309.38        28.44993
309.83         28.7289
310.29        29.00469
310.74        29.27176
311.19        29.49532
311.65        29.61764
312.10        29.62749
312.55        29.54676
313.00        29.37447
313.46        29.12454
313.91        28.81619
314.36        28.47371
314.82        28.19612
315.27        28.11725
315.72         28.2565
316.18        28.56323
316.63        28.91639
317.08        29.09028
317.53        29.02062
317.99        28.76234
318.44         28.4194
318.89        28.16413
319.35         28.0394
319.80        27.99829
320.25        27.96799
320.70        27.83372
321.16        27.56999
321.61        27.22476
322.06        26.86073
322.51        26.56257
322.97        26.34286
323.42        26.18163
323.87        26.02862
324.32        25.80925
324.78         25.5061
325.23        25.14765
325.68        24.78306
326.13        24.49269
326.59        24.29114
327.04        24.17335
327.49        24.08306
327.94        23.92895
328.39        23.69116
328.85        23.38898
329.30        23.11362
329.75        22.98741
330.20        23.03971
330.66        23.21041
331.11        23.42894
331.56        23.53655
332.01        23.48431
332.46        23.30183
332.92        23.04036
333.37        22.82409
333.82        22.69299
334.27        22.62782
334.72        22.58152
335.17        22.47565
335.63        22.28963
336.08        22.05307
336.53        21.84296
336.98        21.77938
337.43        21.88006
337.88        22.10994
338.34        22.32265
338.79        22.32586
339.24        22.05791
339.69        21.57834
340.14        21.07197
340.59        20.86231
341.05        21.01042
341.50        21.40254
341.95        21.84299
342.40        22.04406
342.85         21.9382
343.30        21.63254
343.75        21.20165
344.20        20.78369
344.66        20.44669
345.11        20.11653
345.56        19.86712
346.01        19.80636
346.46        19.92241
346.91        20.20238
347.36        20.43445
347.81        20.27263
348.26        19.68155
348.72        18.80642
349.17        17.91636
349.62        17.54102
350.07        17.80146
350.52        18.51108
350.97        19.40236
351.42        20.06547
351.87        20.37002
352.32        20.43091
352.77        20.31023
353.22        20.11127
353.67        19.88636
354.13        19.59797
354.58        19.28374
355.03        19.05125
355.48        18.92363
355.93         18.9031
356.38        18.91679
356.83         18.8277
357.28        18.60679
357.73        18.29048
358.18        17.96742
358.63        17.77817
359.08        17.75237
359.53         17.8472
359.98        17.96157
360.43        17.94034
360.88        17.75262
361.33        17.44598
361.78        17.13161
362.23        16.99008
362.68        17.05148
363.13        17.23856
363.58        17.43121
364.03        17.44632
364.48        17.24035
364.93        16.88566
365.38        16.45026
365.83        16.03967
366.28        15.70453
366.73        15.41977
367.18        15.21472
367.63        15.13752
368.08        15.18065
368.53        15.32335
368.98        15.49331
369.43         15.5705
369.88        15.52629
370.33        15.39655
370.78        15.20861
371.23        15.01911
371.68        14.85604
372.13         14.6947
372.58        14.58473
373.03        14.60892
373.48        14.76718
373.93        15.03377
374.38        15.28663
374.83        15.33344
375.28         15.1411
375.72        14.75886
376.17        14.33649
376.62        14.08104
377.07        14.05071
377.52         14.1746
377.97        14.36904
378.42        14.49769
378.87        14.51273
379.32        14.46137
379.77        14.36061
380.22        14.22846
380.67        14.08152
381.11        13.91507
381.56        13.74939
382.01         13.6337
382.46         13.5778
382.91         13.5651
383.36        13.58592
383.81        13.61591
384.26        13.64333
384.71         13.6825
385.15        13.69033
385.60        13.61273
386.05        13.44228
386.50        13.18159
386.95        12.93181
387.40        12.86787
387.85        13.01437
388.29        13.30733
388.74        13.58584
389.19        13.62941
389.64        13.41489
390.09         13.0064
390.54        12.57322
390.98        12.40254
391.43        12.56566
391.88        12.95099
392.33        13.36299
392.78        13.51542
393.23         13.3643
393.67        13.01628
394.12        12.64487
394.57        12.43867
395.02        12.44225
395.47        12.58738
395.91        12.80159
396.36        12.94174
396.81        12.95818
397.26        12.88275
397.71        12.76673
398.15         12.6689
398.60        12.62662
399.05          12.626
399.50        12.61032
399.95         12.4661
400.39        12.24168
400.84        11.92748
401.29        11.65281
401.74        11.62428
402.18        11.89317
402.63        12.37058
403.08        12.88724
403.53        13.17609
403.97        13.16934
404.42        12.94262
404.87        12.61419
405.32        12.39459
405.76        12.34881
406.21        12.41025
406.66        12.51453
407.11        12.57475
407.55        12.56983
408.00        12.53458
408.45        12.47972
408.90        12.41116
409.34        12.34026
409.79        12.25918
410.24         12.1993
410.68        12.20951
411.13        12.29672
411.58         12.4533
412.03        12.62428
412.47        12.71057
412.92        12.67691
413.37        12.54965
413.81        12.40269
414.26        12.36627
414.71         12.4577
415.15        12.64058
415.60        12.81775
416.05        12.85227
416.49        12.71333
416.94        12.46066
417.39        12.17636
417.83        11.99945
418.28        11.97901
418.73        12.05954
419.17        12.19921
419.62        12.32705
420.07        12.41881
420.51         12.4968
420.96        12.53771
421.41        12.49693
421.85         12.3725
422.30        12.19596
422.74         12.0186
423.19        11.94544
423.64        11.98212
424.08        12.10761
424.53        12.26154
424.98        12.36016
425.42         12.3783
425.87        12.33347
426.31        12.24812
426.76        12.19697
427.21        12.17756
427.65        12.08875
428.10        11.99343
428.54          12.065
428.99        12.31097
429.44        12.65548
429.88        12.95975
430.33        13.04354
430.77        12.87844
431.22        12.52328
431.66        12.13635
432.11        12.00956
432.56        12.16942
433.00         12.4653
433.45        12.75631
433.89        12.96666
434.34        13.00902
434.78        12.79099
435.23        12.49584
435.67        12.50657
436.12        12.78117
436.57        12.88212
437.01        12.75578
437.46        12.63736
437.90        12.55455
438.35        12.44228
438.79        12.32291
439.24        12.26661
439.68        12.28663
440.13        12.31201
440.57        12.33414
441.02         12.5036
441.46        12.71035
441.91         12.5264
442.35        12.05889
442.80        11.82568
443.24        11.81503
443.69         11.8344
444.13        11.82438
444.58        11.69467
445.02        11.48642
445.47        11.46368
445.91        11.58479
446.36        11.57244
446.80        11.41158
447.24        11.25947
447.69        11.16178
448.13        11.11277
448.58        11.12845
449.02        11.20675
449.47        11.30461
449.91        11.34965
450.36        11.32693
450.80        11.25067
451.25        11.17002
451.69        11.15321
452.13        11.21555
452.58        11.32119
453.02        11.42828
453.47         11.4662
453.91         11.4244
454.36        11.33436
454.80        11.22019
455.24        11.12278
455.69         11.0665
456.13        11.02964
456.58         11.0402
457.02        11.12257
457.46        11.27644
457.91        11.48683
458.35        11.69059
458.79        11.77741
459.24        11.73681
459.68        11.58943
460.13        11.42716
460.57         11.3604
461.01        11.42765
461.46        11.58473
461.90        11.76792
462.34        11.86362
462.79        11.84321
463.23        11.73746
463.68         11.6131
464.12        11.58043
464.56        11.66988
465.01        11.84641
465.45         12.0183
465.89        12.09473
466.34        12.06767
466.78        11.90547
467.22        11.70905
467.67        11.75915
468.11        12.02324
468.55        12.13973
468.99        12.08252
469.44        12.05743
469.88        12.10916
470.32        12.27236
470.77        12.48485
471.21        12.55513
471.65        12.45817
472.10        12.33253
472.54        12.23082
472.98        12.20145
473.42        12.26584
473.87        12.41028
474.31        12.58263
474.75        12.69358
475.20        12.72533
475.64        12.69884
476.08        12.65574
476.52        12.65997
476.97        12.72819
477.41        12.84263
477.85        12.96675
478.29         13.0681
478.74        13.13661
479.18        13.11652
479.62        13.04434
480.06        13.19881
480.50        13.31501
480.95        13.42097
481.39         13.4052
481.83        13.37494
482.27        13.33414
482.72        13.17742
483.16        12.97811
483.60        13.04143
484.04          13.392
484.48        13.58861
484.93        13.77289
485.37        14.22271
485.81        14.83937
486.25        14.73978
486.69        19.41962
487.14        15.39373
487.58        10.28467
488.02        12.55293
488.46        14.29583
488.90        14.30731
489.34        14.29325
489.79        14.24572
490.23        15.11701
490.67        15.60021
491.11        15.49412
491.55        15.43619
491.99        15.39419
492.43        15.28727
492.88        15.17363
493.32        15.17686
493.76        15.21333
494.20         15.3909
494.64         15.6675
495.08        16.00957
495.52        16.37488
495.96        16.72133
496.41        16.98408
496.85        17.14837
497.29        17.22378
497.73        17.06242
498.17        16.87449
498.61        17.07502
499.05        17.65778
499.49        17.78223
499.93        17.87214
500.37        17.96147
500.82        18.01045
501.26        18.21305
501.70         18.4798
502.14        18.65232
502.58        18.70286
503.02        18.76655
503.46        18.84451
503.90        18.84468
504.34        18.79039
504.78        18.76384
505.22        18.77716
505.66        18.83052
506.10        18.91194
506.54        18.95181
506.98        18.93493
507.42        19.06123
507.86        19.04001
508.30        19.18194
508.74        19.39211
509.18        19.65104
509.62        19.90233
510.06        20.06171
510.50        20.11219
510.94        20.08525
511.38        20.01582
511.82        19.95907
512.26        19.93892
512.70        19.93708
513.14        19.97444
513.58        20.08431
514.02        20.25172
514.46        20.45673
514.90        20.63727
515.34        20.65836
515.78        20.47142
516.22        20.27605
516.66        20.14585
517.10        19.74806
517.54        19.11003
517.98        19.85429
518.42        19.60947
518.86        19.94518
519.30         20.1321
519.74         20.3907
520.18        20.64307
520.62         20.7329
521.06        20.66365
521.50        20.45746
521.93        20.20158
522.37         20.0534
522.81        20.05261
523.25        20.15259
523.69        20.29875
524.13        20.40506
524.57         20.4416
525.01        20.43503
525.45         20.3937
525.89        20.32896
526.32        20.24784
526.76         20.1455
527.20        20.02926
527.64        19.92265
528.08        19.83472
528.52        19.74289
528.96        19.64259
529.40        19.57685
529.83        19.55568
530.27        19.37293
530.71        19.39331
531.15        19.27837
531.59        19.14319
532.03        18.98353
532.46        18.86034
532.90        18.87428
533.34        19.02741
533.78        19.27922
534.22        19.52896
534.66        19.62807
535.09        19.54288
535.53        19.32913
535.97        19.06221
536.41        18.86796
536.85        18.78812
537.28        18.79016
537.72        18.84288
538.16        18.89498
538.60        18.92872
539.04        18.94877
539.47        18.97109
539.91        19.06386
540.35        19.21069
540.79        19.32071
541.22        19.38472
541.66        19.46866
542.10        19.57046
542.54        19.64143
542.97        19.70445
543.41        19.82899
543.85          20.018
544.29        20.26251
544.72        20.50037
545.16        20.64102
545.60        20.66906
546.04        20.61325
546.47          20.572
546.91        20.69858
547.35        21.01681
547.79        21.50376
548.22        22.01101
548.66        22.26239
549.10        22.22271
549.53        22.02235
549.97        21.81472
550.41        21.76585
550.84        21.91992
551.28        22.26785
551.72         22.7387
552.15        23.08198
552.59        23.21434
553.03        23.65017
553.46        23.59035
553.90         23.7286
554.34        23.84684
554.77        23.92458
555.21        23.95784
555.65        24.03241
556.08        24.17394
556.52        24.06603
556.96        24.28017
557.39        24.37056
557.83        24.50916
558.27        24.66578
558.70        24.83484
559.14        24.99214
559.57        25.11795
560.01        25.22959
560.45        25.30287
560.88        25.30086
561.32        25.24718
561.75        25.14392
562.19        25.05715
562.63        25.05411
563.06        25.14468
563.50        25.30667
563.93        25.49807
564.37        25.67736
564.80        25.80911
565.24        25.88553
565.68        25.92012
566.11        25.96451
566.55        26.04777
566.98        26.13801
567.42        26.25107
567.85        26.41283
568.29        26.63744
568.72        26.84422
569.16        27.07166
569.60        27.40847
570.03        27.72289
570.47        27.83088
570.90        27.85798
571.34        27.28612
571.77        27.90721
572.21        27.92903
572.64        27.91844
573.08         27.6827
573.51        26.85836
573.95        28.05294
574.38        29.68636
574.82        29.30211
575.25        28.83309
575.69        27.94147
576.12        27.49948
576.56        27.44937
576.99        28.03236
577.42        29.38899
577.86        29.17849
578.29         29.0712
578.73        30.20735
579.16        27.81761
579.60        25.60807
580.03        26.75258
580.47        28.50615
580.90        28.79028
581.33        28.30191
581.77         27.8891
582.20        30.38809
582.64        29.92382
583.07        25.55359
583.51        25.03183
583.94        24.57579
584.37        25.58791
584.81        26.70919
585.24        27.90553
585.68        28.36106
586.11        27.88565
586.54        25.91131
586.98        25.20128
587.41        25.57306
587.85        26.83935
588.28        27.41382
588.71        26.12385
589.15        25.16709
589.58        25.81993
590.01         25.8726
590.45        26.35503
590.88          26.672
591.31         26.4011
591.75        26.19984
592.18        26.25357
592.61        26.89212
593.05        27.34805
593.48        28.32178
593.91         28.7105
594.35        26.27069
594.78        25.92204
595.21        26.09597
595.65        27.46195
596.08        28.54258
596.51        27.55403
596.94        26.95365
597.38        27.40211
597.81        28.68406
598.24        29.49966
598.68        29.05207
599.11        29.07281
599.54        30.21056
599.97        31.23661
600.41         29.7682
600.84        30.25304
601.27        31.08203
601.70        30.89417
602.14        31.17878
602.57        31.01761
603.00         31.6655
603.43        32.84596
603.87        34.00154
604.30        34.23574
604.73         33.6593
605.16        33.53643
605.60        34.25342
606.03        35.23756
606.46        36.24693
606.89        36.32144
607.32        35.82419
607.76        36.25033
608.19        37.61353
608.62        37.36558
609.05        36.94823
609.48        37.56546
609.92        37.95097
610.35        38.00375
610.78        39.43674
611.21        40.14554
611.64        38.72602
612.07        39.50335
612.50        40.07281
612.94        40.64183
613.37        40.58473
613.80        40.97106
614.23        41.44102
614.66        41.65437
615.09        42.07397
615.52        42.34611
615.96        42.54915
616.39        42.80942
616.82        42.38918
617.25        42.61986
617.68          43.215
618.11         43.7573
618.54        44.08203
618.97        44.05238
619.40        43.89199
619.84        44.05338
620.27        44.85066
620.70        45.36655
621.13        45.62739
621.56        45.15562
621.99        44.78097
622.42        45.36867
622.85         46.7085
623.28        46.67136
623.71         46.2229
624.14        46.05479
624.57        45.80874
625.00         45.7258
625.43        45.66658
625.86        45.22342
626.29        45.25917
626.72        45.51434
627.15        45.25242
627.58        45.27221
628.01        45.26537
628.44        45.22031
628.87        45.13311
629.30        44.96635
629.73        44.90931
630.16        44.64037
630.59        44.22176
631.02        43.71148
631.45         43.1716
631.88        42.68078
632.31        42.26094
632.74        41.89025
633.17        41.54801
633.60        41.20283
634.03        40.84259
634.46        40.47875
634.89        40.10925
635.32        39.72937
635.75        39.34055
636.18        38.94195
636.61        38.54029
637.04        38.14635
637.47        37.75992
637.89        37.38108
638.32         37.0009
638.75        36.62934
639.18        36.27494
639.61        35.94725
640.04        35.64235
640.47        35.34671
640.90        35.06034
641.33        34.78459
641.76        34.53047
642.18        34.36833
642.61         34.3036
643.04         34.2348
643.47        34.11552
643.90        34.31414
644.33        34.11192
644.76        34.09787
645.18        34.06597
645.61        34.04285
646.04        34.02863
646.47        34.01436
646.90        34.06131
647.33         34.2435
647.75        34.58843
648.18        35.09305
648.61        35.61656
649.04        35.98246
649.47        36.14225
649.89        35.95374
650.32        35.72542
650.75        36.19812
651.18        37.31509
651.61        38.38208
652.03        39.09925
652.46        39.42738
652.89        39.64769
653.32        39.73055
653.74        39.83601
654.17        41.54334
654.60        41.94339
655.03        41.09906
655.46        42.09232
655.88         45.1553
656.31        48.82947
656.74        109.2851
657.16        71.10637
657.59        25.19576
658.02         19.3799
658.45          34.138
658.87        44.01268
659.30        46.86423
659.73        46.58092
660.15        45.30499
660.58        47.29483
661.01        48.86975
661.44        47.77586
661.86         47.5071
662.29        47.58846
662.72        48.31124
663.14        49.51217
663.57        49.67976
664.00        49.00669
664.42        49.06411
664.85        49.92294
665.27        50.61827
665.70        50.93718
666.13        51.08279
666.55        51.02512
666.98        50.72697
667.41        50.38664
667.83        50.33038
668.26        50.62468
668.69        51.25425
669.11         51.8005
669.54        52.30714
669.96        52.13607
670.39         51.9216
670.82        51.66711
671.24        51.33967
671.67        51.15939
672.09        51.67791
672.52        52.63092
672.94        53.15833
673.37        52.80046
673.80        52.74669
674.22        52.93908
674.65        53.03632
675.07        53.03444
675.50        52.97598
675.92        52.92623
676.35        53.03072
676.77        53.30687
677.20        53.64864
677.62        53.98668
678.05        54.21362
678.47        54.28847
678.90         54.2588
679.32        54.18597
679.75        54.06872
680.17         54.1496
680.60        54.22958
681.02        54.33076
681.45        54.35385
681.87        54.29059
682.30         54.2067
682.72        54.15973
683.15        54.16645
683.57        54.30486
684.00        54.63662
684.42        55.24997
684.85        55.53072
685.27        55.48031
685.70        55.30024
686.12        55.09028
686.54        54.98441
686.97         55.0208
687.39        55.16348
687.82        55.33666
688.24        55.48267
688.66        55.54515
689.09        55.49989
689.51        55.41846
689.94        55.44692
690.36        55.61424
690.78        55.84858
691.21         56.0899
691.63        56.25797
692.06        56.33047
692.48        56.36911
692.90        56.36811
693.33        56.41882
693.75        56.52013
694.17        56.65285
694.60        56.80426
695.02        56.91772
695.44        56.94654
695.87        57.11755
696.29        57.38824
696.71        57.09288
697.14        56.47436
697.56        56.87678
697.98        58.03615
698.41        58.15439
698.83        57.41557
699.25        57.06549
699.68        57.23391
700.10        57.27873
700.52        57.21191
700.94        57.36915
701.37        57.69608
701.79        58.01209
702.21         58.2453
702.64         58.4453
703.06        58.56036
703.48        58.50386
703.90        58.28638
704.33        57.93934
704.75        57.56232
705.17        57.39141
705.59        57.48583
706.01        57.69049
706.44          57.901
706.86        58.43134
707.28        58.45011
707.70        58.63571
708.12        58.75037
708.55        58.69909
708.97        58.52124
709.39        58.43958
709.81        58.49332
710.23        58.54066
710.66        58.58613
711.08        58.76632
711.50        58.98821
711.92         59.0502
712.34        58.92519
712.76        58.66483
713.19        58.39557
713.61        58.34698
714.03        58.55616
714.45        58.94988
714.87         59.3653
715.29        59.54483
715.71        59.43141
716.13        59.11047
716.56        58.72551
716.98        58.53377
717.40        58.59774
717.82        58.83464
718.24        59.14241
718.66        59.34877
719.08        59.39864
719.50        59.35084
719.92        59.23985
720.34        59.13514
720.76        59.06838
721.19        58.91792
721.61        58.89617
722.03        58.93793
722.45        59.09923
722.87        59.36238
723.29        59.65672
723.71        59.85472
724.13        59.91913
724.55        59.87718
724.97        59.79202
725.39        59.77483
725.81        59.85217
726.23        59.98635
726.65        60.12273
727.07         60.1749
727.49        60.12663
727.91        60.01896
728.33        59.89346
728.75        59.81689
729.17        59.81069
729.59        59.84341
730.01        59.91275
730.43        60.02361
730.85        60.17043
731.27        60.34918
731.69        60.48482
732.10        60.58519
732.52        60.39323
732.94        60.17466
733.36        59.99551
733.78        59.96999
734.20        60.12603
734.62        60.68373
735.04        61.44582
735.46        61.46922
735.88        60.94678
736.30        61.26405
736.72        62.35356
737.13        62.77239
737.55        62.31464
737.97        62.15031
738.39        62.33232
738.81        61.71512
739.23        60.68687
739.65        61.34951
740.06        63.27677
740.48        63.56186
740.90         62.2809
741.32        61.66375
741.74        62.20324
742.16        62.42098
742.57         62.4366
742.99        62.91744
743.41        63.71666
743.83         64.2177
744.25         64.3163
744.67        64.16534
745.08        63.93202
745.50        63.88999
745.92        64.12041
746.34        64.52355
746.75         64.9539
747.17        65.16566
747.59        65.12466
748.01         64.9149
748.42        64.71022
748.84        64.80705
749.26        65.27342
749.68        65.88705
750.09        66.49607
750.51        67.09871
750.93         67.5064
751.35        67.19668
751.76        66.38409
752.18        66.02804
752.60          66.142
753.01        66.07093
753.43        65.86435
753.85        65.91208
754.27        66.20277
754.68        67.21815
755.10        67.59365
755.52        68.11954
755.93        68.34689
756.35        68.29002
756.77        68.14123
757.18        68.07523
757.60        68.14946
758.02         68.7543
758.43        69.48603
758.85        68.80003
759.26        67.26598
759.68        66.99539
760.10        67.96513
760.51        69.20621
760.93        68.71118
761.34        67.12364
761.76        67.42411
762.18        66.82452
762.59         66.4958
763.01        66.74607
763.42        67.55819
763.84        68.15659
764.26        68.41927
764.67        68.55678
765.09        68.56679
765.50        68.67113
765.92        68.71935
766.33        67.75125
766.75        66.23364
767.16        65.78526
767.58        66.56492
768.00        67.88529
768.41        69.38759
768.83        70.43344
769.24        70.61197
769.66        70.00289
770.07        69.00666
770.49        67.78976
770.90         66.7376
771.32        67.46674
771.73        69.40791
772.15        69.00864
772.56        66.66405
772.97        66.20821
773.39        67.56714
773.80         68.0061
774.22        67.35346
774.63         67.2594
775.05        67.71018
775.46        67.99088
775.88        68.01566
776.29        67.98252
776.70        67.91754
777.12        67.89005
777.53        67.93024
777.95         67.9725
778.36        67.94537
778.77        67.76293
779.19        67.45719
779.60        67.07417
780.02        66.74258
780.43        66.77685
780.84        67.28654
781.26        67.63999
781.67        67.80694
782.09         68.9654
782.50        70.61357
782.91        69.26089
783.33        67.19807
783.74        66.23155
784.15        67.01816
784.57        67.50799
784.98        67.47685
785.39         67.5463
785.81        67.63945
786.22        67.45893
786.63        67.17487
787.04         67.2705
787.46         67.7904
787.87        68.40073
788.28        68.84806
788.70        69.64426
789.11        69.16491
789.52        68.86929
789.93        68.45057
790.35        67.94993
790.76        67.51696
791.17        67.56831
791.58        68.03251
792.00        68.26988
792.41        68.19292
792.82        68.24114
793.23          68.461
793.65        68.23944
794.06        67.78762
794.47        68.44345
794.88        69.70305
795.29         69.2625
795.71        67.34256
796.12        66.00321
796.53        65.60815
796.94        65.22763
797.35        65.05231
797.76        66.14705
798.18        67.99271
798.59         68.9568
799.00        68.68748
799.41          67.795
799.82         66.7271
800.23        66.06404
800.64        65.99929
801.06        66.28822
801.47        66.80908
801.88        67.26255
802.29        67.51804
802.70        67.67067
803.11        67.73665
803.52        67.72767
803.93           67.68
804.34        67.55844
804.75        67.39742
805.17        67.39731
805.58        67.63436
805.99        67.66883
806.40        67.50294
806.81        68.11353
807.22        69.01691
807.63        68.03233
808.04        65.71735
808.45        64.81352
808.86        65.53055
809.27        66.44777
809.68        67.18813
810.09        67.70183
810.50        67.80337
810.91        67.52631
811.32        67.06312
811.73        66.73138
812.14        66.62589
812.55        66.62234
812.96        66.71774
813.37        66.89768
813.78         67.1273
814.19        67.46783
814.60        67.71894
815.01        67.55217
815.42        66.93464
815.83        65.92773
816.24        64.92082
816.65        64.60227
817.05        65.17164
817.46        66.40316
817.87        67.77914
818.28        68.36864
818.69         67.9202
819.10        66.66747
819.51        65.20646
819.92        64.54815
820.33        64.95559
820.74         66.1227
821.14        67.47883
821.55        68.00375
821.96        67.48165
822.37        66.27225
822.78        64.90472
823.19        64.15459
823.60        64.23106
824.00        64.92895
824.41        65.88698
824.82        66.56911
825.23        66.73763
825.64        66.56748
826.04        66.23547
826.45        65.99133
826.86        65.91118
827.27        65.88215
827.68        65.84029
828.08        65.72693
828.49        65.47852
828.90        65.19821
829.31        64.92193
829.72         64.6906
830.12        64.55874
830.53        64.48122
830.94        64.52825
831.35        64.78664
831.75        65.28741
832.16        65.94225
832.57        66.62295
832.97        67.03924
833.38         67.0526
833.79        66.74602
834.20        66.31285
834.60         66.0506
835.01        66.06017
835.42         66.2485
835.82        66.48465
836.23        66.47191
836.64        66.17311
837.04        65.70756
837.45        65.22299
837.86        64.95364
838.26         64.9651
838.67        65.14515
839.08        65.42197
839.48        65.66105
839.89        65.77889
840.29        65.83556
840.70        65.79756
841.11        65.59967
841.51        65.26178
841.92        64.77957
842.33        64.31539
842.73        64.15099
843.14        64.30981
843.54        64.74516
843.95        65.21854
844.35        65.38256
844.76        65.13908
845.17        64.62067
845.57        64.02254
845.98        63.64381
846.38        63.56852
846.79        63.68231
847.19         63.9256
847.60        64.12155
848.00        64.23526
848.41        64.29858
848.81        64.33811
849.22        64.31258
849.62        64.26965
850.03        64.20582
850.43        64.19529
850.84        64.32986
851.24        64.65535
851.65        64.99736
852.05        65.40596
852.46        65.79964
852.86         66.1445
853.27        66.48766
853.67        66.50455
854.07        65.80431
854.48        64.45349
854.88        62.61317
855.29        60.89412
855.69        60.17171
856.10        60.60367
856.50        62.08722
856.90        64.10081
857.31        65.40257
857.71        65.59238
858.12        64.93887
858.52        63.93835
858.92        63.23817
859.33        63.00365
859.73         63.0415
860.13        63.31451
860.54        63.75357
860.94         64.3412
861.34         65.0834
861.75        65.80161
862.15        66.28671
862.55        66.44682
862.96        66.32789
863.36         66.0449
863.76         65.8015
864.17        65.68001
864.57        65.66957
864.97        65.80135
865.38        66.11118
865.78        66.62252
866.18        67.25224
866.58        67.87334
866.99        68.25566
867.39        68.37256
867.79        68.29752
868.19        68.00244
868.60        67.45889
869.00        66.72292
869.40        65.84181
869.80          65.252
870.21        65.59519
870.61        67.04295
871.01        69.40048
871.41        71.95912
871.81        73.49215
872.22        73.68998
872.62        72.86192
873.02        71.67158
873.42         71.4873
873.82        72.29904
874.22        73.08292
874.63        73.67184
875.03        73.81059
875.43        73.29835
875.83        73.78081
876.23        71.90428
876.63        70.58585
877.03        69.30067
877.44        68.06426
877.84        109.8608
878.24        74.16862
878.64        76.07666
879.04        79.57726
879.44        73.66214
879.84        70.75277
880.24        77.99992
880.64        80.40208
881.04        79.57022
881.44        78.63368
881.84        77.77142
882.24        76.74434
882.65         76.1032
883.05        76.00606
883.45         76.4764
883.85        77.91837
884.25         79.7749
884.65        80.60894
885.05        80.07118
885.45        78.62905
885.85        77.05106
886.25        76.41222
886.65        76.92147
887.05         78.2203
887.45        79.82152
887.85        80.84904
888.25        80.99033
888.65         80.5508
889.04        79.81482
889.44        79.26054
889.84        79.03358
890.24        78.94141
890.64        78.96919
891.04        79.12989
891.44        79.37753
891.84        79.74724
892.24        80.05997
892.64        79.95815
893.04        79.42595
893.44        78.64847
893.83        77.89425
894.23        77.54604
894.63        77.67006
895.03        78.08506
895.43        78.77673
895.83         79.6899
896.23        80.70094
896.63        81.82701
897.02        82.61396
897.42        82.35001
897.82        80.99437
898.22        78.82652
898.62         76.6572
899.01        75.68468
899.41        76.13821
899.81        77.59817
900.21        79.41315
900.61         80.5127
901.00        80.57489
901.40        79.94137
901.80        78.95834
902.20        78.15801
902.59        77.72671
902.99        77.49095
903.39        77.38048
903.79        77.29592
904.18        77.21717
904.58        77.29403
904.98         77.5438
905.38        77.96416
905.77        78.50886
906.17         79.0583
906.57         79.6253
906.96        80.31245
907.36         81.0125
907.76          81.697
908.15        82.08939
908.55        81.63113
908.95        80.32935
909.34        78.39906
909.74        76.42654
910.14        75.13768
910.53        74.77233
910.93        75.19405
911.33        76.22973
911.72         77.5229
912.12        78.72321
912.52        79.78399
912.91        80.63066
913.31         81.1871
913.70        81.51393
914.10        81.59414
914.49        81.24645
914.89        80.23946
915.29        78.70584
915.68        76.87728
916.08        75.45171
916.47        74.97798
916.87        75.43154
917.26        76.64727
917.66        77.98766
918.05         78.4231
918.45        77.70744
918.84        76.22102
919.24        74.62438
919.64        73.88117
920.03        74.25488
920.42        75.41676
920.82        77.02271
921.21        78.58192
921.61        79.65261
922.00        80.36665
922.40        80.54479
922.79        80.03371
923.19        78.99598
923.58        77.21002
923.98        74.85297
924.37        73.49717
924.77        73.92026
925.16        70.59418
925.55        73.20785
925.95        73.96009
926.34        75.63435
926.74        77.71816
927.13        79.77748
927.52        80.70039
927.92        80.30589
928.31        78.97032
928.70        77.10344
929.10        75.47006
929.49        74.29824
929.89        73.42814
930.28        73.08175
930.67         73.6272
931.07        74.93081
931.46        76.96899
931.85          78.901
932.24        79.45509
932.64        78.40729
933.03        75.90499
933.42        72.72002
933.82        70.58934
934.21        70.03707
934.60          70.647
934.99        71.46062
935.39        71.65266
935.78        71.11202
936.17        69.12674
936.56        65.52322
936.96        67.88685
937.35        66.45936
937.74        68.69634
938.13        70.64351
938.53        72.06375
938.92        73.05367
939.31        73.90643
939.70          74.586
940.09        74.63789
940.49        74.03759
940.88        72.99672
941.27        71.97598
941.66        71.54582
942.05        71.75165
942.44        72.38241
942.84        73.26842
943.23        74.14246
943.62        74.78599
944.01        75.29443
944.40        75.43005
944.79        74.80968
945.18        73.36159
945.57        71.05216
945.97        68.51509
946.36        67.23545
946.75        67.78324
947.14        69.52685
947.53        71.44137
947.92         72.4957
948.31        72.61922
948.70        72.15589
949.09        71.36123
949.48        70.82232
949.87        70.80837
950.26        71.03104
950.65        71.44858
951.04        72.04112
951.43        72.72958
951.82        73.58194
952.21        74.17959
952.60        73.82449
952.99        72.44141
953.38        70.24423
953.77        67.98942
954.16        66.79469
954.55        66.88202
954.94        68.02666
955.33        69.42358
955.72         69.6889
956.11         68.4987
956.50        66.22053
956.89        63.92888
957.28        63.58976
957.66        65.78518
958.05        69.61078
958.44        73.72828
958.83          76.189
959.22        76.49155
959.61        75.16518
960.00        73.00204
960.39        71.30413
960.78        70.51021
961.16         70.2767
961.55        70.15347
961.94        69.39156
962.33        67.88194
962.72        66.07767
963.11        64.49847
963.49        63.72208
963.88        63.82703
964.27        64.64199
964.66        65.83892
965.04        66.72584
965.43        66.91785
965.82        66.63548
966.21        66.22801
966.60        66.19239
966.98        66.65161
967.37        67.39034
967.76        68.20158
968.15        68.67933
968.53        68.67215
968.92        68.28033
969.31        67.72546
969.69         67.2574
970.08        66.94983
970.47        66.77412
970.86        66.57298
971.24         66.0742
971.63        65.25063
972.02        64.18042
972.40        63.24757
972.79        63.13769
973.17        64.09071
973.56        65.83533
973.95        67.79247
974.33        68.83168
974.72        68.50726
975.11        67.15894
975.49        65.47404
975.88        64.40562
976.26         64.0834
976.65        64.27331
977.04        64.44534
977.42        63.46616
977.81        61.17263
978.19        58.21258
978.58        55.88102
978.96        55.31131
979.35        56.64173
979.74        59.62651
980.12        63.80715
980.51        67.07055
980.89        68.63274
981.28        68.79336
981.66         68.1527
982.05        67.54914
982.43        67.23738
982.82        66.90823
983.20        66.79599
983.59        67.29425
983.97        68.52679
984.35        70.55827
984.74        72.69243
985.12        73.48858
985.51        72.14355
985.89        68.84892
986.28        64.81455
986.66        61.92044
987.04        60.93954
987.43        61.39527
987.81        62.15766
988.20        61.71357
988.58        59.53456
988.96        55.23272
989.35        49.52848
989.73        46.76062
990.12        50.20198
990.50        57.97256
990.88        64.88744
991.27        66.86164
991.65        64.44912
992.03        58.86457
992.42        52.62883
992.80        50.19458
993.18        52.77645
993.56        57.89837
993.95        63.21824
994.33         66.7747
994.71        68.09719
995.10        68.22266
995.48        67.41639
995.86        65.78905
996.24        63.47367
996.63        60.09126
997.01        56.28399
997.39        54.52864
997.77        55.85006
998.15        59.80556
998.54        63.94927
998.92        64.91293
999.30        61.66806
999.68        55.14371
1000.06        46.98887
1000.45        41.28804
1000.83        39.68388
1001.21        40.80041
1001.59         43.5202
1001.97        46.80375
1002.35        50.35394
1002.73         55.0062
1003.12        59.57122
1003.50         59.9281
1003.88        54.65833
1004.26        45.99055
1004.64        37.77909
1005.02        33.04427
1005.40        31.79825
1005.78        33.45291
1006.16        39.12791
1006.54        47.79375
1006.92        54.54661
1007.30        57.98617
1007.69        58.77863
1008.07        58.26651
1008.45        56.42476
1008.83        51.64844
1009.21        37.93885
1009.59       -3.508564
1009.97       -105.1191
1010.35       -227.2711
1010.73       -182.4922
1011.11       -88.18011
1011.49       -24.92807
1011.86        17.40054
1012.24        40.55894
1012.62        49.76335
1013.00        50.34036
1013.38        44.37408
1013.76        33.98996
1014.14         28.1937
1014.52        35.20157
1014.90        57.50389
1015.28        88.00921
1015.66        102.2238
1016.04        86.41242
1016.41        47.95984
1016.79        11.03279
1017.17       -1.268201
1017.55        5.612531
1017.93        17.87069
1018.31        29.10793
1018.69        36.63555
1019.06        41.21513
1019.44        44.08158
1019.82        46.36913
1020.20        49.29957
1020.58        53.44329
1020.95        59.02027
1021.33        49.22342
1021.71        540.9803
1022.09        169.3485
1022.46        158.0715
1022.84        160.0772
1023.22        170.4173
1023.60        200.8298
1023.97        505.6795
1024.35       -9.813808
1024.73        49.76037
