SpectraSmart Spectrum 2.9.0.0
--------- Device Information -----------
Spectrum Name :  反射率_0
Saving Time :  2024/04/25 23:54:36
Spectro-Module Model Name : SE2030-DUVN
Spectro-Module Serial Number : OS361AC55029948
Wavelength Start : 200
Wavelength End : 1025
Wavelength Unit : Wavelength(nm)
Spectrum Unit : Reflectance(%)
-----------Spectrum Setting ------------
Integration Time : 20ms
Average : 10
Boxcar : 0
Background removal :  enabled
linearity correction :  enabled
SC :  disabled
Intensity correction :  disabled
DWT denoise :  enabled
savitzky-golay :  disabled
FFT :  disabled
Running average :  disabled
Kalman :  disabled
High pass :  disabled
---------------BEGIN--------------------
Wavelength(nm)             Reflectance(%)
200.29               0
200.75        86.08438
201.21        78.93919
201.67        70.47442
202.13        65.81425
202.58        65.61546
203.04        68.88569
203.50        73.31385
203.96         74.9184
204.42        73.00876
204.88        69.30106
205.34        66.06712
205.80        65.61033
206.26        68.92042
206.72        78.24018
207.18        97.44174
207.64        114.8134
208.10        104.5107
208.55        82.04028
209.01        68.21084
209.47        65.00488
209.93        68.32281
210.39        76.00976
210.85        84.51218
211.31        86.01147
211.77        78.09132
212.23        63.95242
212.69        49.47945
213.14        43.49506
213.60        47.71876
214.06        59.88063
214.52        74.80184
214.98        84.36617
215.44        86.31026
215.90        82.97305
216.36        77.90363
216.81        75.97702
217.27        78.18073
217.73        82.40562
218.19        85.65829
218.65        84.08818
219.11        76.30135
219.57        61.53663
220.02        41.46332
220.48        27.20357
220.94        26.28638
221.40        36.61866
221.86        48.68879
222.32        51.86638
222.77         46.5427
223.23        37.87313
223.69        30.63758
224.15        29.67354
224.61        34.48103
225.06        42.52108
225.52        50.44717
225.98         54.1259
226.44        52.80661
226.90        48.31776
227.36        42.97998
227.81        39.87897
228.27        39.97935
228.73        42.00375
229.19         44.7596
229.65        46.51611
230.10        46.87665
230.56        46.61773
231.02        46.25489
231.48        46.30723
231.93        46.82552
232.39        47.51954
232.85        48.25994
233.31        48.96411
233.77        49.53923
234.22        50.02675
234.68        50.25064
235.14        49.81061
235.60        48.71121
236.05        47.20783
236.51        45.65749
236.97        44.46366
237.43        43.74402
237.88        43.45836
238.34        43.79209
238.80        45.19129
239.26        47.65504
239.71        51.09681
240.17        54.50748
240.63        56.64038
241.08        57.27599
241.54        56.69941
242.00        55.62885
242.46        55.11674
242.91        55.76783
243.37         57.8253
243.83        66.82195
244.28        108.9655
244.74        180.4008
245.20        170.7019
245.66        146.3317
246.11        136.1365
246.57        132.7122
247.03        129.9537
247.48        106.8169
247.94        46.53979
248.40        53.04874
248.85         63.5878
249.31        70.08848
249.77        74.31191
250.22        78.13512
250.68        83.38158
251.14        89.88742
251.59        92.68159
252.05        87.74957
252.51        77.55306
252.96          67.375
253.42        62.19742
253.88        61.33926
254.33        63.09261
254.79        66.64864
255.25        70.22856
255.70        72.91926
256.16        75.20724
256.62         76.2493
257.07        75.13335
257.53        72.51051
257.99        68.57945
258.44        64.52669
258.90        62.60415
259.35        62.08282
259.81         62.2683
260.27        61.70306
260.72        58.97141
261.18        54.73142
261.63        49.59303
262.09        44.98508
262.55        41.94436
263.00        40.39552
263.46        39.87185
263.91         39.4997
264.37        38.56943
264.83        36.94517
265.28        34.81772
265.74        32.81429
266.19        31.65097
266.65        31.49944
267.11        31.92653
267.56        32.35704
268.02        32.11067
268.47         31.0858
268.93        29.53684
269.38        27.79235
269.84        26.63226
270.30         26.2725
270.75          26.494
271.21        26.93061
271.66        27.04288
272.12        26.67473
272.57        25.99962
273.03        25.27788
273.48        24.81716
273.94        24.70992
274.39        24.79593
274.85        24.88892
275.31        24.72431
275.76        24.24248
276.22        23.57226
276.67        22.85753
277.13        22.38127
277.58        22.15437
278.04        22.11209
278.49         22.0772
278.95        21.85016
279.40        21.37751
279.86        20.78743
280.31         20.1806
280.77        19.80599
281.22        19.66703
281.68        19.69242
282.13        19.77192
282.59        19.77901
283.04        19.67799
283.50         19.5457
283.95        19.37976
284.41         19.1894
284.86        18.98418
285.32        18.75986
285.77         18.5977
286.22        18.68005
286.68        18.99111
287.13        19.44451
287.59        19.83502
288.04        19.85299
288.50        19.47466
288.95        18.80146
289.41        18.05462
289.86        17.46844
290.32        17.16331
290.77        17.05718
291.22        17.11419
291.68         17.2406
292.13        17.40517
292.59        17.63219
293.04        17.93276
293.50        18.31917
293.95        18.76809
294.40         19.2313
294.86        19.64454
295.31        19.93041
295.77         20.0838
296.22        20.14289
296.68         20.1589
297.13        20.18775
297.58        20.27577
298.04        20.42391
298.49        20.66849
298.95        21.09325
299.40        21.68489
299.85         22.4079
300.31        23.14277
300.76        23.71346
301.21        24.06046
301.67        24.25062
302.12        24.33252
302.58        24.42902
303.03        24.56216
303.48        24.70765
303.94         24.8995
304.39        25.15959
304.84        25.48488
305.30        25.85904
305.75        26.19325
306.20        26.35563
306.66        26.34353
307.11          26.194
307.57        26.00196
308.02        25.84459
308.47        25.77805
308.93        25.77611
309.38        25.84624
309.83        26.02612
310.29         26.2913
310.74         26.6143
311.19        26.90958
311.65         27.0457
312.10        26.99466
312.55        26.79536
313.00        26.50039
313.46        26.21198
313.91        25.96578
314.36        25.75508
314.82        25.60896
315.27        25.55705
315.72        25.60128
316.18        25.73276
316.63        25.89931
317.08        25.98825
317.53        25.96626
317.99         25.8481
318.44        25.69517
318.89        25.61254
319.35        25.61924
319.80        25.69105
320.25         25.7494
320.70        25.66802
321.16        25.42468
321.61        25.06312
322.06         24.6849
322.51        24.44161
322.97        24.35746
323.42        24.39566
323.87        24.45496
324.32        24.36647
324.78        24.08904
325.23        23.68353
325.68        23.24729
326.13        22.94018
326.59        22.80345
327.04        22.80495
327.49        22.87576
327.94        22.90288
328.39        22.85088
328.85        22.74704
329.30         22.6545
329.75        22.64571
330.20        22.73953
330.66        22.88464
331.11        23.05385
331.56        23.16528
332.01        23.19246
332.46        23.14969
332.92        23.05659
333.37        22.97277
333.82        22.91488
334.27        22.88339
334.72        22.85278
335.17        22.78111
335.63        22.66157
336.08        22.51012
336.53        22.39635
336.98         22.4325
337.43        22.63259
337.88        22.96541
338.34        23.28509
338.79        23.39869
339.24        23.24239
339.69        22.87331
340.14        22.46985
340.59        22.34306
341.05        22.55457
341.50        23.00113
341.95        23.49522
342.40        23.76435
342.85        23.74717
343.30        23.54066
343.75        23.23568
344.20        22.99255
344.66        22.87004
345.11        22.78183
345.56        22.73767
346.01        22.75224
346.46        22.80513
346.91        22.91444
347.36        22.95713
347.81         22.7278
348.26        22.22238
348.72        21.54628
349.17        20.88812
349.62         20.6397
350.07        20.88699
350.52        21.49173
350.97        22.25222
351.42        22.85839
351.87        23.20556
352.32        23.37109
352.77        23.38255
353.22        23.29183
353.67        23.13288
354.13        22.88773
354.58        22.60021
355.03        22.38515
355.48        22.27215
355.93        22.25945
356.38        22.28085
356.83         22.2143
357.28        22.03091
357.73         21.7587
358.18        21.48118
358.63        21.32903
359.08        21.32686
359.53        21.43742
359.98        21.54401
360.43        21.46791
360.88        21.17962
361.33         20.7351
361.78        20.28869
362.23        20.08981
362.68        20.18331
363.13        20.47529
363.58        20.79205
364.03         20.8645
364.48        20.62981
364.93        20.18331
365.38        19.64828
365.83        19.22039
366.28        18.96993
366.73        18.84162
367.18        18.80346
367.63        18.80519
368.08        18.81508
368.53        18.84485
368.98        18.88002
369.43        18.88857
369.88        18.86332
370.33          18.812
370.78        18.71787
371.23         18.5657
371.68        18.36283
372.13        18.10896
372.58        17.88973
373.03        17.84586
373.48        17.99704
373.93        18.30124
374.38        18.60933
374.83        18.68947
375.28        18.49729
375.72        18.09118
376.17        17.64546
376.62        17.40644
377.07        17.43743
377.52        17.65214
377.97        17.92463
378.42         18.0537
378.87        17.98396
379.32        17.79115
379.77        17.54407
380.22        17.33475
380.67        17.19341
381.11        17.08875
381.56        17.00704
382.01        16.94066
382.46        16.88107
382.91        16.83179
383.36        16.79102
383.81        16.74831
384.26        16.70016
384.71        16.65231
385.15        16.57941
385.60        16.45672
386.05        16.27845
386.50        16.04651
386.95        15.82614
387.40         15.7303
387.85        15.77889
388.29        15.93079
388.74        16.08661
389.19        16.09642
389.64         15.9407
390.09        15.65461
390.54        15.35374
390.98        15.23297
391.43        15.34289
391.88        15.61086
392.33        15.88383
392.78        15.93813
393.23        15.74664
393.67        15.38709
394.12        15.03245
394.57        14.86747
395.02        14.92698
395.47        15.14396
395.91        15.41222
396.36        15.52256
396.81        15.41912
397.26         15.1634
397.71        14.86062
398.15         14.6488
398.60        14.58525
399.05        14.62578
399.50        14.69203
399.95        14.63597
400.39        14.50096
400.84        14.27786
401.29        14.07508
401.74        14.05539
402.18        14.26166
402.63        14.61405
403.08          14.985
403.53        15.17453
403.97         15.1332
404.42        14.92302
404.87        14.63639
405.32        14.43547
405.76        14.37131
406.21        14.39504
406.66        14.46135
407.11        14.51062
407.55        14.52683
408.00        14.53098
408.45         14.5185
408.90        14.46802
409.34        14.38273
409.79        14.26835
410.24        14.16753
410.68        14.14279
411.13        14.20684
411.58        14.34595
412.03        14.51274
412.47        14.62253
412.92        14.63635
413.37        14.57283
413.81        14.48245
414.26        14.46075
414.71        14.51823
415.15        14.63091
415.60         14.7191
416.05        14.67429
416.49        14.47914
416.94        14.18935
417.39        13.89028
417.83        13.72466
418.28        13.73799
418.73        13.86931
419.17        14.06782
419.62        14.25139
420.07        14.38866
420.51        14.50198
420.96        14.55566
421.41         14.4879
421.85        14.29979
422.30        14.03758
422.74        13.77701
423.19        13.65836
423.64        13.69349
424.08        13.85408
424.53        14.06883
424.98        14.23319
425.42        14.31123
425.87         14.3201
426.31        14.27882
426.76        14.26565
427.21        14.27251
427.65        14.17523
428.10        14.04468
428.54        14.08488
428.99         14.3103
429.44        14.64423
429.88        14.92416
430.33        14.93786
430.77         14.6608
431.22        14.16971
431.66        13.67641
432.11        13.55629
432.56        13.84512
433.00        14.35833
433.45         14.8925
433.89        15.26881
434.34        15.34988
434.78        15.05152
435.23        14.62201
435.67        14.55604
436.12        14.81659
436.57        14.88284
437.01        14.71038
437.46        14.59667
437.90        14.57443
438.35        14.56243
438.79        14.55071
439.24        14.56201
439.68        14.59977
440.13        14.59562
440.57        14.56896
441.02        14.74866
441.46        15.01898
441.91        14.85681
442.35        14.36847
442.80        14.14214
443.24        14.16197
443.69        14.20734
444.13        14.21289
444.58        14.07472
445.02        13.84393
445.47        13.83188
445.91        13.99126
446.36        13.99194
446.80        13.81627
447.24        13.65668
447.69        13.55682
448.13         13.4927
448.58        13.48163
449.02        13.52567
449.47        13.59784
449.91         13.6512
450.36        13.67384
450.80        13.67124
451.25          13.665
451.69        13.67909
452.13        13.72144
452.58        13.77106
453.02        13.81586
453.47        13.83388
453.91        13.82444
454.36        13.80275
454.80        13.76877
455.24         13.7211
455.69        13.67251
456.13        13.61588
456.58        13.59439
457.02        13.65079
457.46        13.79234
457.91        13.99531
458.35        14.19773
458.79        14.29402
459.24        14.27279
459.68        14.15429
460.13          14.018
460.57        13.95021
461.01        13.98867
461.46        14.09767
461.90        14.23323
462.34        14.31574
462.79        14.32155
463.23        14.26904
463.68         14.2065
464.12        14.21408
464.56        14.31096
465.01        14.47693
465.45        14.61958
465.89        14.65609
466.34        14.58517
466.78         14.3588
467.22        14.10077
467.67        14.15306
468.11        14.47521
468.55        14.63212
468.99        14.58111
469.44        14.55066
469.88        14.59068
470.32        14.74909
470.77        14.96052
471.21        15.01068
471.65        14.87644
472.10        14.71646
472.54        14.59496
472.98        14.56849
473.42        14.65924
473.87        14.85129
474.31        15.07101
474.75        15.19649
475.20        15.20426
475.64         15.1241
476.08        15.01818
476.52        14.98225
476.97        15.04091
477.41        15.16645
477.85        15.30752
478.29        15.41198
478.74        15.46437
479.18         15.4063
479.62        15.28561
480.06        15.43358
480.50        15.54352
480.95        15.64833
481.39        15.61929
481.83        15.58451
482.27        15.54468
482.72        15.36957
483.16        15.14685
483.60        15.22338
484.04        15.61748
484.48        15.86106
484.93        16.09786
485.37        16.52376
485.81        17.04366
486.25        17.00047
486.69        22.24533
487.14        17.79222
487.58        11.81568
488.02        14.43729
488.46        16.44862
488.90        16.47056
489.34         16.4476
489.79        16.30234
490.23        17.15851
490.67        17.62398
491.11        17.48763
491.55        17.41586
491.99        17.36011
492.43        17.23478
492.88        17.09882
493.32        17.08841
493.76        17.11172
494.20         17.2961
494.64        17.59389
495.08        17.96473
495.52        18.35309
495.96        18.69856
496.41        18.92844
496.85        19.03419
497.29         19.0403
497.73        18.80454
498.17        18.56442
498.61        18.76715
499.05        19.40117
499.49        19.53646
499.93        19.63315
500.37        19.73098
500.82        19.77377
501.26         19.9534
501.70        20.17147
502.14        20.26369
502.58        20.22577
503.02        20.24521
503.46        20.33279
503.90         20.3751
504.34        20.37824
504.78        20.40627
505.22        20.46521
505.66        20.53602
506.10        20.59929
506.54        20.64456
506.98          20.658
507.42        20.60122
507.86        20.53291
508.30        20.58866
508.74        20.78083
509.18        21.04593
509.62        21.31458
510.06        21.48637
510.50         21.5327
510.94        21.49108
511.38        21.40353
511.82        21.33747
512.26        21.31833
512.70        21.32135
513.14        21.35782
513.58         21.4463
514.02        21.57151
514.46        21.72458
514.90        21.85357
515.34        21.83817
515.78        21.63552
516.22        21.43697
516.66        21.32177
517.10        20.97232
517.54        20.41235
517.98        21.23123
518.42        21.06964
518.86        21.42934
519.30        21.58653
519.74        21.76909
520.18        21.92952
520.62        21.96227
521.06         21.8842
521.50        21.70496
521.93        21.48974
522.37          21.358
522.81        21.33987
523.25         21.4029
523.69        21.50948
524.13        21.59839
524.57        21.64545
525.01         21.6666
525.45        21.65943
525.89        21.61927
526.32        21.54813
526.76        21.44828
527.20        21.33069
527.64        21.22388
528.08        21.14077
528.52        21.05619
528.96        20.96938
529.40        20.93395
529.83        20.95961
530.27        20.81941
530.71        20.89906
531.15        20.82621
531.59        20.72112
532.03        20.58231
532.46        20.46848
532.90        20.47672
533.34        20.61083
533.78        20.83175
534.22        21.05235
534.66        21.14458
535.09        21.07737
535.53        20.90202
535.97        20.67588
536.41        20.49524
536.85        20.39682
537.28        20.35875
537.72        20.36851
538.16          20.406
538.60        20.45996
539.04        20.52002
539.47        20.58864
539.91         20.7194
540.35        20.88678
540.79        20.99865
541.22        21.04435
541.66        21.09411
542.10        21.14927
542.54        21.16031
542.97        21.16271
543.41        21.24826
543.85        21.42495
544.29        21.67854
544.72        21.93771
545.16        22.09832
545.60        22.13915
546.04        22.08623
546.47        22.03862
546.91        22.16424
547.35        22.48079
547.79        22.93524
548.22        23.38669
548.66        23.59591
549.10        23.53193
549.53        23.31016
549.97         23.0752
550.41        22.98887
550.84        23.10599
551.28        23.38873
551.72         23.7683
552.15        24.11694
552.59        24.38087
553.03        24.59142
553.46        24.75551
553.90        24.90465
554.34        25.05378
554.77        25.16068
555.21        25.22238
555.65        25.31544
556.08        25.45741
556.52        25.32589
556.96        25.52187
557.39        25.57729
557.83        25.67744
558.27        25.79377
558.70        25.93154
559.14        26.08189
559.57        26.22713
560.01        26.38027
560.45        26.50314
560.88        26.53631
561.32        26.49703
561.75        26.39086
562.19        26.29393
562.63        26.28643
563.06        26.38089
563.50         26.5573
563.93         26.7648
564.37        26.93367
564.80        27.03533
565.24        27.10448
565.68        27.15614
566.11        27.21534
566.55        27.31259
566.98        27.42883
567.42        27.58394
567.85        27.80337
568.29         28.0966
568.72        28.36944
569.16        28.63818
569.60        28.98782
570.03        29.28301
570.47        29.29543
570.90         29.1677
571.34        28.59995
571.77        29.06782
572.21        29.04683
572.64        29.04276
573.08        28.70168
573.51         27.9086
573.95        29.20725
574.38         31.0409
574.82        30.43003
575.25        30.05677
575.69        29.07243
576.12        28.61157
576.56        28.56808
576.99        29.22954
577.42        30.48323
577.86        30.66483
578.29        30.22613
578.73        31.69574
579.16        29.05935
579.60        26.57761
580.03        27.75369
580.47        29.56754
580.90        30.08379
581.33        29.53213
581.77        29.24302
582.20        31.79332
582.64        31.17653
583.07        26.83948
583.51         26.2213
583.94        25.55908
584.37        26.57611
584.81        27.88023
585.24        29.27986
585.68        29.89539
586.11        29.12389
586.54        27.02887
586.98         26.4103
587.41        26.87493
587.85        28.04013
588.28        28.63532
588.71        27.20998
589.15        26.43373
589.58        26.93017
590.01        27.22872
590.45        27.72065
590.88        27.77179
591.31        27.52878
591.75        27.54192
592.18        27.63314
592.61        28.14361
593.05        28.35378
593.48        29.58295
593.91        29.81582
594.35        27.48883
594.78        27.12557
595.21        27.26729
595.65        28.59352
596.08        29.61131
596.51        28.58101
596.94          28.025
597.38        28.50512
597.81        29.78859
598.24        30.48992
598.68        30.17258
599.11        30.02518
599.54        31.32596
599.97        32.45334
600.41        30.86401
600.84        31.38726
601.27        32.28774
601.70        32.17725
602.14        32.37714
602.57        32.32927
603.00        33.10929
603.43        34.20547
603.87        35.19167
604.30        35.40833
604.73        34.86278
605.16        34.80581
605.60        35.68121
606.03        36.71901
606.46        37.64121
606.89        37.98975
607.32         37.1651
607.76        37.67136
608.19        39.05178
608.62        38.87398
609.05        38.58586
609.48        39.20793
609.92        39.41316
610.35        39.95375
610.78        41.59689
611.21         42.2236
611.64        40.84148
612.07        41.52794
612.50        42.04179
612.94        42.53791
613.37        42.37778
613.80        43.02171
614.23        43.56042
614.66        43.70387
615.09        44.33773
615.52        44.63379
615.96        44.83279
616.39        45.14267
616.82        44.81231
617.25        44.93639
617.68        45.54639
618.11        46.27613
618.54        46.63558
618.97        46.56856
619.40        46.20058
619.84        46.37688
620.27        47.09708
620.70        47.80242
621.13        48.30275
621.56        48.17907
621.99        47.62671
622.42        48.12689
622.85         49.3568
623.28        49.24285
623.71        48.84414
624.14        48.81312
624.57        48.73632
625.00        48.79567
625.43        48.82874
625.86        48.35989
626.29        48.31046
626.72        48.70873
627.15        48.27736
627.58        48.27991
628.01        48.22567
628.44        48.09441
628.87        47.77644
629.30        47.58509
629.73         47.4691
630.16        47.19912
630.59        46.77415
631.02        46.32885
631.45        45.89709
631.88        45.47155
632.31        45.06049
632.74        44.66092
633.17        44.27082
633.60        43.88789
634.03         43.5088
634.46        43.13769
634.89        42.74749
635.32        42.29416
635.75          41.777
636.18        41.21525
636.61        40.65971
637.04        40.18699
637.47        39.81001
637.89        39.50627
638.32        39.22598
638.75        38.91164
639.18        38.54869
639.61        38.16529
640.04        37.77621
640.47        37.39817
640.90        37.04384
641.33        36.70609
641.76        36.39734
642.18         36.1947
642.61        36.10507
643.04        36.02555
643.47        35.90811
643.90        36.13751
644.33        35.95498
644.76        35.98015
645.18        35.98888
645.61        35.99896
646.04        36.00698
646.47        36.00053
646.90        36.05315
647.33        36.26177
647.75        36.65614
648.18        37.22277
648.61        37.79603
649.04        38.17203
649.47        38.30508
649.89        38.03349
650.32        37.69288
650.75        38.17598
651.18        39.39462
651.61        40.35716
652.03        40.83913
652.46        41.23763
652.89        41.78424
653.32        42.04449
653.74        42.18658
654.17        43.71028
654.60        44.36185
655.03         43.4481
655.46        44.76861
655.88        47.89345
656.31        50.87207
656.74         114.582
657.16        74.59441
657.59        26.27379
658.02        20.43435
658.45        36.09673
658.87        46.49645
659.30        49.10502
659.73        49.52692
660.15        47.60658
660.58        50.03666
661.01        51.61928
661.44        50.53323
661.86        50.39988
662.29        50.68819
662.72        51.61915
663.14        52.97666
663.57        53.19981
664.00        52.48217
664.42        52.48735
664.85        53.30085
665.27        53.89603
665.70        54.09726
666.13        54.20382
666.55        54.19969
666.98        54.00948
667.41        53.79111
667.83        53.83395
668.26        54.20083
668.69        54.77982
669.11        55.36745
669.54        55.90351
669.96        55.79723
670.39         55.5673
670.82        55.25703
671.24        55.20979
671.67        55.52713
672.09         56.0847
672.52        56.63118
672.94        57.19414
673.37        56.77406
673.80        56.67231
674.22        56.70502
674.65        56.79202
675.07        56.94193
675.50        57.11164
675.92        57.30485
676.35        57.57009
676.77        57.89793
677.20         58.2106
677.62        58.47821
678.05        58.65632
678.47        58.72637
678.90        58.72643
679.32        58.71806
679.75        58.66304
680.17        58.80832
680.60         59.0611
681.02        59.22719
681.45        59.32814
681.87        59.28968
682.30        59.20218
682.72        59.14155
683.15        59.14469
683.57        59.30634
684.00        59.71336
684.42        60.42973
684.85        60.80965
685.27        60.83193
685.70        60.77204
686.12        60.70011
686.54        60.57386
686.97        60.48932
687.39        60.72315
687.82        61.15977
688.24        61.39112
688.66         61.3516
689.09        61.26138
689.51        61.21876
689.94        61.28056
690.36        61.48536
690.78        61.77793
691.21        62.08652
691.63        62.35956
692.06        62.54075
692.48        62.54361
692.90        62.44948
693.33        62.48461
693.75        62.68217
694.17        62.94016
694.60        63.21131
695.02        63.42625
695.44        63.52365
695.87        63.71342
696.29        64.00696
696.71        63.83075
697.14        63.40871
697.56         64.0332
697.98        65.39864
698.41        65.40288
698.83         64.6963
699.25        64.20908
699.68        64.25805
700.10        64.24393
700.52        64.20663
700.94        64.48742
701.37        64.98104
701.79        65.41634
702.21        65.69458
702.64        65.89742
703.06        66.00985
703.48        66.00114
703.90        65.89581
704.33        65.69967
704.75        65.48225
705.17        65.44486
705.59         65.6337
706.01        65.88959
706.44        66.11487
706.86        66.70398
707.28        66.72334
707.70        66.93903
708.12        67.07318
708.55        67.00948
708.97        66.79218
709.39        66.68059
709.81        66.73466
710.23        66.81593
710.66        66.93281
711.08        67.23128
711.50         67.5803
711.92        67.71339
712.34        67.59016
712.76        67.27696
713.19        66.94309
713.61         66.8932
714.03        67.18148
714.45        67.71653
714.87        68.28442
715.29        68.54665
715.71        68.42907
716.13        68.04029
716.56        67.58506
716.98         67.4229
717.40        67.63684
717.82        68.11233
718.24         68.6709
718.66        69.01213
719.08        69.04918
719.50        68.88175
719.92        68.62054
720.34        68.45773
720.76        68.45618
721.19        68.43894
721.61        68.59603
722.03        68.75739
722.45        68.95917
722.87        69.21027
723.29        69.46468
723.71        69.63194
724.13        69.68933
724.55         69.6535
724.97        69.58559
725.39        69.57916
725.81        69.65756
726.23        69.82457
726.65         70.0393
727.07        70.07125
727.49          70.162
727.91        70.14089
728.33         70.1218
728.75        70.15195
729.17        70.24404
729.59        70.38004
730.01        70.54963
730.43         70.6924
730.85        70.82206
731.27        71.07637
731.69        71.36259
732.10        71.41975
732.52        71.22267
732.94        70.90285
733.36        70.62064
733.78        70.61089
734.20        70.95007
734.62        71.63393
735.04        72.29816
735.46        73.04622
735.88        71.92182
736.30        72.18339
736.72        73.22168
737.13         73.9427
737.55        73.96634
737.97        73.86114
738.39        73.72138
738.81        72.84377
739.23         71.7212
739.65        72.48713
740.06        74.64084
740.48        74.86903
740.90        73.26839
741.32        72.64872
741.74        73.23762
742.16        73.56437
742.57        73.65288
742.99        74.30663
743.41        75.33842
743.83        75.99555
744.25        76.15334
744.67        76.00124
745.08        75.73189
745.50        75.66035
745.92        75.88745
746.34        76.29282
746.75        76.75359
747.17        77.05249
747.59        77.15539
748.01        77.16599
748.42        77.19605
748.84        77.38123
749.26        77.80241
749.68        78.37064
750.09          78.982
750.51         79.6719
750.93        80.22928
751.35        79.98946
751.76        79.17439
752.18        78.90333
752.60        79.17714
753.01        79.21137
753.43        78.98151
753.85        79.05526
754.27        79.44851
754.68        80.34579
755.10        80.87472
755.52        81.37505
755.93        81.59416
756.35        81.74291
756.77         81.9137
757.18        82.01487
757.60        82.13294
758.02        82.54787
758.43        82.80976
758.85        82.56981
759.26        80.80088
759.68        79.60008
760.10        82.00674
760.51        82.63916
760.93        82.18462
761.34        81.13609
761.76        80.67758
762.18         80.0453
762.59         79.7681
763.01        80.41207
763.42        81.79233
763.84        82.63735
764.26        82.76453
764.67        82.58727
765.09        82.25312
765.50        82.18678
765.92        82.23728
766.33        81.18932
766.75        79.52689
767.16        79.06686
767.58        79.99625
768.00        81.66712
768.41        83.65798
768.83        85.00169
769.24        85.18728
769.66        84.50298
770.07        83.39491
770.49        81.78493
770.90        80.22813
771.32        81.09797
771.73        83.68768
772.15        83.32569
772.56        80.46138
772.97        79.94308
773.39        81.69839
773.80        82.34738
774.22        81.66844
774.63        81.67965
775.05        82.32693
775.46        82.68243
775.88        82.63694
776.29        82.44992
776.70        82.21981
777.12        82.14214
777.53        82.27926
777.95        82.50716
778.36        82.69994
778.77        82.64077
779.19        82.33275
779.60         81.8539
780.02        81.39386
780.43        81.34895
780.84        81.84844
781.26        82.25986
781.67         82.5504
782.09        83.77461
782.50        85.29852
782.91        84.26398
783.33        81.47741
783.74        80.60374
784.15        81.82674
784.57        82.89422
784.98        83.34028
785.39         83.3352
785.81        82.87299
786.22        82.25878
786.63         81.8295
787.04        81.77892
787.46        82.17141
787.87        83.05724
788.28        84.16631
788.70        84.80212
789.11        84.79649
789.52        84.62797
789.93        84.37897
790.35        83.56952
790.76        82.53848
791.17        82.55088
791.58        83.48788
792.00        83.87798
792.41        83.57597
792.82        83.59969
793.23        84.02603
793.65        83.77596
794.06        83.17334
794.47        84.22562
794.88        86.17535
795.29        85.77328
795.71        83.27637
796.12        81.21737
796.53        80.21202
796.94        79.89019
797.35        80.33475
797.76        81.48365
798.18        82.78732
798.59        83.72139
799.00         83.9736
799.41        83.11544
799.82        82.17362
800.23        81.49286
800.64        81.45409
801.06        81.69859
801.47        82.15555
801.88        82.59116
802.29         82.8897
802.70        83.16272
803.11        83.37535
803.52        83.43906
803.93        83.36057
804.34        83.11858
804.75        82.83759
805.17         82.8268
805.58        83.18695
805.99         83.5432
806.40        83.72668
806.81        84.18826
807.22        84.50751
807.63        83.13197
808.04        80.72907
808.45        79.74101
808.86        80.40577
809.27         81.5501
809.68        82.67176
810.09        83.33183
810.50        83.26108
810.91        82.60643
811.32        81.72504
811.73         81.1739
812.14        81.11492
812.55        81.40922
812.96        81.88298
813.37        82.17231
813.78        82.27937
814.19        82.50616
814.60         82.6025
815.01        83.12403
815.42        81.91472
815.83        80.95836
816.24        80.03609
816.65         79.8229
817.05        80.50502
817.46        81.88736
817.87        83.43834
818.28        84.12241
818.69        83.67101
819.10         82.3353
819.51        80.74339
819.92        79.97099
820.33        80.30595
820.74        81.42713
821.14        82.76476
821.55        83.28987
821.96        82.78433
822.37        81.61222
822.78        80.28783
823.19         79.5619
823.60        79.63451
824.00        80.30869
824.41        81.21595
824.82        81.86069
825.23        82.02054
825.64        81.87915
826.04           81.58
826.45        81.32538
826.86        81.18292
827.27        81.04234
827.68        80.92219
828.08         80.9128
828.49         80.9564
828.90        81.12156
829.31        81.27635
829.72        81.15858
830.12        80.75468
830.53        80.13472
830.94        79.58321
831.35         79.4874
831.75        79.95643
832.16        80.81048
832.57         81.8354
832.97         82.5694
833.38        82.77323
833.79         82.5807
834.20         82.1945
834.60        81.92562
835.01         81.8948
835.42        81.99884
835.82        82.12674
836.23        82.01598
836.64        81.65704
837.04        81.17291
837.45         80.7356
837.86        80.61134
838.26        80.86394
838.67        81.35088
839.08        81.94037
839.48        82.38692
839.89        82.55708
840.29        82.54038
840.70        82.34224
841.11        81.95496
841.51        81.42716
841.92        80.74442
842.33        80.09998
842.73        79.82534
843.14         79.9509
843.54        80.43629
843.95        80.98989
844.35        81.18041
844.76        80.88483
845.17        80.25007
845.57        79.52535
845.98        79.10487
846.38        79.08814
846.79        79.32938
847.19         79.7014
847.60        79.88622
848.00         79.8293
848.41         79.6144
848.81        79.37473
849.22        79.22407
849.62        79.25809
850.03         79.4381
850.43         79.7672
850.84        80.15781
851.24        80.60693
851.65        80.93149
852.05        81.30885
852.46        81.84671
852.86        82.53976
853.27         83.3771
853.67        83.78949
854.07        83.04131
854.48        81.17346
854.88        78.46185
855.29        75.86688
855.69        74.77256
856.10        75.44561
856.50        77.71072
856.90        80.69059
857.31        82.36205
857.71        82.08698
858.12        80.39821
858.52        78.28448
858.92        77.05038
859.33         76.9765
859.73        77.71008
860.13        78.93475
860.54        79.98704
860.94        80.63976
861.34         81.0508
861.75        81.31796
862.15        81.68274
862.55        82.17309
862.96        82.65842
863.36        83.06519
863.76        83.26025
864.17        83.22203
864.57        83.07498
864.97        82.95135
865.38        83.02892
865.78        83.38417
866.18        83.86834
866.58         84.4017
866.99        84.83216
867.39        85.15757
867.79        85.46428
868.19        85.55107
868.60         85.0482
869.00        83.95822
869.40        82.39527
869.80        81.10925
870.21        81.25375
870.61        83.11935
871.01        86.35403
871.41        89.89874
871.81        91.93217
872.22        91.95039
872.62        90.46323
873.02        88.48853
873.42        87.74319
873.82        88.50775
874.22        90.09699
874.63        91.91943
875.03        92.70348
875.43        91.90191
875.83         90.6365
876.23        88.65752
876.63        87.96226
877.03        88.73573
877.44        91.21437
877.84        101.3335
878.24        99.10271
878.64        98.81546
879.04        97.11729
879.44        93.86513
879.84        92.07285
880.24        94.34174
880.64        96.01128
881.04        97.40158
881.44        98.14449
881.84        97.50294
882.24         95.9012
882.65        94.34511
883.05        93.89978
883.45        94.75526
883.85        96.74441
884.25        99.11115
884.65        100.3715
885.05        100.0719
885.45        98.73058
885.85        97.18436
886.25        96.57681
886.65        97.14933
887.05        98.51833
887.45         100.192
887.85        101.2945
888.25        101.5008
888.65        101.1147
889.04        100.4078
889.44        99.83765
889.84        99.54894
890.24         99.3716
890.64        99.28419
891.04        99.28963
891.44        99.34615
891.84         99.4819
892.24        99.60093
892.64        99.48322
893.04        99.14007
893.44        98.73129
893.83         98.3497
894.23        98.15645
894.63        98.17276
895.03         98.2599
895.43          98.633
895.83        99.65566
896.23        101.2943
896.63        103.4264
897.02        105.2304
897.42        105.3711
897.82        103.6825
898.22         100.673
898.62        97.52601
899.01        95.97848
899.41        96.41433
899.81        98.23333
900.21        100.6235
900.61        102.2561
901.00        102.7013
901.40        102.3884
901.80        101.6685
902.20        101.0763
902.59        100.8161
902.99        100.6739
903.39        100.5911
903.79        100.5197
904.18        100.4337
904.58        100.4325
904.98        100.5541
905.38        100.8134
905.77        101.1636
906.17        101.5571
906.57        101.8735
906.96        101.9988
907.36          101.86
907.76        101.5129
908.15        101.0279
908.55        100.4195
908.95         99.7824
909.34        99.09338
909.74        98.50407
910.14        98.05344
910.53        97.78654
910.93        97.76371
911.33        97.94522
911.72        98.26557
912.12        98.60703
912.52        98.88232
912.91        99.20049
913.31        99.75991
913.70        100.6345
914.10        101.8124
914.49        102.8833
914.89         102.724
915.29        101.1221
915.68        98.52975
916.08         96.2042
916.47         95.3085
916.87        95.93924
917.26        97.69439
917.66        99.70135
918.05        100.5361
918.45          99.815
918.84        98.06779
919.24        96.10383
919.64        95.08096
920.03        95.34025
920.42        96.49653
920.82        98.12852
921.21        99.66788
921.61        100.6514
922.00        101.2418
922.40        101.3831
922.79        100.9849
923.19        100.1367
923.58        98.86584
923.98        97.30131
924.37        95.86746
924.77        95.02803
925.16        93.65147
925.55        94.01099
925.95        94.73821
926.34        96.44051
926.74        98.71118
927.13        100.9759
927.52        102.0467
927.92        101.7684
928.31        100.4806
928.70        98.65378
929.10        97.12215
929.49        96.13517
929.89        95.50202
930.28        95.38534
930.67        96.05753
931.07        97.34809
931.46        99.23268
931.85        100.9965
932.24        101.5587
932.64        100.7389
933.03        98.74503
933.42        96.07623
933.82        93.97134
934.21        92.86826
934.60        92.51945
934.99        92.64673
935.39        92.93888
935.78        93.34135
936.17         93.8943
936.56        94.29869
936.96        94.79533
937.35         93.5646
937.74        92.25474
938.13        91.22256
938.53        91.33121
938.92        92.57973
939.31        94.86217
939.70        97.45727
940.09        98.40647
940.49        97.07316
940.88        94.29879
941.27        91.43288
941.66        90.05509
942.05        90.36929
942.44        91.82519
942.84        93.87109
943.23        95.63174
943.62         96.6104
944.01        97.03603
944.40        96.97118
944.79        96.50319
945.18        95.67737
945.57         94.3495
945.97        92.59477
946.36        90.91381
946.75        89.75498
947.14        89.21561
947.53         89.1785
947.92         89.3973
948.31        89.79198
948.70        90.42503
949.09        91.27279
949.48        92.19062
949.87        93.00355
950.26        93.58264
950.65        93.90265
951.04        94.03048
951.43        93.98621
951.82        93.76067
952.21        93.25204
952.60        92.33842
952.99        91.07944
953.38        89.58253
953.77        88.20135
954.16        87.40685
954.55        87.27727
954.94        87.74071
955.33         88.3582
955.72        88.36816
956.11        87.60648
956.50        86.26929
956.89        84.98792
957.28        84.92345
957.66        86.45099
958.05        88.96033
958.44        91.67718
958.83        93.46666
959.22        93.99932
959.61        93.51823
960.00          92.443
960.39        91.46703
960.78        90.82855
961.16          90.404
961.55        89.83276
961.94         88.5721
962.33        86.64034
962.72        84.41337
963.11        82.53745
963.49        81.78686
963.88        82.25169
964.27        83.74834
964.66         85.7135
965.04        86.91098
965.43         86.7431
965.82        85.62234
966.21        84.24754
966.60        83.55604
966.98        83.75066
967.37        84.49677
967.76         85.4315
968.15        85.86784
968.53        85.58373
968.92        84.81503
969.31        83.94579
969.69        83.42976
970.08        83.38325
970.47        83.69365
970.86        84.08017
971.24        84.07304
971.63        83.53661
972.02        82.60474
972.40        81.76988
972.79        81.85905
973.17        83.20572
973.56        85.45847
973.95        87.93447
974.33        89.28718
974.72        89.01549
975.11        87.53059
975.49        85.69225
975.88        84.72556
976.26        84.82604
976.65        85.72001
977.04        86.72657
977.42        86.26208
977.81        83.90993
978.19        80.47023
978.58        77.64819
978.96        77.07398
979.35        78.95239
979.74        82.88683
980.12        88.14893
980.51        91.82301
980.89        92.88724
981.28        92.00123
981.66        90.06358
982.05        88.29415
982.43        87.04739
982.82        85.98952
983.20        85.45712
983.59        86.07909
983.97        88.02121
984.35        91.33665
984.74        95.12994
985.12        97.51221
985.51         97.2309
985.89        94.56506
986.28        90.55233
986.66        87.05051
987.04        85.04706
987.43        84.27559
987.81        84.06831
988.20        83.54372
988.58        82.36546
988.96        80.38119
989.35        78.28474
989.73        79.12761
990.12        83.97905
990.50         90.9631
990.88          95.981
991.27        96.35632
991.65        92.64262
992.03        85.72153
992.42        78.00378
992.80        74.05551
993.18        75.31479
993.56        79.52735
993.95        84.35953
994.33        87.64403
994.71        88.87902
995.10        89.05134
995.48         88.4644
995.86        87.35998
996.24        85.90386
996.63        83.71053
997.01        81.22832
997.39        80.16528
997.77        81.17597
998.15        83.88292
998.54        86.60593
998.92        87.17416
999.30        84.81802
999.68        80.23308
1000.06        74.25655
1000.45        69.20444
1000.83        66.27753
1001.21        64.92769
1001.59        65.08482
1001.97        66.74387
1002.35        69.73888
1002.73        74.58898
1003.12        80.03495
1003.50        81.79479
1003.88        77.90561
1004.26        70.48928
1004.64        63.25102
1005.02        59.31514
1005.40        58.89328
1005.78        61.47765
1006.16        68.16256
1006.54        77.35566
1006.92        83.98233
1007.30        87.23537
1007.69        88.30817
1008.07        88.83181
1008.45        89.46274
1008.83        89.75015
1009.21        88.94305
1009.59        83.91521
1009.97        65.48417
1010.35        35.01395
1010.73        34.05931
1011.11        47.61317
1011.49        58.31563
1011.86        67.42605
1012.24        72.85455
1012.62        75.21542
1013.00         75.7947
1013.38        74.82755
1013.76        74.41976
1014.14        80.98637
1014.52        99.50459
1014.90        131.7375
1015.28        168.9463
1015.66        187.3992
1016.04        172.7257
1016.41        128.7292
1016.79        79.57675
1017.17        52.16279
1017.55        46.17899
1017.93        49.43307
1018.31        55.09822
1018.69        59.60516
1019.06        62.98923
1019.44         66.3171
1019.82        71.45228
1020.20        81.48721
1020.58        100.4864
1020.95        135.5006
1021.33         202.744
1021.71       -589.1461
1022.09        63.47137
1022.46        104.7256
1022.84        121.5931
1023.22        134.4259
1023.60        156.2956
1023.97        347.7161
1024.35        28.96071
1024.73        69.16762
