SpectraSmart Spectrum 2.9.0.0
--------- Device Information -----------
Spectrum Name :  反射率_0
Saving Time :  2024/04/26 00:47:54
Spectro-Module Model Name : SE2030-DUVN
Spectro-Module Serial Number : OS361AC55029948
Wavelength Start : 200
Wavelength End : 1025
Wavelength Unit : Wavelength(nm)
Spectrum Unit : Reflectance(%)
-----------Spectrum Setting ------------
Integration Time : 20ms
Average : 10
Boxcar : 0
Background removal :  enabled
linearity correction :  enabled
SC :  disabled
Intensity correction :  disabled
DWT denoise :  enabled
savitzky-golay :  disabled
FFT :  disabled
Running average :  disabled
Kalman :  disabled
High pass :  disabled
---------------BEGIN--------------------
Wavelength(nm)             Reflectance(%)
200.29               0
200.75         67.4674
201.21        55.23738
201.67        43.25054
202.13        36.96913
202.58        36.71843
203.04        41.26867
203.50        48.54993
203.96        54.38169
204.42        57.04031
204.88        57.59809
205.34        57.25816
205.80        57.41555
206.26        58.66246
206.72         61.3716
207.18         65.4444
207.64        64.81438
208.10        54.83974
208.55        45.23407
209.01        41.08707
209.47        41.44406
209.93        44.56061
210.39        50.29561
210.85        56.17949
211.31        56.55498
211.77        49.93565
212.23        38.43644
212.69         27.2608
213.14        24.50343
213.60        31.45363
214.06        45.85994
214.52        62.21352
214.98         71.9522
215.44         72.8353
215.90        67.51879
216.36         59.7826
216.81        54.90593
217.27        54.27035
217.73        55.99396
218.19        57.37463
218.65        54.78979
219.11        46.88492
219.57        33.04325
220.02        15.11245
220.48        4.147464
220.94        6.802577
221.40        20.27852
221.86        34.50098
222.32        38.88711
222.77        34.09283
223.23        25.25229
223.69        17.56572
224.15         16.2749
224.61        20.90345
225.06        28.87792
225.52         36.6064
225.98        39.60682
226.44        37.17136
226.90        31.40001
227.36        24.93411
227.81        21.28699
228.27        21.50097
228.73        24.12772
229.19        27.86598
229.65        30.80394
230.10         32.3253
230.56        33.04677
231.02        33.36317
231.48         33.6439
231.93        34.00224
232.39        34.26522
232.85        34.36771
233.31        34.30951
233.77        34.06308
234.22         33.6031
234.68        33.06116
235.14        32.57901
235.60        32.23421
236.05        32.10155
236.51        31.90549
236.97         31.1173
237.43        29.63503
237.88        27.50667
238.34        25.35426
238.80        24.94075
239.26        27.10978
239.71        31.43847
240.17        36.68958
240.63        40.91455
241.08        43.35446
241.54        44.34178
242.00        44.07328
242.46        42.76271
242.91        40.06295
243.37         33.2868
243.83        16.66441
244.28       -11.53733
244.74        4.234319
245.20        56.29825
245.66        74.41448
246.11        77.52184
246.57        74.25875
247.03        59.69633
247.48        4.083601
247.94       -10.06373
248.40        38.90358
248.85         58.3214
249.31         66.4046
249.77        70.46783
250.22        73.19771
250.68        76.05286
251.14        78.05255
251.59        74.30309
252.05        63.41667
252.51        49.72513
252.96        38.61884
253.42        33.70463
253.88        33.77199
254.33        37.19915
254.79        43.39006
255.25        50.63722
255.70        57.36243
256.16        63.46149
256.62         66.9743
257.07        65.99678
257.53        61.69131
257.99         55.1282
258.44        49.04665
258.90        47.28337
259.35        48.83707
259.81        51.85324
260.27        53.75431
260.72        52.11592
261.18        47.75038
261.63        41.91427
262.09        36.60913
262.55        33.53788
263.00        32.60793
263.46        32.95715
263.91        33.41397
264.37        32.93725
264.83        31.41709
265.28        29.20131
265.74         27.0799
266.19        26.01391
266.65        26.17178
267.11        26.99601
267.56        27.78611
268.02        27.71703
268.47         26.6921
268.93        25.02065
269.38        23.09807
269.84        21.81993
270.30        21.43861
270.75        21.69528
271.21         22.1825
271.66        22.30085
272.12         21.8793
272.57        21.13259
273.03        20.33184
273.48        19.79997
273.94        19.64109
274.39        19.69553
274.85        19.80374
275.31        19.75252
275.76        19.47767
276.22        19.07111
276.67        18.62361
277.13        18.33008
277.58        18.18642
278.04         18.1486
278.49        18.07329
278.95         17.7973
279.40        17.28954
279.86        16.66698
280.31        16.03947
280.77        15.65928
281.22        15.53535
281.68         15.5926
282.13        15.72105
282.59        15.78073
283.04        15.73479
283.50        15.65386
283.95        15.53462
284.41        15.37843
284.86        15.19753
285.32        14.99013
285.77        14.84075
286.22        14.93172
286.68        15.25081
287.13        15.71729
287.59        16.13935
288.04        16.23223
288.50         15.9709
288.95        15.45193
289.41        14.86781
289.86        14.41856
290.32        14.21141
290.77        14.16885
291.22        14.27951
291.68        14.48965
292.13        14.77451
292.59        15.14697
293.04        15.57431
293.50        15.99768
293.95         16.3878
294.40        16.72513
294.86        17.01256
295.31        17.27762
295.77        17.53292
296.22        17.77712
296.68         18.0003
297.13        18.15756
297.58        18.26597
298.04        18.36299
298.49        18.51088
298.95        18.83162
299.40        19.33447
299.85        19.97373
300.31        20.65566
300.76        21.24745
301.21        21.68904
301.67        22.02797
302.12        22.26879
302.58         22.4634
303.03         22.6192
303.48        22.73051
303.94        22.85612
304.39        23.05874
304.84        23.35252
305.30        23.71726
305.75        24.06108
306.20        24.24529
306.66        24.26455
307.11        24.15621
307.57        24.02882
308.02        23.98266
308.47        24.06688
308.93        24.23976
309.38        24.46226
309.83        24.69981
310.29         24.9173
310.74        25.11558
311.19        25.26245
311.65        25.30874
312.10        25.25021
312.55        25.10407
313.00        24.89597
313.46        24.68068
313.91        24.47531
314.36        24.28517
314.82          24.148
315.27        24.10681
315.72        24.16627
316.18        24.31053
316.63        24.47594
317.08        24.53529
317.53        24.45545
317.99        24.25989
318.44        24.03123
318.89        23.90607
319.35        23.90923
319.80        24.00443
320.25        24.09417
320.70        24.01836
321.16        23.74526
321.61         23.3328
322.06        22.88788
322.51        22.56998
322.97        22.40866
323.42        22.35942
323.87        22.34168
324.32        22.22302
324.78         21.9675
325.23        21.62785
325.68        21.25662
326.13        20.93722
326.59         20.6968
327.04        20.52546
327.49        20.41138
327.94        20.33853
328.39         20.2973
328.85        20.28513
329.30        20.31713
329.75        20.38517
330.20        20.47837
330.66        20.57013
331.11        20.64738
331.56        20.65281
332.01         20.5696
332.46        20.39664
332.92        20.17006
333.37        19.97754
333.82        19.84772
334.27        19.78707
334.72        19.73625
335.17        19.58793
335.63        19.32436
336.08        18.97914
336.53        18.68355
336.98        18.64665
337.43        18.89887
337.88        19.37493
338.34         19.8537
338.79        20.01767
339.24        19.76653
339.69        19.18624
340.14         18.5204
340.59        18.19833
341.05        18.32121
341.50         18.7583
341.95        19.26477
342.40        19.47825
342.85        19.31972
343.30        18.91906
343.75        18.42672
344.20        18.10361
344.66        18.02789
345.11        18.06636
345.56        18.16783
346.01        18.25707
346.46        18.29166
346.91        18.32875
347.36        18.25927
347.81        17.89872
348.26        17.26123
348.72        16.44156
349.17        15.67967
349.62        15.45471
350.07          15.857
350.52        16.71611
350.97        17.72804
351.42        18.42453
351.87        18.66969
352.32        18.58903
352.77        18.30245
353.22        18.01182
353.67         17.7951
354.13        17.59414
354.58        17.39583
355.03        17.22154
355.48        17.07609
355.93        16.99073
356.38        16.94421
356.83        16.88024
357.28        16.78282
357.73        16.65156
358.18        16.52253
358.63        16.45656
359.08        16.46356
359.53        16.53189
359.98        16.58768
360.43        16.51834
360.88        16.30982
361.33        15.99304
361.78        15.69206
362.23        15.60829
362.68        15.76872
363.13         16.0933
363.58        16.41736
364.03        16.48488
364.48        16.24199
364.93        15.78307
365.38        15.23387
365.83        14.79645
366.28        14.54284
366.73        14.41463
367.18        14.39095
367.63        14.43558
368.08        14.51561
368.53        14.64085
368.98        14.76025
369.43        14.78621
369.88        14.70547
370.33        14.54121
370.78        14.33767
371.23        14.18106
371.68        14.10234
372.13        14.07377
372.58        14.10534
373.03        14.20858
373.48         14.3658
373.93        14.56791
374.38        14.73965
374.83        14.76484
375.28        14.62541
375.72        14.34488
376.17        14.03115
376.62        13.82181
377.07        13.75977
377.52        13.80525
377.97        13.90605
378.42        13.97366
378.87        13.97762
379.32        13.94644
379.77        13.89551
380.22        13.84446
380.67        13.79904
381.11         13.7469
381.56        13.68075
382.01        13.60208
382.46        13.51124
382.91        13.41165
383.36        13.31015
383.81        13.21291
384.26        13.12723
384.71        13.06313
385.15        13.00753
385.60        12.94585
386.05        12.87178
386.50        12.77956
386.95        12.71027
387.40         12.7317
387.85        12.84547
388.29        13.02165
388.74        13.17278
389.19        13.17783
389.64        13.02644
390.09        12.74945
390.54        12.45958
390.98        12.34665
391.43        12.46044
391.88        12.73239
392.33         13.0169
392.78        13.09918
393.23        12.95019
393.67        12.64284
394.12        12.33404
394.57        12.19506
395.02        12.25963
395.47        12.46811
395.91        12.72167
396.36        12.82815
396.81        12.73556
397.26        12.49806
397.71        12.22133
398.15        12.04657
398.60        12.02397
399.05        12.10762
399.50        12.20441
399.95        12.15194
400.39        11.98149
400.84        11.69869
401.29        11.42848
401.74        11.37072
402.18        11.57955
402.63         11.9667
403.08        12.38517
403.53        12.60353
403.97        12.56422
404.42        12.34105
404.87        12.03725
405.32        11.83327
405.76        11.78637
406.21        11.83704
406.66        11.93684
407.11        12.02364
407.55          12.078
408.00        12.12212
408.45        12.14356
408.90          12.106
409.34        12.00833
409.79        11.86119
410.24        11.71552
410.68        11.64494
411.13        11.66638
411.58        11.76733
412.03        11.90363
412.47        11.99509
412.92        12.00644
413.37         11.9537
413.81        11.88818
414.26        11.90456
414.71        12.01009
415.15        12.17784
415.60        12.31406
416.05        12.28995
416.49        12.08273
416.94        11.75125
417.39        11.39742
417.83         11.1943
418.28        11.19562
418.73         11.3342
419.17        11.54053
419.62        11.69952
420.07        11.77756
420.51        11.81209
420.96        11.79172
421.41        11.69475
421.85         11.5308
422.30        11.32219
422.74        11.13021
423.19        11.07279
423.64        11.15444
424.08        11.35304
424.53        11.58206
424.98        11.70594
425.42        11.68726
425.87         11.5596
426.31        11.38416
426.76        11.29615
427.21         11.3087
427.65        11.30575
428.10        11.31732
428.54        11.45681
428.99        11.71472
429.44        12.03762
429.88        12.30016
430.33        12.33977
430.77        12.13877
431.22        11.75052
431.66        11.34229
432.11        11.21587
432.56        11.39943
433.00        11.74733
433.45        12.10306
433.89        12.34344
434.34        12.36969
434.78        12.11309
435.23        11.77259
435.67        11.74066
436.12        11.98404
436.57        12.07892
437.01         11.9781
437.46        11.90631
437.90        11.88497
438.35        11.85378
438.79        11.80486
439.24        11.76026
439.68        11.72747
440.13        11.65053
440.57         11.5659
441.02        11.68544
441.46         11.9199
441.91        11.84448
442.35        11.50539
442.80        11.32419
443.24        11.28085
443.69        11.21842
444.13        11.11319
444.58        10.93638
445.02        10.74341
445.47        10.75897
445.91        10.93418
446.36        10.99312
446.80        10.90806
447.24        10.83138
447.69        10.78988
448.13        10.74898
448.58        10.72128
449.02        10.71317
449.47        10.70952
449.91        10.68583
450.36        10.64135
450.80         10.5798
451.25        10.53265
451.69        10.53752
452.13        10.60164
452.58        10.70055
453.02        10.80145
453.47        10.84654
453.91        10.82787
454.36        10.76762
454.80        10.68632
455.24        10.62093
455.69        10.59145
456.13        10.57783
456.58        10.59999
457.02        10.67087
457.46        10.79115
457.91        10.95131
458.35        11.10553
458.79        11.17024
459.24        11.14039
459.68        11.02881
460.13        10.91147
460.57        10.87426
461.01        10.94928
461.46         11.0997
461.90        11.27153
462.34        11.36638
462.79        11.35939
463.23        11.27454
463.68        11.17279
464.12        11.15411
464.56         11.2464
465.01        11.42069
465.45        11.58707
465.89        11.65497
466.34         11.6178
466.78        11.44464
467.22        11.24407
467.67        11.30454
468.11        11.59738
468.55        11.76858
468.99        11.76811
469.44        11.75755
469.88        11.77394
470.32        11.86343
470.77        11.98902
471.21        12.00617
471.65        11.90344
472.10        11.80258
472.54        11.74082
472.98         11.7435
473.42        11.82394
473.87        11.97624
474.31        12.15326
474.75        12.27255
475.20        12.31801
475.64         12.3052
476.08        12.27558
476.52        12.29481
476.97        12.37881
477.41        12.51028
477.85        12.64761
478.29        12.74858
478.74         12.8026
479.18        12.75953
479.62        12.66456
480.06        12.80417
480.50        12.92281
480.95        13.03862
481.39         13.0377
481.83         13.0172
482.27        12.97987
482.72        12.82744
483.16        12.62402
483.60        12.66808
484.04        12.98334
484.48        13.11629
484.93        13.24566
485.37        13.73837
485.81        14.42845
486.25        14.45075
486.69        18.77431
487.14        14.81446
487.58        10.05607
488.02         12.3795
488.46        14.11815
488.90        14.05472
489.34        14.10308
489.79        14.02549
490.23        14.83974
490.67        15.33085
491.11        15.28111
491.55         15.2027
491.99        15.07426
492.43        14.94059
492.88        14.86641
493.32        14.89897
493.76        14.94905
494.20        15.14643
494.64        15.44555
495.08        15.80155
495.52        16.17365
495.96        16.52379
496.41        16.78844
496.85         16.9555
497.29        17.02668
497.73        16.84303
498.17        16.61441
498.61         16.7547
499.05        17.27713
499.49        17.39722
499.93        17.53681
500.37        17.71391
500.82        17.85763
501.26        18.11208
501.70        18.37763
502.14        18.51241
502.58        18.50703
503.02        18.52588
503.46         18.5806
503.90        18.56886
504.34        18.51528
504.78        18.50609
505.22        18.55485
505.66        18.65047
506.10        18.75715
506.54        18.81064
506.98        18.79952
507.42        18.74361
507.86        18.70773
508.30        18.79217
508.74        19.00911
509.18        19.31864
509.62        19.63516
510.06        19.81814
510.50        19.83575
510.94        19.74134
511.38        19.60135
511.82        19.52188
512.26         19.5364
512.70        19.60325
513.14        19.71783
513.58        19.87217
514.02         20.0383
514.46        20.21549
514.90        20.34292
515.34          20.286
515.78        20.00535
516.22        19.70247
516.66        19.48947
517.10        19.09209
517.54        18.54744
517.98         19.4695
518.42        19.41463
518.86        19.86864
519.30        20.07723
519.74        20.28299
520.18        20.45394
520.62        20.51133
521.06        20.47697
521.50        20.34618
521.93        20.16718
522.37        20.03454
522.81        19.97516
523.25        19.97272
523.69        20.00429
524.13        20.02841
524.57        20.02931
525.01        20.01706
525.45         19.9967
525.89        19.97485
526.32        19.95031
526.76        19.91953
527.20        19.86751
527.64        19.78152
528.08        19.66632
528.52        19.51049
528.96        19.33974
529.40        19.24624
529.83        19.25093
530.27        19.13398
530.71        19.23359
531.15        19.18137
531.59        19.08064
532.03         18.9387
532.46        18.81946
532.90        18.82832
533.34        18.97126
533.78        19.20382
534.22          19.435
534.66        19.53275
535.09        19.46504
535.53        19.28413
535.97        19.05029
536.41         18.8635
536.85        18.76144
537.28        18.72155
537.72        18.72904
538.16        18.75945
538.60        18.80178
539.04        18.85021
539.47        18.91142
539.91        19.03995
540.35        19.21375
540.79        19.34573
541.22        19.42191
541.66        19.50121
542.10        19.58167
542.54        19.61565
542.97        19.63768
543.41        19.73644
543.85        19.91952
544.29         20.1743
544.72        20.42703
545.16        20.56889
545.60        20.58197
546.04        20.49792
546.47        20.42732
546.91        20.55514
547.35        20.90191
547.79        21.40585
548.22         21.9184
548.66        22.18834
549.10        22.17686
549.53        21.99884
549.97        21.79116
550.41        21.70731
550.84        21.80288
551.28        22.04304
551.72        22.37411
552.15        22.69564
552.59        22.96078
553.03         23.1929
553.46        23.38834
553.90         23.5598
554.34        23.71705
554.77        23.82574
555.21        23.88334
555.65        23.96243
556.08        24.08231
556.52        23.93875
556.96        24.10882
557.39         24.1643
557.83        24.28182
558.27         24.4291
558.70        24.60059
559.14        24.77007
559.57        24.91485
560.01        25.05141
560.45         25.1483
560.88        25.15677
561.32        25.09798
561.75        24.97765
562.19        24.86734
562.63        24.84193
563.06        24.91362
563.50        25.06294
563.93        25.24915
564.37        25.41726
564.80        25.53898
565.24        25.64088
565.68         25.7185
566.11        25.76783
566.55        25.81338
566.98        25.84698
567.42        25.90939
567.85        26.05748
568.29        26.31109
568.72        26.58052
569.16        26.87161
569.60        27.21843
570.03        27.47481
570.47        27.50136
570.90        27.47144
571.34        26.82571
571.77        27.35376
572.21        27.55267
572.64        27.60755
573.08        27.19877
573.51        26.36263
573.95        27.51244
574.38        29.28784
574.82        28.45944
575.25        28.22949
575.69        27.25579
576.12        26.89502
576.56        26.89036
576.99        27.55175
577.42        28.66696
577.86        28.57828
578.29        28.51129
578.73        29.77045
579.16        27.39756
579.60        25.09374
580.03         26.2308
580.47        27.93151
580.90        28.32588
581.33        27.94019
581.77        27.38596
582.20        29.90367
582.64        29.55371
583.07        25.20357
583.51        24.70647
583.94        24.26651
584.37        25.23439
584.81         26.2661
585.24        27.60712
585.68        28.42168
586.11        27.61533
586.54        25.62249
586.98        24.84309
587.41         25.0517
587.85        26.15297
588.28        26.92152
588.71        25.67403
589.15        24.89095
589.58          25.439
590.01        25.83005
590.45        26.29239
590.88        26.35602
591.31        25.96542
591.75        25.78589
592.18         25.8718
592.61        26.50522
593.05        26.96898
593.48        28.02448
593.91        28.16805
594.35        25.93659
594.78        25.57723
595.21        25.74091
595.65        27.01726
596.08        27.99218
596.51        27.01717
596.94        26.47679
597.38        26.96592
597.81        28.29137
598.24        28.88463
598.68        28.58549
599.11        28.50087
599.54        29.78522
599.97        30.44194
600.41        29.09318
600.84        29.48694
601.27        30.28222
601.70        30.16896
602.14        30.39063
602.57        30.33321
603.00        30.99858
603.43        32.09422
603.87        33.18436
604.30         33.2575
604.73        32.51873
605.16        32.46081
605.60        33.28328
606.03        34.22593
606.46        34.97279
606.89        35.09412
607.32        34.38208
607.76        34.81517
608.19        36.04777
608.62        35.87666
609.05        35.58794
609.48        36.11744
609.92        36.29086
610.35        36.49793
610.78        38.00627
611.21         38.8313
611.64        37.26509
612.07        37.89076
612.50        38.34626
612.94        38.83983
613.37        38.80345
613.80        39.05105
614.23        39.61338
614.66        39.83125
615.09        40.27406
615.52        40.51456
615.96        40.60463
616.39        40.95583
616.82        40.70926
617.25        40.47776
617.68        41.24725
618.11        41.75353
618.54        42.16951
618.97        42.02813
619.40        41.59637
619.84        41.60161
620.27        42.41892
620.70        43.04771
621.13        43.43201
621.56         43.2677
621.99        42.76547
622.42        43.31756
622.85        44.59034
623.28        44.44437
623.71        44.16288
624.14        43.78416
624.57        43.77085
625.00        43.62171
625.43        43.56981
625.86        43.13087
626.29        43.19035
626.72        43.33175
627.15        43.11922
627.58         43.1123
628.01        43.10429
628.44        43.06199
628.87          42.979
629.30        42.94078
629.73        42.90823
630.16        42.73492
630.59        42.41377
631.02        42.02109
631.45        41.60321
631.88        41.20544
632.31        40.84699
632.74        40.51773
633.17        40.20757
633.60        39.89758
634.03        39.58244
634.46         39.2742
634.89        38.96447
635.32        38.63762
635.75        38.29188
636.18        37.92627
636.61        37.56145
637.04        37.23047
637.47        36.93452
637.89        36.66647
638.32        36.38488
638.75         36.0449
639.18        35.64594
639.61        35.21756
640.04        34.80246
640.47        34.45983
640.90          34.207
641.33        34.02387
641.76        33.88672
642.18        33.80546
642.61        33.76686
643.04        33.68972
643.47        33.54526
643.90         33.7227
644.33        33.52439
644.76        33.51685
645.18        33.49525
645.61        33.48338
646.04        33.47909
646.47        33.47939
646.90        33.53248
647.33        33.68713
647.75        33.96085
648.18        34.36002
648.61        34.77593
649.04        35.03603
649.47        35.11744
649.89        34.99981
650.32        34.89902
650.75        35.24877
651.18        36.03204
651.61        36.84311
652.03        37.46162
652.46        37.84523
652.89        38.18974
653.32        38.19739
653.74        38.07064
654.17        39.40879
654.60        40.34988
655.03         39.0857
655.46        40.22847
655.88        42.97161
656.31        45.85682
656.74         102.108
657.16        66.20777
657.59        23.48757
658.02        18.09167
658.45        32.04958
658.87        41.49049
659.30        43.67727
659.73        43.20434
660.15        42.14071
660.58        44.16867
661.01        45.68457
661.44        44.42771
661.86        44.05384
662.29        44.14983
662.72        44.85969
663.14        46.03104
663.57        46.33815
664.00        45.86242
664.42         45.8343
664.85         46.3435
665.27        46.72657
665.70        46.85877
666.13        46.87238
666.55        46.76513
666.98        46.56154
667.41        46.38942
667.83        46.43478
668.26        46.74076
668.69        47.22859
669.11         47.7178
669.54        48.13713
669.96        47.97914
670.39         47.7148
670.82        47.38621
671.24          47.266
671.67        47.46649
672.09        47.94471
672.52        48.47944
672.94        49.03896
673.37        48.73951
673.80        48.68397
674.22        48.69299
674.65        48.69201
675.07        48.68801
675.50        48.64067
675.92        48.60646
676.35        48.70219
676.77        48.93444
677.20        49.30483
677.62        49.58806
678.05        49.81906
678.47        49.91059
678.90        49.90773
679.32        49.86443
679.75        49.77995
680.17        49.87874
680.60         49.9766
681.02        50.08943
681.45        50.12028
681.87        50.06266
682.30        49.96995
682.72        49.90749
683.15        49.93586
683.57        50.12367
684.00        50.45843
684.42        51.05333
684.85        51.34925
685.27        51.35726
685.70        51.23082
686.12        51.06264
686.54        51.02935
686.97        51.17274
687.39        51.37713
687.82        51.52791
688.24        51.89933
688.66        51.76916
689.09        51.72387
689.51        51.63926
689.94        51.62885
690.36        51.71451
690.78        51.89605
691.21        52.13616
691.63        52.26372
692.06        52.23944
692.48        52.48659
692.90        52.37696
693.33        52.50038
693.75        52.67097
694.17        52.88607
694.60        53.10765
695.02        53.26551
695.44         53.3187
695.87        53.44324
696.29        53.64808
696.71         53.4541
697.14        53.05076
697.56        53.52288
697.98        54.62603
698.41        54.61671
698.83        54.03531
699.25         53.6675
699.68        53.74934
700.10        53.72934
700.52        53.51417
700.94        53.73884
701.37        53.89486
701.79        54.22682
702.21        54.53938
702.64        54.88376
703.06        55.14865
703.48        55.17931
703.90        54.97388
704.33        54.51325
704.75        53.98064
705.17        53.89023
705.59        54.24147
706.01        54.56894
706.44        54.56801
706.86        55.05958
707.28        55.20765
707.70        55.39288
708.12        55.41222
708.55        55.40645
708.97        55.37793
709.39        55.29354
709.81        55.19669
710.23        55.15622
710.66         55.1922
711.08        55.32068
711.50        55.47147
711.92        55.53603
712.34        55.49227
712.76        55.36229
713.19        55.23656
713.61        55.28126
714.03        55.51693
714.45        55.89422
714.87        56.26865
715.29        56.41324
715.71        56.28355
716.13        55.95026
716.56        55.57401
716.98        55.43879
717.40        55.60688
717.82        55.99303
718.24        56.44079
718.66        56.68367
719.08        56.64979
719.50        56.42707
719.92        56.13072
720.34        55.95685
720.76        55.96539
721.19        56.00217
721.61        56.19712
722.03        56.36927
722.45          56.535
722.87        56.70919
723.29        56.87664
723.71        57.00213
724.13        57.07489
724.55        57.09365
724.97        57.07455
725.39        57.05439
725.81        57.04727
726.23        57.05125
726.65        57.06312
727.07        57.07269
727.49        57.08181
727.91        57.10119
728.33        57.13964
728.75        57.20906
729.17         57.3047
729.59         57.4092
730.01        57.51631
730.43        57.61206
730.85        57.69373
731.27        57.78735
731.69        57.85523
732.10        57.82457
732.52        57.70017
732.94        57.51264
733.36        57.36281
733.78        57.39911
734.20        57.66245
734.62        57.96962
735.04        58.82532
735.46        58.81094
735.88        58.32769
736.30        58.56769
736.72        59.66775
737.13        60.10964
737.55        59.73738
737.97        59.68241
738.39        59.96761
738.81        59.38408
739.23        58.31883
739.65        58.96455
740.06        60.89649
740.48        61.12185
740.90        59.70657
741.32        59.05815
741.74        59.40092
742.16        59.58408
742.57        59.65133
742.99        60.23297
743.41        61.14916
743.83         61.7459
744.25        61.90107
744.67        61.77479
745.08        61.52606
745.50        61.41929
745.92        61.54348
746.34         61.8036
746.75        62.09864
747.17        62.25544
747.59        62.24965
748.01        62.14627
748.42        62.07077
748.84         62.2101
749.26        62.60511
749.68        63.14719
750.09        63.71796
750.51        64.15317
750.93        64.35902
751.35        64.26376
751.76        64.00855
752.18        63.71209
752.60        63.96552
753.01        63.89572
753.43        63.74005
753.85        63.72487
754.27         63.8395
754.68        64.73099
755.10        64.85227
755.52        65.33051
755.93        65.67252
756.35        65.87469
756.77        65.99385
757.18        66.04753
757.60         66.0784
758.02        66.33718
758.43        66.60699
758.85        66.07004
759.26        65.11394
759.68        64.65401
760.10        66.08556
760.51        66.66248
760.93        65.95872
761.34         65.0118
761.76        64.66045
762.18         64.1273
762.59        63.84406
763.01        64.24564
763.42        65.26014
763.84        65.99028
764.26        66.29095
764.67        66.50478
765.09        66.59672
765.50        66.48421
765.92        66.14676
766.33        65.17834
766.75        63.97415
767.16        63.62756
767.58        64.23699
768.00        65.38144
768.41        66.77054
768.83        67.69212
769.24         67.8027
769.66        67.44922
770.07         66.8705
770.49        65.66502
770.90        64.28928
771.32        64.92438
771.73        67.02999
772.15        66.72031
772.56        64.36854
772.97        63.92453
773.39        65.31554
773.80        65.85293
774.22        65.21751
774.63        65.16019
775.05        65.60409
775.46        65.82256
775.88        65.73315
776.29        65.53522
776.70        65.31903
777.12        65.25679
777.53        65.39943
777.95        65.65034
778.36        65.87048
778.77        65.82523
779.19        65.50711
779.60        64.99887
780.02        64.51682
780.43        64.46822
780.84        64.96602
781.26        65.51239
781.67        66.00911
782.09        67.05467
782.50        68.15986
782.91        67.34251
783.33        65.22174
783.74        64.47041
784.15        65.24038
784.57        65.85033
784.98        66.02038
785.39        65.96277
785.81          65.869
786.22         65.4219
786.63        64.96531
787.04        64.91611
787.46        65.33196
787.87        66.10326
788.28        66.94538
788.70        67.35328
789.11        67.20801
789.52         66.6829
789.93        66.04286
790.35        65.65548
790.76        65.62727
791.17         65.8933
791.58        66.28825
792.00         66.4991
792.41        66.43774
792.82        66.19105
793.23        65.95932
793.65        65.87919
794.06        66.09908
794.47        67.02511
794.88        68.01151
795.29        68.08076
795.71        65.94044
796.12        64.36523
796.53         63.4443
796.94        63.18209
797.35        63.66086
797.76        64.82027
798.18        66.15472
798.59        66.98439
799.00        67.00229
799.41        66.24716
799.82        65.11324
800.23        64.38319
800.64        64.24662
801.06        64.39402
801.47        64.76662
801.88        65.17549
802.29         65.5174
802.70        65.88691
803.11        66.18771
803.52        66.22942
803.93        65.99936
804.34        65.51173
804.75         64.9829
805.17        64.85529
805.58        65.25298
805.99        65.83112
806.40        66.34317
806.81        66.92043
807.22        67.17836
807.63         66.0069
808.04        63.98806
808.45        63.08586
808.86        63.51579
809.27        64.35738
809.68        65.22244
810.09        65.73615
810.50         65.7012
810.91        65.32391
811.32        64.81659
811.73        64.44227
812.14        64.30251
812.55         64.3056
812.96        64.42577
813.37        64.59624
813.78        64.77528
814.19        65.03791
814.60        65.23303
815.01         65.1076
815.42        64.63906
815.83        63.86351
816.24         63.1003
816.65        62.91849
817.05        63.47816
817.46        64.57813
817.87        65.77186
818.28        66.25245
818.69        65.80732
819.10        64.64658
819.51        63.28952
819.92        62.61781
820.33        62.86751
820.74        63.77313
821.14        64.87527
821.55        65.33562
821.96         64.9688
822.37        64.06372
822.78        63.01073
823.19        62.37678
823.60        62.32188
824.00        62.70233
824.41        63.25986
824.82        63.65659
825.23        63.74086
825.64        63.63358
826.04        63.46276
826.45        63.40081
826.86        63.48985
827.27        63.63909
827.68        63.76854
828.08        63.78525
828.49        63.61522
828.90        63.35263
829.31         63.0418
829.72        62.75312
830.12        62.56274
830.53        62.43701
830.94        62.45155
831.35        62.69501
831.75        63.19879
832.16        63.86939
832.57        64.60397
832.97        65.15076
833.38        65.36076
833.79        65.28834
834.20        65.03617
834.60        64.77136
835.01        64.57934
835.42        64.41404
835.82        64.24641
836.23        63.96271
836.64        63.58652
837.04        63.18877
837.45        62.86338
837.86        62.75073
838.26        62.88163
838.67        63.17991
839.08        63.55767
839.48        63.85031
839.89        63.97056
840.29        63.96454
840.70        63.85377
841.11        63.67199
841.51          63.449
841.92        63.15131
842.33        62.85305
842.73        62.68557
843.14        62.64674
843.54        62.75157
843.95        62.86018
844.35        62.78751
844.76        62.49013
845.17        62.05013
845.57        61.61996
845.98         61.4342
846.38        61.54012
846.79        61.83017
847.19        62.20987
847.60        62.44203
848.00        62.47746
848.41        62.36769
848.81        62.16878
849.22        61.88469
849.62        61.58786
850.03        61.27944
850.43        61.07597
850.84        61.14806
851.24        61.55762
851.65        62.11469
852.05        62.80844
852.46        63.45042
852.86        63.96388
853.27        64.41455
853.67        64.48212
854.07        63.79305
854.48        62.42649
854.88        60.53313
855.29        58.76516
855.69        58.06521
856.10        58.61039
856.50        60.30261
856.90        62.55408
857.31        63.96411
857.71        64.07433
858.12        63.18924
858.52        61.94712
858.92        61.18626
859.33        61.10267
859.73        61.46317
860.13        62.07985
860.54        62.57364
860.94        62.83169
861.34        62.96533
861.75        63.03931
862.15        63.22385
862.55        63.52804
862.96        63.89411
863.36        64.24485
863.76         64.4472
864.17        64.46343
864.57        64.37615
864.97        64.32421
865.38        64.51324
865.78        65.01327
866.18        65.66675
866.58        66.29637
866.99         66.6034
867.39        66.53528
867.79          66.209
868.19        65.61684
868.60        64.75475
869.00        63.71537
869.40        62.57074
869.80        61.79572
870.21        62.08754
870.61        63.61596
871.01        66.14528
871.41        68.95888
871.81        70.80608
872.22         71.3445
872.62        70.88491
873.02        69.95683
873.42        69.75793
873.82        70.25536
874.22        70.39246
874.63        70.25113
875.03        70.19649
875.43        70.20547
875.83         71.7699
876.23         70.7679
876.63        69.88696
877.03        68.44371
877.44        66.40688
877.84        110.7939
878.24        70.81496
878.64        72.90451
879.04        77.27176
879.44        71.25028
879.84        68.27358
880.24        75.95663
880.64        78.20652
881.04         76.7793
881.44        75.47214
881.84        74.72937
882.24        74.12209
882.65        73.96607
883.05        74.11414
883.45        74.53926
883.85        75.75191
884.25         77.3089
884.65        77.95461
885.05        77.41308
885.45        76.09658
885.85        74.66928
886.25        74.06348
886.65        74.46754
887.05        75.57765
887.45        77.00373
887.85        78.03889
888.25         78.3987
888.65        78.29328
889.04        77.90173
889.44        77.54669
889.84        77.32621
890.24        77.11624
890.64        76.89931
891.04        76.67368
891.44          76.434
891.84        76.23859
892.24        76.07097
892.64        75.86343
893.04        75.64296
893.44        75.46327
893.83        75.39562
894.23        75.54398
894.63        75.90129
895.03        76.36356
895.43        76.90816
895.83        77.48858
896.23        78.01742
896.63        78.49348
897.02        78.64153
897.42        78.05011
897.82        76.74557
898.22        74.96883
898.62        73.27205
899.01         72.4389
899.41        72.63734
899.81        73.58223
900.21         74.9157
900.61        76.04232
901.00        76.71682
901.40        77.07346
901.80        77.16161
902.20        77.07065
902.59        76.86007
902.99        76.48863
903.39        76.01038
903.79        75.55222
904.18        75.19688
904.58        75.02853
904.98        75.09357
905.38        75.43144
905.77        76.00168
906.17         76.7167
906.57        77.50314
906.96        78.31102
907.36        79.00568
907.76        79.57394
908.15        79.86787
908.55        79.55804
908.95        78.66916
909.34        77.30872
909.74        75.84225
910.14        74.65218
910.53        73.89991
910.93        73.57057
911.33        73.66666
911.72        74.18185
912.12        74.93326
912.52        75.80043
912.91        76.65295
913.31        77.31605
913.70        77.81499
914.10        78.19264
914.49        78.22236
914.89        77.52545
915.29        76.13627
915.68        74.28654
916.08        72.77003
916.47        72.29752
916.87        72.86587
917.26        74.26991
917.66        75.81047
918.05        76.34555
918.45        75.60059
918.84        74.00449
919.24        72.28226
919.64        71.48928
920.03        71.91417
920.42        73.19888
920.82        74.95395
921.21        76.60493
921.61        77.67236
922.00        78.30299
922.40        78.35434
922.79         77.7274
923.19        76.60631
923.58        74.73792
923.98        72.23313
924.37        70.67873
924.77        70.90783
925.16        66.77616
925.55        69.32704
925.95        69.98205
926.34        71.94648
926.74        74.59973
927.13        77.27723
927.52        78.49045
927.92        77.98064
928.31        76.24197
928.70        73.90366
929.10        72.09904
929.49        71.14051
929.89        70.73182
930.28        70.91532
930.67        71.76314
931.07        73.04771
931.46        74.85822
931.85        76.42879
932.24        76.58739
932.64        75.16816
933.03        72.28015
933.42        68.78815
933.82        66.61819
934.21        66.31802
934.60        67.38824
934.99        68.69227
935.39        69.24785
935.78        68.93509
936.17        67.04263
936.56         63.3921
936.96        65.98959
937.35        64.47089
937.74        66.73083
938.13        68.72347
938.53        70.35748
938.92        71.73965
939.31        73.16866
939.70        74.43428
940.09        74.60889
940.49        73.52751
940.88        71.63435
941.27        69.74164
941.66         68.8073
942.05        68.93078
942.44        69.78249
942.84        71.09918
943.23        72.42894
943.62        73.44823
944.01        74.27298
944.40        74.64558
944.79        74.16824
945.18        72.75265
945.57         70.3164
945.97        67.43843
946.36        65.59143
946.75        65.48038
947.14        66.63765
947.53        68.09913
947.92        68.81324
948.31        68.66981
948.70        67.96852
949.09        67.06902
949.48        66.77406
949.87         67.3688
950.26        68.46703
950.65        69.66788
951.04        70.43282
951.43        70.61046
951.82        70.43558
952.21        69.89094
952.60        68.97115
952.99        67.78293
953.38        66.29129
953.77        64.98181
954.16        64.57178
954.55        65.13931
954.94        66.57581
955.33        68.05859
955.72        68.16522
956.11         66.5896
956.50         63.6748
956.89        60.62083
957.28        59.68508
957.66        61.54916
958.05        65.25369
958.44        69.37396
958.83        71.77774
959.22        71.92129
959.61        70.45214
960.00        68.10842
960.39        66.09366
960.78        64.87274
961.16        64.09286
961.55        63.63361
961.94        63.31378
962.33        63.04379
962.72        62.97893
963.11        63.06704
963.49        63.15022
963.88        63.16447
964.27        63.11183
964.66        62.93277
965.04        62.62055
965.43         62.1748
965.82         61.6822
966.21        61.33477
966.60        61.37212
966.98        61.83292
967.37        62.60959
967.76        63.53199
968.15        64.20892
968.53        64.46623
968.92        64.32811
969.31        63.94658
969.69        63.51808
970.08        63.10504
970.47        62.69057
970.86        62.17192
971.24        61.37477
971.63        60.32044
972.02        59.08126
972.40        57.98962
972.79        57.64043
973.17        58.24629
973.56        59.58751
973.95        61.19844
974.33        62.14953
974.72        62.02259
975.11        61.05758
975.49        59.78211
975.88        58.95057
976.26        58.66902
976.65        58.77333
977.04        58.78463
977.42        57.71413
977.81        55.46914
978.19        52.60004
978.58        50.40561
978.96        50.04905
979.35        51.68989
979.74        55.17137
980.12         59.8249
980.51        63.09106
980.89        64.07153
981.28        63.18663
981.66        61.65163
982.05        61.07154
982.43        61.69255
982.82         62.8978
983.20        64.20432
983.59        64.90345
983.97         64.8522
984.35        64.29813
984.74        63.20554
985.12        61.84161
985.51        60.35823
985.89        58.56878
986.28        56.96427
986.66        55.96945
987.04        55.79537
987.43        56.36276
987.81        56.80444
988.20        55.87694
988.58        53.07124
988.96        47.63324
989.35        40.17256
989.73         35.4856
990.12        37.80921
990.50        45.67141
990.88        53.24232
991.27        55.42672
991.65        52.80178
992.03        46.83795
992.42        40.67763
992.80        39.76841
993.18        45.13894
993.56        53.42312
993.95        61.50875
994.33        66.71645
994.71        68.55821
995.10        68.41841
995.48        66.72562
995.86        63.79907
996.24        59.86623
996.63        54.39465
997.01        48.31175
997.39         45.0219
997.77        46.07417
998.15        51.04459
998.54        56.75647
998.92          58.561
999.30        55.07585
999.68        47.44637
1000.06        37.76841
1000.45        31.20677
1000.83        29.78516
1001.21        31.68429
1001.59        35.25443
1001.97        38.90174
1002.35        42.20252
1002.73          46.084
1003.12        49.57008
1003.50        49.14902
1003.88        43.88705
1004.26        35.86353
1004.64        28.29437
1005.02        23.51376
1005.40        21.38066
1005.78        21.13156
1006.16        24.32963
1006.54        32.58867
1006.92        41.81651
1007.30        48.49841
1007.69         51.5144
1008.07        51.50232
1008.45        48.30128
1008.83        39.28748
1009.21        14.39177
1009.59       -54.96199
1009.97       -211.1077
1010.35        -378.342
1010.73       -296.9229
1011.11       -162.4691
1011.49       -78.43017
1011.86       -23.66499
1012.24        6.477928
1012.62         20.1923
1013.00        24.46161
1013.38        22.18622
1013.76        15.43139
1014.14        11.43858
1014.52        16.30845
1014.90         31.1626
1015.28        50.51548
1015.66        56.53518
1016.04        40.29624
1016.41        9.434737
1016.79       -16.59356
1017.17        -21.5717
1017.55       -11.88811
1017.93       0.8054777
1018.31         11.9567
1018.69        20.23886
1019.06         26.5536
1019.44        32.25417
1019.82        37.52621
1020.20        38.37179
1020.58        26.66566
1020.95       -12.62837
1021.33       -142.9234
1021.71        2053.776
1022.09        298.0085
1022.46        209.0025
1022.84        186.3051
1023.22        191.1625
1023.60        233.2802
1023.97        704.1102
1024.35       -104.7578
1024.73       -22.06283
