SpectraSmart Spectrum 2.9.0.0
--------- Device Information -----------
Spectrum Name :  反射率_0
Saving Time :  2024/04/25 23:18:19
Spectro-Module Model Name : SE2030-DUVN
Spectro-Module Serial Number : OS361AC55029948
Wavelength Start : 200
Wavelength End : 1025
Wavelength Unit : Wavelength(nm)
Spectrum Unit : Reflectance(%)
-----------Spectrum Setting ------------
Integration Time : 20ms
Average : 10
Boxcar : 0
Background removal :  enabled
linearity correction :  enabled
SC :  disabled
Intensity correction :  disabled
DWT denoise :  enabled
savitzky-golay :  disabled
FFT :  disabled
Running average :  disabled
Kalman :  disabled
High pass :  disabled
---------------BEGIN--------------------
Wavelength(nm)             Reflectance(%)
200.29               0
200.75        82.80733
201.21        78.83508
201.67        74.36431
202.13        71.37167
202.58        70.06825
203.04        70.42397
203.50        71.45686
203.96         71.5307
204.42        70.41273
204.88        68.67859
205.34        67.38115
205.80        67.71928
206.26        70.32771
206.72        76.86208
207.18        89.81428
207.64        100.8008
208.10        92.58427
208.55        76.50362
209.01        66.61376
209.47        63.87959
209.93        65.41691
210.39        69.92517
210.85        74.99995
211.31        75.48829
211.77        69.93642
212.23        60.36825
212.69        51.15033
213.14        48.98196
213.60        54.85455
214.06         66.8782
214.52        80.36529
214.98        88.09787
215.44        88.28663
215.90        83.26172
216.36        76.45109
216.81        72.60085
217.27        72.91382
217.73        75.55205
218.19        78.02131
218.65        77.11608
219.11        71.69102
219.57        61.25016
220.02        47.24731
220.48        38.41014
220.94        39.95087
221.40        49.79813
221.86        59.70431
222.32        60.94265
222.77        54.37902
223.23        44.77474
223.69        36.89853
224.15        35.61774
224.61        40.34061
225.06        48.54115
225.52        56.70892
225.98        60.38004
226.44        58.80196
226.90         53.9824
227.36        48.40119
227.81        45.36936
228.27        45.93084
228.73        48.68502
229.19        52.44947
229.65         55.5003
230.10        57.20321
230.56        58.15828
231.02        58.68042
231.48         59.0971
231.93        59.48706
232.39        59.74394
232.85        59.76368
233.31        59.49971
233.77        58.94618
234.22        58.16379
234.68        57.29148
235.14        56.56425
235.60        56.11929
236.05        55.96944
236.51        55.97522
236.97        55.85099
237.43        55.51965
237.88        55.07291
238.34        54.64119
238.80        54.85947
239.26        55.98094
239.71        57.96486
240.17        60.08316
240.63        61.58508
241.08        62.31926
241.54        62.40643
242.00        62.35818
242.46        62.97348
242.91        65.00734
243.37        69.57645
243.83        83.24117
244.28        127.1891
244.74        175.6503
245.20        147.4217
245.66        121.3317
246.11        111.5288
246.57        108.7352
247.03        109.8445
247.48        109.5731
247.94        78.80014
248.40        70.93319
248.85        71.99634
249.31         74.5267
249.77        78.37708
250.22        84.20305
250.68        93.53935
251.14        105.9978
251.59        112.6705
252.05         105.537
252.51         89.1571
252.96        72.76196
253.42        64.47911
253.88        63.56363
254.33        67.19048
254.79        73.55057
255.25        79.46282
255.70        83.52027
256.16         86.6523
256.62        88.31555
257.07        87.88107
257.53        86.03977
257.99        82.75726
258.44        78.93838
258.90        76.68172
259.35         75.3279
259.81        74.53616
260.27        73.11108
260.72        69.84238
261.18        65.42892
261.63        60.33311
262.09        55.84974
262.55        52.79673
263.00        51.07573
263.46        50.32297
263.91        49.79095
264.37         49.0013
264.83        47.75922
265.28        46.15225
265.74        44.57004
266.19        43.31897
266.65         42.6147
267.11        42.24036
267.56        41.89753
268.02        41.24199
268.47        40.16641
268.93        38.80995
269.38        37.36485
269.84        36.37013
270.30        35.95993
270.75        35.99617
271.21        36.17527
271.66        36.04086
272.12        35.47744
272.57        34.62238
273.03        33.75613
273.48        33.21014
273.94        33.08548
274.39        33.21694
274.85        33.38963
275.31        33.27637
275.76        32.79522
276.22        32.08243
276.67         31.3072
277.13        30.81742
277.58        30.61289
278.04        30.61527
278.49        30.57146
278.95        30.20394
279.40        29.44786
279.86        28.48643
280.31         27.4983
280.77        26.86669
281.22         26.6169
281.68        26.64577
282.13        26.77094
282.59        26.78116
283.04        26.60897
283.50        26.36087
283.95        26.06452
284.41        25.78899
284.86        25.54576
285.32        25.30731
285.77        25.11029
286.22        25.08237
286.68        25.20755
287.13        25.43157
287.59        25.59394
288.04        25.43604
288.50        24.95662
288.95        24.23207
289.41        23.48685
289.86        22.94948
290.32         22.7293
290.77         22.7313
291.22        22.88337
291.68        23.03516
292.13         23.1446
292.59        23.25908
293.04        23.42271
293.50        23.70679
293.95        24.10918
294.40        24.57097
294.86        25.02697
295.31        25.39299
295.77        25.65721
296.22        25.85668
296.68        26.02727
297.13        26.19699
297.58        26.40084
298.04        26.64294
298.49        26.96091
298.95        27.44981
299.40        28.10157
299.85        28.88076
300.31        29.67717
300.76        30.32668
301.21        30.77018
301.67        31.07217
302.12        31.26662
302.58        31.46782
303.03        31.68828
303.48        31.91057
303.94        32.17023
304.39        32.48442
304.84        32.85532
305.30        33.27082
305.75        33.64489
306.20        33.85683
306.66        33.90697
307.11        33.82029
307.57        33.69569
308.02        33.60334
308.47        33.59945
308.93        33.66002
309.38        33.77319
309.83        33.95334
310.29        34.17546
310.74        34.41614
311.19        34.62339
311.65        34.71509
312.10        34.67148
312.55        34.52264
313.00        34.28322
313.46         33.9923
313.91        33.67407
314.36        33.34415
314.82        33.07995
315.27         32.9789
315.72        33.05613
316.18        33.27217
316.63        33.53218
317.08        33.65388
317.53        33.58127
317.99        33.35038
318.44        33.04198
318.89        32.79223
319.35          32.632
319.80        32.53145
320.25        32.41889
320.70        32.18252
321.16         31.8091
321.61        31.35008
322.06        30.89751
322.51        30.58181
322.97        30.41863
323.42        30.37317
323.87        30.35883
324.32        30.23458
324.78        29.96224
325.23        29.59438
325.68        29.19274
326.13        28.86362
326.59        28.63477
327.04        28.48973
327.49        28.40078
327.94        28.32759
328.39        28.25248
328.85         28.1794
329.30        28.13209
329.75        28.10398
330.20        28.09534
330.66        28.08644
331.11        28.08566
331.56        28.06275
332.01        28.00799
332.46        27.91202
332.92        27.79413
333.37        27.72696
333.82        27.71451
334.27        27.75568
334.72        27.77273
335.17        27.63464
335.63         27.3195
336.08        26.87447
336.53        26.44404
336.98        26.26221
337.43        26.37745
337.88         26.7293
338.34        27.12098
338.79        27.27517
339.24         27.0953
339.69         26.6555
340.14        26.16279
340.59        25.97842
341.05        26.17819
341.50        26.64123
341.95        27.13608
342.40         27.3282
342.85         27.1499
343.30        26.72124
343.75        26.20207
344.20        25.87015
344.66        25.81136
345.11        25.89713
345.56        26.05536
346.01        26.17669
346.46        26.21032
346.91        26.21175
347.36        26.10786
347.81         25.7732
348.26        25.22542
348.72        24.53916
349.17        23.88075
349.62        23.60766
350.07         23.7961
350.52         24.3297
350.97         25.0106
351.42        25.52785
351.87        25.78371
352.32        25.85608
352.77        25.79348
353.22        25.68392
353.67        25.56229
354.13        25.39168
354.58        25.18623
355.03         25.0141
355.48        24.89084
355.93        24.83134
356.38        24.77379
356.83        24.60395
357.28        24.30706
357.73        23.91563
358.18        23.54539
358.63        23.37722
359.08        23.44097
359.53        23.67912
359.98        23.93818
360.43        23.97993
360.88        23.75525
361.33        23.33447
361.78         22.8756
362.23        22.63848
362.68         22.6765
363.13        22.89081
363.58        23.13152
364.03         23.1667
364.48        22.94233
364.93          22.553
365.38        22.08708
365.83        21.68047
366.28        21.38983
366.73        21.16982
367.18        21.04174
367.63        21.04346
368.08        21.15711
368.53        21.36555
368.98        21.57159
369.43        21.61714
369.88        21.47283
370.33        21.18679
370.78        20.83769
371.23        20.56802
371.68        20.42792
372.13        20.37273
372.58        20.39819
373.03        20.49165
373.48        20.62631
373.93        20.80464
374.38        20.95141
374.83        20.94697
375.28        20.77478
375.72        20.45744
376.17        20.10974
376.62        19.88523
377.07        19.82779
377.52        19.88835
377.97        20.00507
378.42        20.07478
378.87         20.0603
379.32         19.9945
379.77        19.88933
380.22        19.75739
380.67        19.60897
381.11        19.44116
381.56        19.26235
382.01        19.10016
382.46        18.96527
382.91        18.85365
383.36         18.7721
383.81        18.72534
384.26        18.70841
384.71        18.71992
385.15        18.72094
385.60        18.66655
386.05        18.54305
386.50        18.35883
386.95         18.1654
387.40        18.05603
387.85        18.05399
388.29        18.12504
388.74        18.21286
389.19        18.21637
389.64        18.12013
390.09        17.94517
390.54        17.76406
390.98        17.69576
391.43        17.77344
391.88        17.95049
392.33        18.12076
392.78        18.12985
393.23        17.96307
393.67        17.66985
394.12        17.39226
394.57        17.26802
395.02        17.32198
395.47        17.50186
395.91        17.72118
396.36        17.80146
396.81        17.69908
397.26        17.46514
397.71        17.18816
398.15        16.98081
398.60        16.89838
399.05        16.90549
399.50        16.94096
399.95          16.873
400.39        16.75841
400.84        16.57502
401.29        16.41376
401.74        16.40213
402.18        16.57463
402.63        16.86006
403.08        17.16321
403.53        17.33344
403.97        17.33121
404.42        17.20445
404.87        17.00844
405.32        16.84134
405.76        16.74109
406.21        16.68537
406.66        16.66949
407.11        16.69263
407.55         16.7517
408.00        16.84615
408.45        16.94729
408.90        16.98515
409.34        16.93987
409.79        16.83096
410.24         16.7085
410.68        16.64515
411.13        16.66128
411.58        16.73912
412.03        16.84327
412.47        16.91416
412.92        16.91969
413.37        16.87649
413.81        16.82232
414.26        16.83091
414.71        16.90543
415.15         17.0259
415.60        17.11793
416.05        17.08288
416.49        16.90499
416.94        16.63324
417.39        16.34627
417.83        16.17678
418.28        16.16887
418.73        16.26853
419.17        16.43173
419.62        16.58603
420.07        16.70396
420.51        16.80762
420.96        16.86281
421.41         16.8107
421.85        16.64785
422.30        16.41479
422.74        16.18183
423.19        16.08798
423.64        16.14125
424.08        16.31547
424.53        16.52484
424.98          16.645
425.42         16.6422
425.87        16.54252
426.31        16.39804
426.76        16.33967
427.21        16.36909
427.65        16.33915
428.10        16.29995
428.54        16.43235
428.99        16.73627
429.44        17.13164
429.88        17.45537
430.33        17.50658
430.77        17.25785
431.22         16.7733
431.66        16.26762
432.11        16.13761
432.56         16.4146
433.00        16.89375
433.45        17.35695
433.89         17.6409
434.34        17.61795
434.78        17.19505
435.23        16.65856
435.67        16.56753
436.12        16.87226
436.57        16.97923
437.01        16.83379
437.46        16.76525
437.90        16.80332
438.35         16.8521
438.79        16.88211
439.24        16.89532
439.68        16.89738
440.13        16.82001
440.57        16.71969
441.02        16.91456
441.46        17.28212
441.91        17.19667
442.35        16.74414
442.80        16.56083
443.24        16.62169
443.69        16.68343
444.13        16.66936
444.58        16.45611
445.02         16.1152
445.47        16.01271
445.91        16.11878
446.36        16.09667
446.80        15.93424
447.24        15.83804
447.69        15.82921
448.13        15.83232
448.58         15.8518
449.02        15.90303
449.47        15.96464
449.91        16.00034
450.36        16.00441
450.80        15.97744
451.25        15.94839
451.69        15.95342
452.13        16.00212
452.58        16.07113
453.02        16.13762
453.47        16.16389
453.91        16.14382
454.36        16.09577
454.80        16.02637
455.24         15.9446
455.69        15.86991
456.13        15.79594
456.58         15.7615
457.02         15.7991
457.46        15.91622
457.91        16.09023
458.35        16.27537
458.79        16.39261
459.24        16.43068
459.68        16.39671
460.13        16.33741
460.57        16.28646
461.01        16.27556
461.46        16.28951
461.90        16.31931
462.34        16.34185
462.79        16.34701
463.23        16.33534
463.68        16.33687
464.12        16.40035
464.56        16.52973
465.01        16.71745
465.45        16.86314
465.89        16.88051
466.34        16.77247
466.78        16.47837
467.22        16.14737
467.67        16.18317
468.11        16.54241
468.55        16.72866
468.99         16.6829
469.44        16.64767
469.88        16.67584
470.32        16.82564
470.77        17.03838
471.21         17.0951
471.65        16.97397
472.10         16.8459
472.54        16.76125
472.98        16.74527
473.42        16.81739
473.87        16.97559
474.31        17.16282
474.75         17.2835
475.20        17.31975
475.64        17.28871
476.08         17.2419
476.52        17.25899
476.97        17.35833
477.41        17.51721
477.85        17.67931
478.29        17.78853
478.74         17.8322
479.18        17.74357
479.62        17.58522
480.06        17.75039
480.50        17.88734
480.95        18.02929
481.39        18.02659
481.83        18.01904
482.27        18.00724
482.72        17.85409
483.16         17.6404
483.60        17.71962
484.04        18.08851
484.48        18.26475
484.93        18.50198
485.37        18.90879
485.81        19.41135
486.25        19.90325
486.69        26.47515
487.14        20.99944
487.58        13.64993
488.02        16.66234
488.46        19.04944
488.90        19.08902
489.34        19.12055
489.79        18.95941
490.23        20.00028
490.67        20.62715
491.11         20.5807
491.55        20.53721
491.99        20.44452
492.43        20.30024
492.88        20.17879
493.32        20.19392
493.76        20.22741
494.20        20.43094
494.64        20.74753
495.08        21.14431
495.52        21.56733
495.96        21.93873
496.41        22.18698
496.85        22.34496
497.29        22.42522
497.73        22.18763
498.17        21.90436
498.61        22.14235
499.05         22.8896
499.49        23.03843
499.93        23.13554
500.37        23.22679
500.82        23.26785
501.26        23.51751
501.70        23.86277
502.14         24.0987
502.58        24.17473
503.02        24.24247
503.46        24.30118
503.90        24.23836
504.34        24.11224
504.78        24.07646
505.22        24.15849
505.66        24.32442
506.10        24.51438
506.54        24.62441
506.98        24.63001
507.42        24.56659
507.86        24.51036
508.30        24.57779
508.74        24.78773
509.18        25.09254
509.62        25.40984
510.06        25.60672
510.50        25.64909
510.94        25.58716
511.38        25.47451
511.82         25.3945
512.26        25.37837
512.70         25.3969
513.14        25.45567
513.58        25.56454
514.02        25.70477
514.46        25.86864
514.90        26.00846
515.34        26.01253
515.78        25.83981
516.22        25.66978
516.66        25.57023
517.10         25.2301
517.54        24.67186
517.98        25.40611
518.42         25.2132
518.86        25.53622
519.30        25.69388
519.74        25.89505
520.18        26.08509
520.62        26.14769
521.06        26.09335
521.50        25.93683
521.93        25.73911
522.37        25.61231
522.81        25.58651
523.25        25.62878
523.69        25.71405
524.13        25.80157
524.57        25.87023
525.01        25.93108
525.45        25.96268
525.89        25.92893
526.32        25.82548
526.76        25.66459
527.20        25.48034
527.64        25.33899
528.08        25.26151
528.52        25.20534
528.96        25.14687
529.40        25.11558
529.83          25.116
530.27        24.89148
530.71        24.92208
531.15        24.79054
531.59        24.64892
532.03        24.48623
532.46        24.36797
532.90        24.40027
533.34        24.58289
533.78        24.87124
534.22         25.1546
534.66        25.26983
535.09        25.17821
535.53        24.94126
535.97        24.63591
536.41         24.3928
536.85        24.25885
537.28        24.20407
537.72        24.20411
538.16        24.21978
538.60        24.23698
539.04        24.25385
539.47        24.28418
539.91        24.40566
540.35        24.59318
540.79        24.73441
541.22        24.81573
541.66        24.91939
542.10          25.042
542.54        25.12032
542.97        25.18813
543.41        25.34163
543.85        25.58569
544.29        25.90469
544.72        26.21311
545.16        26.38802
545.60        26.40826
546.04        26.30895
546.47        26.21862
546.91        26.35163
547.35        26.73431
547.79        27.30127
548.22        27.87944
548.66        28.17594
549.10        28.14775
549.53        27.93147
549.97         27.6959
550.41        27.63218
550.84          27.804
551.28        28.16348
551.72        28.62477
552.15         29.0292
552.59        29.31525
553.03        29.52653
553.46        29.68031
553.90        29.82877
554.34        29.99289
554.77        30.11973
555.21        30.20448
555.65        30.33727
556.08        30.53563
556.52         30.4096
556.96        30.67407
557.39        30.75587
557.83         30.8775
558.27         31.0117
558.70        31.16642
559.14        31.33726
559.57        31.50395
560.01         31.6744
560.45        31.81863
560.88        31.88645
561.32        31.89478
561.75        31.85538
562.19        31.81432
562.63        31.77284
563.06        31.75406
563.50        31.81931
563.93        31.95446
564.37         32.1018
564.80        32.24292
565.24        32.42197
565.68        32.61773
566.11        32.78791
566.55        32.94971
566.98        33.09565
567.42        33.25633
567.85        33.49243
568.29        33.81897
568.72        34.08105
569.16        34.32988
569.60        34.74289
570.03        35.15438
570.47        35.26056
570.90        35.22305
571.34        34.58916
571.77        35.26694
572.21        35.38768
572.64          35.399
573.08        35.06652
573.51        33.89342
573.95        35.34987
574.38        37.47191
574.82        37.06694
575.25         36.6962
575.69        35.57041
576.12        34.92849
576.56        34.74931
576.99        35.42467
577.42        36.99923
577.86        36.90942
578.29        36.86148
578.73        38.85699
579.16        35.94836
579.60         32.5889
580.03        33.99472
580.47        36.31696
580.90        36.69698
581.33          35.823
581.77        35.45625
582.20         38.8148
582.64          38.566
583.07        32.97149
583.51        32.12046
583.94        31.10901
584.37        32.37268
584.81        33.79519
585.24        35.61157
585.68         36.5269
586.11        35.67646
586.54        33.11093
586.98        32.14948
587.41         32.4262
587.85         33.9261
588.28        35.20374
588.71        33.45668
589.15        32.24844
589.58        32.95974
590.01        32.93935
590.45        33.59638
590.88        33.61746
591.31        33.29177
591.75        33.21827
592.18        33.25116
592.61        33.84134
593.05        34.50431
593.48        35.91083
593.91        36.63474
594.35         33.4732
594.78        32.93084
595.21        32.96764
595.65        34.54038
596.08        35.83786
596.51        34.56956
596.94        33.82195
597.38        34.41581
597.81        36.07018
598.24         37.1008
598.68        36.82454
599.11          36.577
599.54        38.33719
599.97        39.55062
600.41        37.45563
600.84        37.96268
601.27        39.00859
601.70        38.86414
602.14        39.11638
602.57        39.02015
603.00        39.90118
603.43        41.35578
603.87        42.80281
604.30        43.03709
604.73        42.27947
605.16        41.95077
605.60         42.8523
606.03        44.04639
606.46        45.24874
606.89        45.38443
607.32         44.2795
607.76        44.83638
608.19        46.55175
608.62        46.56126
609.05        46.21672
609.48        46.96619
609.92        47.23783
610.35        47.16608
610.78        49.30473
611.21        50.13103
611.64        48.14729
612.07        48.88047
612.50        49.42802
612.94        50.05491
613.37        50.01672
613.80        50.43282
614.23        51.28571
614.66        51.44276
615.09        51.69217
615.52        51.98763
615.96        52.40504
616.39        52.80889
616.82         52.2947
617.25        52.31828
617.68        53.19398
618.11        53.85358
618.54        54.27084
618.97        54.10495
619.40        53.66306
619.84        53.90339
620.27         54.9063
620.70        55.63919
621.13         55.9831
621.56        55.62588
621.99        55.06896
622.42        55.74847
622.85        57.34755
623.28        57.09266
623.71        56.42137
624.14        56.63018
624.57        56.29196
625.00        56.08133
625.43        56.29762
625.86        55.74326
626.29        55.67153
626.72        56.23099
627.15        55.70667
627.58         55.7091
628.01        55.59224
628.44        55.57079
628.87         55.3633
629.30        55.13865
629.73        54.84575
630.16        54.86734
630.59         54.4058
631.02        53.85277
631.45        53.08014
631.88        52.46742
632.31        52.04611
632.74        51.67157
633.17        51.24807
633.60        50.86954
634.03        50.49949
634.46        50.13349
634.89        49.74449
635.32        49.28924
635.75        48.76564
636.18        48.18925
636.61        47.60712
637.04        47.09043
637.47        46.65265
637.89         46.2803
638.32         45.9281
638.75        45.54546
639.18        45.12254
639.61        44.70999
640.04        44.28419
640.47        43.89657
640.90        43.54425
641.33         43.2182
641.76        42.91985
642.18        42.70752
642.61        42.58333
643.04        42.45658
643.47        42.28928
643.90        42.46029
644.33        42.25366
644.76        42.25301
645.18        42.25602
645.61        42.29002
646.04        42.35539
646.47        42.44285
646.90        42.59406
647.33        42.86155
647.75         43.2652
648.18        43.77281
648.61        44.27483
649.04        44.70115
649.47         44.9729
649.89        44.82576
650.32        44.56668
650.75        44.94638
651.18        45.97302
651.61        47.14027
652.03        48.11311
652.46        48.60949
652.89        48.90725
653.32        48.99776
653.74        49.14369
654.17        51.08084
654.60        51.69846
655.03        50.77721
655.46        52.07881
655.88        56.03214
656.31        60.24825
656.74        140.7076
657.16         92.3789
657.59        32.17331
658.02        24.15054
658.45        41.97191
658.87        54.13563
659.30        57.26398
659.73        56.52723
660.15        55.57415
660.58         57.7265
661.01        59.74242
661.44        58.27219
661.86        57.87702
662.29        57.98264
662.72        58.98295
663.14        60.64467
663.57        60.86814
664.00        59.88282
664.42        59.84335
664.85        60.83793
665.27        61.51207
665.70          61.675
666.13        61.79417
666.55        61.85761
666.98        61.67483
667.41        61.49205
667.83        61.50335
668.26        61.79768
668.69        62.25756
669.11        62.71492
669.54        63.19395
669.96        63.05213
670.39        62.87922
670.82        62.63877
671.24        62.55901
671.67        62.75714
672.09        63.15726
672.52         63.5715
672.94         64.2655
673.37        64.05028
673.80        63.99212
674.22        63.86855
674.65        63.89645
675.07        64.08817
675.50        64.19421
675.92        64.23995
676.35        64.42136
676.77        64.74414
677.20        65.08083
677.62        65.39624
678.05        65.63168
678.47        65.74637
678.90        65.81686
679.32        65.90389
679.75        65.83949
680.17        65.87184
680.60        66.34117
681.02         66.2881
681.45        66.35944
681.87        66.25568
682.30        66.09709
682.72        65.97218
683.15        65.92361
683.57         66.0713
684.00        66.55736
684.42        67.37305
684.85        67.79086
685.27        67.76588
685.70         67.5713
686.12        67.32655
686.54         67.1854
686.97         67.2009
687.39        67.34416
687.82        67.53277
688.24        67.69834
688.66        67.79971
689.09        67.82587
689.51        67.84663
689.94        68.07423
690.36        68.48576
690.78         68.7192
691.21        68.75999
691.63        68.99079
692.06         69.3288
692.48         69.2646
692.90        68.91875
693.33        68.86407
693.75        69.14795
694.17         69.5235
694.60        69.89812
695.02        70.13477
695.44        70.18442
695.87        70.40112
696.29        70.78856
696.71        70.63476
697.14        70.14835
697.56         70.6821
697.98        71.96429
698.41        71.88026
698.83        71.16503
699.25        70.74226
699.68        70.89783
700.10        70.90842
700.52        70.79213
700.94        70.94018
701.37        71.30019
701.79        71.68591
702.21        72.02222
702.64        72.33775
703.06        72.54118
703.48         72.5621
703.90        72.42467
704.33         71.8474
704.75        71.54138
705.17        71.34748
705.59        71.51428
706.01        71.81946
706.44        72.15512
706.86        72.93445
707.28        73.10822
707.70        73.52391
708.12        73.81879
708.55        73.76296
708.97        73.40918
709.39        73.08572
709.81        72.92844
710.23        72.88594
710.66         73.0036
711.08        73.42138
711.50        73.94439
711.92        74.18627
712.34        74.07473
712.76        73.71372
713.19         73.3008
713.61        73.19025
714.03        73.45167
714.45        73.96931
714.87        74.52608
715.29        74.78382
715.71        74.66386
716.13        74.28105
716.56        73.82062
716.98        73.60857
717.40        73.72433
717.82        74.06439
718.24         74.4873
718.66        74.75647
719.08        74.80132
719.50        74.70191
719.92        74.53275
720.34        74.42964
720.76        74.43958
721.19        74.39262
721.61        74.51364
722.03        74.64924
722.45        74.84795
722.87        75.10035
723.29        75.35806
723.71        75.52866
724.13        75.58676
724.55        75.55769
724.97        75.47792
725.39        75.41331
725.81        75.39299
726.23        75.40668
726.65         75.4591
727.07        75.55287
727.49         75.6824
727.91        75.85128
728.33         76.0421
728.75         76.1982
729.17        76.29466
729.59        76.40324
730.01        76.52397
730.43        76.50432
730.85         76.3735
731.27        76.67245
731.69         77.2262
732.10        77.42787
732.52         77.2384
732.94        76.88311
733.36        76.53115
733.78        76.83103
734.20        77.00639
734.62         77.5429
735.04        78.73458
735.46        78.66364
735.88        77.82717
736.30        77.96634
736.72        79.08025
737.13        79.56184
737.55        79.13482
737.97        79.01028
738.39        79.23598
738.81        78.54223
739.23        77.39304
739.65        78.31757
740.06        80.75364
740.48        81.02409
740.90        79.22444
741.32        78.36717
741.74        78.76974
742.16        79.01473
742.57        79.16634
742.99        80.05284
743.41        81.35761
743.83        82.05888
744.25        81.98891
744.67        81.45617
745.08        80.80598
745.50        80.55937
745.92        80.87749
746.34        81.58587
746.75        82.40786
747.17        82.87437
747.59        82.88973
748.01        82.61403
748.42        82.29077
748.84        82.32626
749.26        82.83197
749.68        83.51392
750.09        84.21189
750.51        84.98003
750.93        85.57586
751.35         85.3492
751.76        84.53869
752.18        84.21638
752.60        84.37444
753.01        84.57806
753.43        84.09439
753.85        84.23428
754.27        84.80795
754.68        85.56705
755.10         86.3043
755.52         86.8628
755.93        87.14212
756.35        87.11207
756.77        87.00315
757.18        86.98661
757.60        87.10733
758.02        87.87177
758.43        88.82919
758.85        88.02671
759.26        86.07384
759.68        85.90251
760.10        87.37866
760.51        88.12071
760.93         87.8325
761.34        86.53447
761.76        86.77229
762.18        85.97672
762.59        85.18528
763.01        85.34782
763.42        86.47572
763.84        87.27643
764.26        87.60202
764.67        87.91679
765.09        88.13408
765.50         88.2821
765.92        88.18619
766.33        86.66471
766.75        84.70647
767.16        83.84878
767.58        84.51453
768.00         86.1262
768.41        88.28441
768.83         90.0975
769.24        90.78188
769.66        90.04458
770.07        88.44041
770.49        86.34617
770.90        84.53085
771.32        85.72826
771.73        89.01997
772.15        88.82502
772.56          85.565
772.97         84.6055
773.39        86.03539
773.80        86.88047
774.22        86.76241
774.63        86.72314
775.05        86.74829
775.46        86.88269
775.88        87.07002
776.29        86.97853
776.70          86.669
777.12        86.58076
777.53        86.76186
777.95        86.98769
778.36        87.18009
778.77        87.15315
779.19        86.91187
779.60        86.69677
780.02        86.53439
780.43        86.26488
780.84         86.2148
781.26        86.37168
781.67        86.75142
782.09         88.4941
782.50        90.88302
782.91        88.97401
783.33         86.5604
783.74        85.51051
784.15        86.89977
784.57        87.87946
784.98        88.06073
785.39        88.18756
785.81        88.12717
786.22        87.52656
786.63        86.77554
787.04         86.6339
787.46        87.19089
787.87        88.21346
788.28        89.33292
788.70        89.89778
789.11        89.75051
789.52        89.16429
789.93        88.43729
790.35        87.91405
790.76        87.75487
791.17        87.98339
791.58        88.44861
792.00        88.79414
792.41        88.82195
792.82        88.55141
793.23        88.16018
793.65        87.56174
794.06        87.24226
794.47        88.56873
794.88        90.45817
795.29        91.37754
795.71        87.88835
796.12        85.62612
796.53         84.3289
796.94        84.06519
797.35        84.89983
797.76        86.45708
798.18        88.04902
798.59        89.03395
799.00        89.01859
799.41        87.84921
799.82        86.12644
800.23        85.11424
800.64        85.08951
801.06        85.59167
801.47        86.40137
801.88        87.04003
802.29        87.31026
802.70        87.39207
803.11        87.36312
803.52        87.29739
803.93        87.26442
804.34        87.24352
804.75        87.25214
805.17        87.38122
805.58        87.76021
805.99        88.10999
806.40        88.34621
806.81         89.2953
807.22          90.306
807.63        88.83488
808.04        85.67782
808.45         84.3542
808.86        85.16347
809.27        86.30343
809.68        87.25452
810.09        87.86654
810.50        87.88327
810.91        87.38836
811.32        86.65478
811.73         86.1231
812.14        85.93005
812.55        85.90237
812.96        86.04871
813.37        86.37543
813.78        86.82851
814.19         87.4651
814.60        87.98705
815.01        87.91581
815.42         87.1975
815.83        85.92827
816.24        84.61779
816.65         84.1749
817.05        84.86665
817.46        86.39114
817.87        88.12188
818.28        88.92953
818.69        88.50817
819.10        87.14742
819.51        85.51627
819.92        84.81208
820.33        85.35145
820.74        86.57979
821.14        87.90086
821.55        88.71235
821.96        88.56441
822.37        86.81837
822.78        84.27586
823.19        83.00661
823.60        83.33384
824.00        84.40344
824.41        85.65569
824.82        86.55274
825.23         86.7705
825.64        86.50491
826.04        86.02617
826.45        85.73635
826.86        85.74438
827.27        85.86738
827.68        86.02804
828.08        86.15927
828.49        86.15027
828.90        86.13798
829.31        86.04364
829.72         85.6983
830.12        85.13914
830.53        84.40741
830.94        83.80914
831.35        83.76151
831.75        84.36478
832.16        85.43502
832.57        86.67488
832.97        87.46066
833.38        87.50758
833.79        87.00053
834.20         86.2577
834.60        85.76627
835.01        85.69293
835.42        85.88992
835.82        86.18082
836.23         86.1833
836.64        85.84713
837.04        85.32716
837.45        84.84007
837.86        84.72027
838.26        85.04975
838.67        85.66042
839.08        86.36652
839.48        86.83527
839.89        86.91415
840.29        86.72777
840.70         86.3665
841.11        85.94551
841.51        85.53583
841.92        85.08186
842.33        84.69403
842.73        84.56855
843.14        84.69576
843.54        85.07627
843.95        85.47551
844.35        85.56512
844.76        85.25164
845.17        84.64433
845.57        83.95986
845.98        83.54577
846.38        83.48983
846.79        83.67485
847.19         83.9782
847.60        84.07954
848.00        83.93697
848.41        83.62824
848.81        83.32954
849.22        83.22388
849.62        83.41296
850.03        83.83815
850.43        84.42225
850.84        84.91455
851.24        85.27096
851.65        85.34375
852.05        85.41709
852.46        85.77738
852.86        86.46916
853.27        87.42478
853.67        88.00047
854.07        87.34642
854.48        85.47836
854.88        82.72272
855.29        80.06804
855.69        78.93124
856.10        79.59562
856.50        81.87492
856.90        84.92612
857.31        86.79047
857.71        86.82522
858.12        85.51411
858.52        83.74775
858.92        82.73148
859.33        82.72936
859.73        83.41055
860.13        84.50135
860.54        85.43156
860.94         86.0304
861.34        86.43922
861.75        86.70386
862.15        86.97959
862.55         87.2681
862.96        87.44999
863.36        87.55206
863.76        87.59781
864.17        87.59676
864.57        87.63339
864.97        87.66634
865.38        87.60077
865.78        87.48153
866.18        87.26447
866.58        87.10425
866.99        87.24493
867.39        87.79898
867.79        88.73283
868.19        89.66083
868.60        89.85363
869.00        89.15207
869.40        87.73789
869.80         86.3877
870.21        86.31857
870.61        87.88046
871.01         90.7047
871.41        93.81268
871.81        95.54134
872.22        95.42782
872.62        93.95409
873.02        92.11396
873.42        91.52438
873.82        92.46991
874.22        94.41887
874.63        96.63519
875.03         97.5012
875.43        96.38415
875.83        94.32573
876.23        91.95425
876.63        91.26405
877.03        92.64984
877.44        96.48096
877.84        99.15627
878.24        105.6417
878.64         104.367
879.04        100.7923
879.44        97.37215
879.84        95.44366
880.24        97.06896
880.64        99.00783
881.04        101.3794
881.44         102.869
881.84        102.2952
882.24        100.3381
882.65        98.21748
883.05        97.32655
883.45        97.91509
883.85        99.63462
884.25        101.7987
884.65        103.1059
885.05         103.113
885.45        102.3049
885.85        101.2882
886.25        100.8752
886.65        101.2597
887.05        102.1239
887.45        103.2304
887.85        104.1745
888.25        104.7464
888.65        105.0976
889.04        105.1529
889.44         104.837
889.84        104.1775
890.24        103.1803
890.64        102.1617
891.04        101.6138
891.44        101.6327
891.84        102.1501
892.24        102.8004
892.64        102.8953
893.04        102.3312
893.44        101.4039
893.83         100.594
894.23        100.6211
894.63        101.5825
895.03        103.1725
895.43        105.0871
895.83        106.7526
896.23        107.8546
896.63        108.5223
897.02        108.5797
897.42        107.7831
897.82        106.2608
898.22        104.1838
898.62        102.1721
899.01        101.1163
899.41        101.2182
899.81         102.187
900.21        103.5815
900.61        104.6392
901.00        105.0892
901.40        105.1468
901.80        104.9393
902.20        104.6874
902.59        104.4892
902.99        104.2272
903.39        103.9461
903.79        103.7522
904.18         103.677
904.58        103.7746
904.98         103.975
905.38        104.1475
905.77        104.2238
906.17         104.203
906.57        104.1519
906.96        104.2253
907.36         104.382
907.76        104.5994
908.15        104.6651
908.55        104.1277
908.95          102.99
909.34        101.3745
909.74        99.80502
910.14         98.9141
910.53        98.89433
910.93        99.64208
911.33         100.787
911.72        101.6414
912.12        101.9135
912.52        101.7532
912.91        101.5595
913.31        101.8959
913.70        102.9211
914.10        104.5116
914.49        106.1807
914.89        106.5546
915.29        105.2319
915.68        102.6994
916.08        100.2784
916.47        99.19132
916.87         99.5819
917.26        101.0568
917.66        102.7204
918.05        103.1365
918.45        101.9681
918.84        99.77509
919.24        97.53934
919.64        96.67405
920.03         97.5405
920.42        99.66232
920.82        102.3211
921.21        104.3932
921.61        105.2475
922.00         105.233
922.40        104.5696
922.79        103.5203
923.19        102.2739
923.58        100.8005
923.98        99.22955
924.37        97.90124
924.77        97.21875
925.16        96.54662
925.55        97.19685
925.95        98.46313
926.34        100.5827
926.74        103.1246
927.13        105.4926
927.52        106.5326
927.92        106.1194
928.31        104.6078
928.70        102.4324
929.10        100.3632
929.49        98.69016
929.89        97.28175
930.28        96.53156
930.67        97.07362
931.07        98.79933
931.46        101.5565
931.85        104.3217
932.24        105.5453
932.64        104.9057
933.03         102.707
933.42        99.58766
933.82        97.10601
934.21        95.83867
934.60        95.45544
934.99        95.58942
935.39         95.7565
935.78        95.85499
936.17         96.0386
936.56        96.11692
936.96        96.33003
937.35        95.48884
937.74        94.64204
938.13        94.05112
938.53        94.37808
938.92        95.62981
939.31        97.75045
939.70        100.1063
940.09        100.9792
940.49        99.81507
940.88         97.3531
941.27        94.79339
941.66        93.54439
942.05        93.80045
942.44         95.0871
942.84        96.93085
943.23        98.60379
943.62        99.65114
944.01        100.2309
944.40        100.3923
944.79        100.2081
945.18        99.72578
945.57        98.87354
945.97        97.56789
946.36        95.97404
946.75           94.47
947.14        93.28358
947.53        92.72378
947.92        93.00627
948.31        94.06075
948.70        95.85673
949.09        97.97057
949.48        99.31647
949.87        99.37355
950.26         98.3257
950.65        96.79776
951.04        95.82117
951.43        95.66489
951.82        96.05459
952.21        96.53587
952.60        96.37415
952.99        95.40029
953.38        93.90427
953.77        92.37468
954.16        91.46497
954.55        91.32252
954.94        91.80283
955.33        92.40187
955.72        92.29218
956.11        91.29174
956.50        89.60746
956.89        88.02984
957.28        87.98278
957.66         89.8828
958.05        93.04026
958.44        96.33921
958.83        98.12958
959.22        98.01304
959.61        96.40485
960.00        94.14014
960.39        92.60181
960.78         92.2076
961.16        92.62502
961.55        93.14821
961.94        92.60279
962.33        90.78408
962.72        88.26923
963.11        85.91257
963.49        84.76168
963.88        84.99721
964.27        86.35368
964.66        88.25552
965.04        89.46967
965.43        89.39198
965.82        88.44862
966.21        87.35194
966.60        87.06201
966.98        87.76561
967.37        89.08614
967.76        90.52408
968.15        91.13786
968.53        90.63851
968.92        89.37938
969.31        87.89043
969.69        86.81243
970.08        86.32553
970.47        86.27457
970.86        86.42089
971.24        86.36707
971.63        85.98173
972.02        85.39832
972.40        84.99554
972.79        85.36494
973.17        86.75923
973.56         88.8466
973.95        91.03383
974.33        92.17014
974.72        91.83447
975.11         90.3906
975.49         88.6417
975.88        87.74782
976.26        87.89329
976.65        88.82597
977.04        89.90819
977.42        89.62295
977.81        87.51821
978.19        84.30514
978.58        81.61461
978.96        80.99862
979.35        82.63865
979.74        86.16206
980.12        90.82028
980.51        93.72554
980.89        94.02112
981.28         92.4683
981.66        90.13351
982.05        88.40505
982.43        87.58817
982.82        87.23179
983.20        87.50468
983.59        88.81053
983.97        91.24418
984.35        94.90121
984.74        98.83223
985.12        101.0808
985.51        100.3901
985.89        97.10711
986.28        92.41158
986.66        88.42747
987.04        86.23557
987.43        85.48915
987.81        85.54313
988.20        85.58369
988.58        85.34687
988.96        84.93182
989.35           84.88
989.73          86.941
990.12        91.06755
990.50        95.90786
990.88        98.86783
991.27        98.57196
991.65        95.51353
992.03        90.14403
992.42        84.34245
992.80        81.58434
993.18        82.87309
993.56        86.41023
993.95        90.20795
994.33        92.37818
994.71        92.55036
995.10        91.66795
995.48        90.03102
995.86        87.90269
996.24        85.46203
996.63        82.30759
997.01        79.19176
997.39        78.46304
997.77         81.0021
998.15        86.25267
998.54        91.67324
998.92        93.95623
999.30        92.10043
999.68        86.94421
1000.06        79.90159
1000.45        74.60708
1000.83        72.61345
1001.21        72.79716
1001.59        74.38852
1001.97        76.62935
1002.35        79.22527
1002.73        82.87164
1003.12        86.37683
1003.50        86.22554
1003.88        81.16759
1004.26        73.30605
1004.64        66.03339
1005.02         61.9692
1005.40        61.16185
1005.78         63.1954
1006.16        69.36194
1006.54         78.8234
1006.92        86.56161
1007.30        90.94458
1007.69        92.83099
1008.07        93.89202
1008.45        94.94339
1008.83         95.6246
1009.21        94.95215
1009.59        87.66018
1009.97        57.91825
1010.35        6.107458
1010.73        1.641364
1011.11        23.40551
1011.49        41.10952
1011.86        55.49614
1012.24        64.56014
1012.62         69.8149
1013.00        73.35502
1013.38        76.32361
1013.76        80.87779
1014.14        91.62681
1014.52        111.3815
1014.90        140.0817
1015.28        171.0216
1015.66        188.8241
1016.04         182.998
1016.41        154.2566
1016.79        115.8002
1017.17        84.77044
1017.55        67.26926
1017.93        58.51647
1018.31        55.57573
1018.69        57.18269
1019.06        62.67104
1019.44        72.62041
1019.82        89.45012
1020.20        112.7663
1020.58        140.9107
1020.95        175.3111
1021.33        223.0034
1021.71       -421.8404
1022.09        95.90475
1022.46        126.1271
1022.84        139.0673
1023.22        152.0827
1023.60        179.7086
1023.97        433.7687
1024.35        8.736794
1024.73        61.17213
