SpectraSmart Spectrum 2.9.0.0
--------- Device Information -----------
Spectrum Name :  反射率_0
Saving Time :  2024/04/25 22:49:28
Spectro-Module Model Name : SE2030-DUVN
Spectro-Module Serial Number : OS361AC55029948
Wavelength Start : 200
Wavelength End : 1025
Wavelength Unit : Wavelength(nm)
Spectrum Unit : Reflectance(%)
-----------Spectrum Setting ------------
Integration Time : 20ms
Average : 10
Boxcar : 0
Background removal :  enabled
linearity correction :  enabled
SC :  disabled
Intensity correction :  disabled
DWT denoise :  enabled
savitzky-golay :  disabled
FFT :  disabled
Running average :  disabled
Kalman :  disabled
High pass :  disabled
---------------BEGIN--------------------
Wavelength(nm)             Reflectance(%)
200.29               0
200.75        85.55567
201.21        80.75744
201.67        75.15028
202.13        71.86947
202.58        71.28671
203.04        72.98344
203.50        75.52988
203.96        76.45802
204.42        75.30463
204.88        73.03577
205.34        71.00832
205.80         70.6002
206.26        72.30498
206.72        77.21913
207.18        86.76469
207.64        92.84505
208.10        82.93286
208.55         68.6847
209.01         60.5933
209.47        58.44046
209.93        59.64708
210.39         63.2437
210.85        67.11047
211.31        66.75478
211.77        61.08372
212.23        52.00346
212.69         43.3239
213.14        40.95318
213.60        45.75153
214.06        55.98494
214.52        68.11697
214.98        76.64866
215.44        79.77974
215.90        79.00996
216.36        75.87656
216.81        72.44779
217.27        69.87282
217.73        67.63789
218.19        65.00117
218.65        60.75354
219.11        54.08733
219.57        44.09514
220.02        31.73822
220.48        24.10975
220.94        25.28969
221.40        33.88079
221.86        42.68571
222.32        43.98594
222.77        38.51019
223.23        30.26059
223.69        23.42953
224.15        22.33788
224.61          26.469
225.06        33.61288
225.52        40.68013
225.98        43.86498
226.44        42.49065
226.90        38.28465
227.36        33.28817
227.81        30.19869
228.27        29.95015
228.73        31.43114
229.19        33.81481
229.65        35.90549
230.10        37.22996
230.56        38.11361
231.02        38.74662
231.48        39.28101
231.93        39.77028
232.39        40.16718
232.85        40.33205
233.31        40.12748
233.77        39.53597
234.22        38.55667
234.68        37.54686
235.14        37.11759
235.60        37.43736
236.05         38.3784
236.51        39.35482
236.97        39.43807
237.43         38.4288
237.88        36.49183
238.34        34.19788
238.80        33.33921
239.26        34.85428
239.71        38.36815
240.17         42.8964
240.63        46.93428
241.08          49.875
241.54        52.01342
242.00        53.38597
242.46        54.20458
242.91        54.77121
243.37        54.29488
243.83        54.12152
244.28        70.42108
244.74        121.0334
245.20        133.6018
245.66        124.2856
246.11        117.5041
246.57        110.9341
247.03        95.73033
247.48        36.52069
247.94       -3.129856
248.40         42.6869
248.85         64.8519
249.31         75.2233
249.77        81.01569
250.22        85.59499
250.68        91.01737
251.14        97.12604
251.59        99.01149
252.05        92.91727
252.51        81.88005
252.96        70.62773
253.42         63.2001
253.88        58.98699
254.33         56.7545
254.79        57.44814
255.25        61.54964
255.70        67.63632
256.16        74.49591
256.62        79.20863
257.07        78.92332
257.53        74.72448
257.99        68.01768
258.44        61.38292
258.90        58.59595
259.35        58.79691
259.81         60.3321
260.27        61.04256
260.72        58.90122
261.18        54.60526
261.63        49.12458
262.09        44.06508
262.55        40.63701
263.00         38.8331
263.46        38.12311
263.91        37.64999
264.37        36.71941
264.83        35.18447
265.28        33.22402
265.74         31.4333
266.19        30.46876
266.65         30.4677
267.11        31.00466
267.56         31.5092
268.02        31.31074
268.47        30.31747
268.93        28.77788
269.38        27.02609
269.84        25.85628
270.30        25.48272
270.75        25.67729
271.21        26.06524
271.66        26.09233
272.12        25.60052
272.57        24.77975
273.03        23.88722
273.48        23.22444
273.94        22.89653
274.39        22.75924
274.85        22.66825
275.31        22.42103
275.76        21.96475
276.22        21.40068
276.67        20.82658
277.13        20.45207
277.58        20.27001
278.04        20.22785
278.49        20.17355
278.95        19.94065
279.40        19.48259
279.86        18.90849
280.31         18.3041
280.77        17.89333
281.22        17.68292
281.68        17.61974
282.13        17.60982
282.59        17.54107
283.04        17.38564
283.50        17.21001
283.95        17.02718
284.41        16.86308
284.86        16.72923
285.32        16.62034
285.77        16.57727
286.22        16.71842
286.68        17.02026
287.13        17.41202
287.59         17.7559
288.04        17.84958
288.50        17.67487
288.95        17.29077
289.41        16.82155
289.86        16.36185
290.32        16.01009
290.77        15.73937
291.22        15.60199
291.68        15.63698
292.13        15.84673
292.59        16.21239
293.04        16.69172
293.50         17.2108
293.95        17.72059
294.40        18.20187
294.86        18.61495
295.31        18.91969
295.77        19.11919
296.22        19.22951
296.68        19.29062
297.13        19.34519
297.58        19.43452
298.04        19.57127
298.49        19.78593
298.95         20.1489
299.40        20.65249
299.85        21.26894
300.31        21.91119
300.76        22.45565
301.21        22.84785
301.67         23.1296
302.12        23.31163
302.58        23.45919
303.03        23.58037
303.48        23.66943
303.94        23.77287
304.39        23.93272
304.84        24.15951
305.30        24.43655
305.75        24.69012
306.20        24.81123
306.66        24.79895
307.11        24.68178
307.57         24.5418
308.02        24.43715
308.47        24.41398
308.93        24.44962
309.38        24.53748
309.83         24.6948
310.29        24.89627
310.74        25.11867
311.19        25.30749
311.65        25.38073
312.10        25.31862
312.55        25.14641
313.00        24.87919
313.46         24.5552
313.91        24.19945
314.36        23.83237
314.82        23.52229
315.27        23.35806
315.72        23.35489
316.18        23.48196
316.63        23.66904
317.08        23.77502
317.53        23.75287
317.99         23.6257
318.44        23.44514
318.89        23.30009
319.35        23.20914
319.80        23.14837
320.25        23.06468
320.70        22.87802
321.16        22.58062
321.61        22.20954
322.06        21.83702
322.51        21.56559
322.97        21.40652
323.42        21.32991
323.87        21.26862
324.32        21.11302
324.78        20.83563
325.23        20.48009
325.68         20.0902
326.13        19.73706
326.59        19.44781
327.04        19.22139
327.49        19.06127
327.94        18.97389
328.39        18.95417
328.85        18.98914
329.30        19.08095
329.75        19.20139
330.20        19.32841
330.66        19.43959
331.11        19.51361
331.56        19.48132
332.01        19.32834
332.46        19.05926
332.92        18.73551
333.37         18.4885
333.82        18.36351
334.27        18.35661
334.72        18.39173
335.17        18.32854
335.63        18.13126
336.08         17.8358
336.53        17.56507
336.98        17.51685
337.43         17.7233
337.88        18.12462
338.34        18.51433
338.79        18.59987
339.24        18.29354
339.69        17.67997
340.14        17.01086
340.59        16.72442
341.05        16.91565
341.50        17.44323
341.95        18.03845
342.40        18.30685
342.85        18.15928
343.30        17.73023
343.75        17.17648
344.20        16.77262
344.66        16.61153
345.11        16.57035
345.56        16.60339
346.01        16.64189
346.46        16.64447
346.91        16.65911
347.36        16.59855
347.81        16.31016
348.26        15.80357
348.72         15.1635
349.17        14.55341
349.62        14.32967
350.07        14.56631
350.52        15.13624
350.97        15.85282
351.42        16.42699
351.87        16.76033
352.32        16.92496
352.77        16.93547
353.22        16.82435
353.67        16.62376
354.13        16.32362
354.58        15.99099
355.03        15.77411
355.48        15.70747
355.93        15.77644
356.38        15.88828
356.83        15.87782
357.28        15.70792
357.73        15.42429
358.18        15.12827
358.63        14.98039
359.08         15.0121
359.53        15.16741
359.98         15.3342
360.43          15.342
360.88        15.15619
361.33         14.8352
361.78        14.48939
362.23        14.29573
362.68        14.29384
363.13        14.41615
363.58        14.56926
364.03        14.61022
364.48          14.501
364.93        14.29654
365.38        14.03999
365.83        13.79615
366.28        13.59642
366.73        13.42025
367.18        13.28697
367.63        13.23312
368.08        13.25311
368.53        13.32951
368.98        13.41625
369.43        13.43483
369.88        13.36968
370.33        13.25437
370.78        13.09872
371.23        12.92508
371.68        12.75372
372.13        12.57008
372.58        12.44821
373.03        12.51052
373.48        12.76151
373.93        13.15546
374.38        13.53403
374.83        13.65389
375.28        13.47001
375.72        13.04651
376.17        12.56083
376.62        12.26495
377.07        12.23241
377.52        12.38298
377.97        12.61604
378.42        12.76673
378.87        12.78189
379.32        12.72046
379.77        12.61766
380.22         12.5179
380.67        12.43878
381.11        12.35928
381.56        12.27911
382.01        12.21462
382.46        12.16576
382.91        12.12965
383.36        12.09981
383.81        12.05898
384.26        12.00448
384.71        11.94966
385.15        11.88019
385.60        11.77981
386.05        11.64714
386.50        11.48054
386.95        11.33557
387.40         11.3069
387.85        11.40469
388.29        11.59234
388.74        11.77199
389.19        11.81222
389.64        11.69899
390.09        11.46846
390.54        11.22249
390.98        11.13262
391.43        11.24444
391.88        11.48992
392.33        11.74794
392.78        11.84128
393.23        11.74339
393.67        11.51522
394.12        11.27653
394.57        11.14984
395.02        11.16277
395.47        11.27108
395.91        11.41633
396.36         11.4806
396.81        11.43141
397.26        11.29873
397.71        11.14089
398.15        11.02914
398.60        10.99827
399.05        11.02724
399.50        11.05689
399.95        10.97457
400.39        10.81538
400.84        10.57171
401.29        10.34666
401.74         10.3047
402.18        10.48978
402.63         10.8308
403.08        11.19514
403.53         11.3717
403.97        11.30976
404.42        11.07381
404.87        10.77244
405.32        10.59496
405.76        10.59588
406.21        10.71317
406.66        10.87276
407.11        10.97497
407.55         10.9953
408.00        10.96359
408.45        10.90281
408.90        10.84555
409.34        10.80677
409.79        10.77145
410.24        10.74122
410.68        10.72089
411.13         10.7133
411.58        10.72731
412.03        10.75037
412.47         10.7598
412.92        10.74322
413.37        10.69992
413.81        10.66271
414.26        10.69714
414.71        10.80148
415.15        10.95943
415.60        11.08615
416.05        11.06454
416.49        10.87478
416.94        10.57074
417.39        10.24499
417.83        10.05704
418.28        10.05823
418.73        10.18633
419.17        10.38417
419.62        10.55463
420.07        10.66598
420.51        10.74604
420.96        10.77141
421.41        10.69917
421.85        10.53381
422.30        10.30842
422.74        10.08706
423.19        9.987831
423.64        10.01958
424.08        10.15787
424.53         10.3367
424.98        10.45676
425.42        10.48526
425.87         10.4434
426.31        10.35518
426.76        10.29532
427.21        10.26388
427.65        10.16856
428.10        10.06472
428.54        10.10133
428.99        10.28701
429.44         10.5641
429.88        10.81027
430.33        10.86069
430.77        10.69319
431.22        10.36052
431.66        10.01437
432.11        9.927361
432.56        10.12514
433.00        10.47475
433.45        10.82565
433.89        11.05096
434.34        11.05626
434.78         10.7859
435.23         10.4336
435.67        10.36442
436.12        10.55224
436.57        10.62208
437.01        10.52443
437.46        10.44183
437.90        10.39065
438.35        10.32319
438.79        10.25035
439.24        10.21843
439.68        10.23527
440.13        10.23974
440.57        10.23478
441.02        10.36266
441.46        10.53506
441.91        10.39372
442.35        10.01105
442.80        9.796354
443.24        9.736458
443.69        9.682091
444.13        9.603036
444.58        9.460005
445.02        9.293553
445.47        9.305863
445.91        9.447384
446.36        9.466916
446.80        9.342233
447.24        9.208876
447.69        9.110028
448.13          9.0483
448.58        9.041183
449.02        9.084054
449.47        9.142212
449.91        9.158447
450.36        9.121666
450.80        9.043889
451.25        8.968201
451.69        8.952128
452.13        9.008462
452.58        9.106285
453.02        9.206138
453.47        9.238981
453.91        9.195701
454.36        9.104636
454.80        8.994513
455.24        8.915646
455.69        8.890335
456.13        8.892694
456.58        8.935056
457.02        9.022118
457.46        9.150373
457.91        9.313079
458.35        9.462803
458.79        9.512625
459.24        9.458365
459.68        9.314938
460.13        9.166655
460.57        9.114531
461.01        9.192611
461.46        9.360518
461.90        9.554098
462.34        9.656514
462.79        9.640107
463.23         9.53387
463.68        9.409308
464.12        9.383701
464.56        9.487465
465.01        9.678838
465.45        9.863083
465.89        9.936791
466.34        9.890444
466.78         9.71193
467.22        9.498857
467.67        9.502469
468.11        9.702378
468.55        9.796887
468.99        9.764586
469.44        9.769318
469.88        9.843322
470.32        10.01812
470.77         10.2233
471.21        10.27095
471.65        10.13677
472.10        9.944723
472.54        9.773387
472.98        9.723678
473.42        9.825148
473.87        10.04747
474.31         10.3061
474.75        10.45998
475.20        10.47904
475.64        10.39898
476.08        10.29323
476.52        10.27591
476.97        10.37243
477.41        10.54766
477.85         10.7308
478.29        10.82976
478.74         10.8232
479.18        10.69154
479.62        10.50827
480.06        10.56115
480.50        10.65246
480.95        10.78289
481.39        10.83557
481.83        10.85664
482.27        10.83792
482.72        10.70662
483.16        10.53178
483.60        10.57833
484.04        10.85755
484.48        11.02874
484.93        11.22685
485.37         11.5921
485.81        11.96074
486.25        12.19151
486.69        15.63293
487.14        12.32468
487.58        8.348296
488.02        10.32671
488.46        11.69469
488.90        11.75143
489.34        11.85178
489.79        11.87438
490.23        12.60529
490.67        13.07346
491.11        13.07312
491.55        12.95387
491.99        12.71757
492.43        12.51101
492.88        12.40892
493.32        12.39488
493.76        12.40569
494.20         12.5866
494.64        12.89858
495.08         13.2943
495.52         13.7058
495.96        14.04687
496.41        14.25207
496.85        14.32597
497.29        14.30395
497.73        14.11014
498.17        13.93492
498.61        14.10865
499.05        14.62147
499.49        14.76646
499.93        14.88612
500.37        15.01287
500.82        15.10397
501.26        15.30854
501.70        15.54807
502.14         15.6885
502.58        15.71606
503.02        15.76308
503.46        15.83443
503.90        15.84795
504.34        15.81139
504.78        15.77628
505.22        15.75406
505.66        15.74275
506.10        15.74305
506.54        15.75331
506.98        15.77673
507.42        15.81499
507.86        15.88922
508.30        16.03064
508.74         16.2343
509.18        16.47929
509.62        16.71411
510.06          16.856
510.50        16.88707
510.94        16.83872
511.38         16.7496
511.82        16.68255
512.26        16.66169
512.70        16.66699
513.14        16.70927
513.58        16.80398
514.02        16.93417
514.46        17.08868
514.90        17.21799
515.34        17.20506
515.78        17.00526
516.22        16.81785
516.66        16.71574
517.10        16.34459
517.54        15.72685
517.98        16.55393
518.42        16.34065
518.86        16.69849
519.30        16.86609
519.74        17.07807
520.18        17.27791
520.62        17.34422
521.06        17.28865
521.50        17.12126
521.93        16.90742
522.37        16.76802
522.81        16.73479
523.25        16.77763
523.69        16.85841
524.13        16.91496
524.57        16.92638
525.01         16.9116
525.45        16.88165
525.89        16.85234
526.32        16.82711
526.76        16.79786
527.20         16.7553
527.64        16.69562
528.08        16.62117
528.52        16.51907
528.96        16.39946
529.40        16.32121
529.83        16.29984
530.27        16.15753
530.71        16.18997
531.15         16.1012
531.59        15.98359
532.03        15.83772
532.46         15.7217
532.90        15.73239
533.34         15.8725
533.78        16.10291
534.22        16.32794
534.66        16.40715
535.09        16.30951
535.53        16.08742
535.97        15.81666
536.41        15.62191
536.85        15.54367
537.28        15.55044
537.72        15.60594
538.16        15.64991
538.60        15.66344
539.04        15.65552
539.47        15.65217
539.91        15.72773
540.35        15.87184
540.79        16.00361
541.22        16.09838
541.66        16.18413
542.10        16.25455
542.54        16.27686
542.97        16.29113
543.41        16.38903
543.85        16.57875
544.29        16.84099
544.72         17.1004
545.16        17.24604
545.60         17.2578
546.04        17.16829
546.47        17.07939
546.91        17.16122
547.35        17.43656
547.79        17.85172
548.22        18.27899
548.66        18.50057
549.10        18.48413
549.53        18.32921
549.97        18.15892
550.41        18.11187
550.84        18.23556
551.28        18.49726
551.72        18.84065
552.15        19.16388
552.59        19.42017
553.03        19.63157
553.46        19.80485
553.90        19.96464
554.34        20.12399
554.77        20.25101
555.21        20.33331
555.65        20.41484
556.08        20.50912
556.52         20.3637
556.96         20.4876
557.39        20.54425
557.83        20.68683
558.27        20.87701
558.70         21.0873
559.14        21.25726
559.57        21.36095
560.01        21.42893
560.45        21.45375
560.88        21.42394
561.32        21.36776
561.75        21.27814
562.19        21.21525
562.63        21.24128
563.06        21.36189
563.50        21.56164
563.93        21.78697
564.37        21.95995
564.80        22.05154
565.24        22.09142
565.68         22.1045
566.11        22.13246
566.55        22.20572
566.98        22.30475
567.42        22.43373
567.85        22.59283
568.29        22.78892
568.72        22.95582
569.16        23.12597
569.60        23.40759
570.03        23.69584
570.47        23.77989
570.90        23.74883
571.34        23.39933
571.77        23.74056
572.21        23.79522
572.64        23.75865
573.08        23.45489
573.51        22.95018
573.95        24.04751
574.38         25.4753
574.82         25.1422
575.25        24.57668
575.69        23.73077
576.12         23.4535
576.56        23.47431
576.99        24.00511
577.42        25.26425
577.86        25.03694
578.29        24.95249
578.73        25.87081
579.16        23.89643
579.60        22.00615
580.03        23.08496
580.47        24.58048
580.90        24.73759
581.33        24.29724
581.77        23.96704
582.20        26.16216
582.64         25.4356
583.07        21.86795
583.51        21.38772
583.94        21.01457
584.37        21.90639
584.81        22.87249
585.24        23.90595
585.68        24.34379
586.11        23.62659
586.54         22.0935
586.98         21.4116
587.41        21.75344
587.85        22.56103
588.28        23.04785
588.71         22.0454
589.15        21.34055
589.58        21.84869
590.01        22.21717
590.45         22.6657
590.88        22.52677
591.31        22.20257
591.75        22.19649
592.18         22.3519
592.61        22.83179
593.05        23.39373
593.48        24.21994
593.91        23.99373
594.35        22.22433
594.78        21.88853
595.21        22.06143
595.65        23.17038
596.08        24.00135
596.51        23.16821
596.94         22.7277
597.38        23.18269
597.81        24.36556
598.24         24.9894
598.68        24.89844
599.11        24.73508
599.54        25.99856
599.97         26.5122
600.41        25.50788
600.84        25.90468
601.27        26.62106
601.70        26.56282
602.14        26.83254
602.57        26.82951
603.00        27.42184
603.43        28.57995
603.87        29.51863
604.30        29.67764
604.73        29.12699
605.16        29.19282
605.60        30.10045
606.03        31.16428
606.46        32.04348
606.89        32.33259
607.32        31.57956
607.76        32.05183
608.19        33.28254
608.62        33.21033
609.05        33.02061
609.48        33.60265
609.92        33.81414
610.35        34.35069
610.78        35.66513
611.21        36.36687
611.64        35.09283
612.07        35.68911
612.50         36.1013
612.94        36.60967
613.37        36.69541
613.80        37.15787
614.23        37.94219
614.66        38.18134
615.09         38.6099
615.52        38.89405
615.96        39.19212
616.39        39.51572
616.82        39.18654
617.25        39.51013
617.68        40.19175
618.11        40.75011
618.54        41.03837
618.97        40.98144
619.40        40.79137
619.84        41.07423
620.27        41.77107
620.70        42.31194
621.13        42.60537
621.56        42.31364
621.99        42.03164
622.42        42.63602
622.85        43.89758
623.28        43.85161
623.71        43.40292
624.14         43.4071
624.57        43.09797
625.00        43.10357
625.43        43.13755
625.86        42.79758
626.29        42.89981
626.72        42.97827
627.15        42.80358
627.58        42.72616
628.01        42.60635
628.44        42.45857
628.87        42.29301
629.30          42.131
629.73        41.93157
630.16        41.79554
630.59         41.3688
631.02        40.92116
631.45         40.4012
631.88        39.92402
632.31        39.50531
632.74        39.09787
633.17         38.6889
633.60        38.26812
634.03        37.83167
634.46        37.38874
634.89        36.94203
635.32        36.49353
635.75        36.04778
636.18        35.60551
636.61        35.17386
637.04        34.76161
637.47          34.364
637.89        33.97615
638.32        33.58278
638.75        33.18119
639.18        32.77843
639.61        32.39143
640.04        32.01764
640.47        31.64611
640.90        31.28034
641.33        30.91986
641.76        30.59815
642.18         30.4154
642.61        30.38152
643.04        30.39751
643.47        30.37542
643.90         30.5677
644.33        30.31944
644.76        30.17624
645.18         30.0106
645.61        29.94147
646.04        29.98923
646.47        30.11389
646.90        30.31414
647.33        30.56213
647.75        30.85584
648.18        31.23485
648.61        31.61101
649.04        31.85117
649.47        31.94925
649.89        31.84582
650.32        31.78006
650.75        32.27707
651.18        33.29155
651.61        34.30829
652.03        35.08436
652.46        35.54964
652.89        35.91619
653.32        36.09829
653.74        36.30054
654.17        37.64267
654.60        38.51271
655.03        37.56758
655.46        39.02629
655.88        41.55779
656.31        44.64571
656.74        100.5429
657.16        64.20213
657.59        22.52359
658.02        17.88161
658.45        31.66896
658.87        41.18587
659.30        43.83358
659.73        43.20668
660.15        42.01656
660.58        44.41451
661.01        46.23497
661.44        45.33346
661.86        45.14878
662.29        45.28185
662.72        46.08768
663.14        47.41368
663.57        47.68056
664.00        47.05252
664.42         47.1244
664.85         47.9725
665.27        48.63469
665.70         48.9301
666.13        49.10388
666.55        49.13623
666.98        48.97546
667.41        48.77198
667.83        48.79839
668.26        49.11496
668.69        49.61216
669.11        50.13227
669.54        50.63466
669.96        50.58213
670.39         50.5211
670.82        50.41907
671.24        50.28915
671.67        50.29818
672.09        50.77485
672.52        51.49043
672.94        52.11672
673.37          51.735
673.80        51.74731
674.22        51.96305
674.65        52.15035
675.07        52.29834
675.50         52.4248
675.92        52.55577
676.35        52.73251
676.77        52.95592
677.20        53.21427
677.62        53.52711
678.05        53.57684
678.47        53.91584
678.90         54.0881
679.32        54.25934
679.75        54.30881
680.17        54.45662
680.60        54.54614
681.02           54.61
681.45        54.57172
681.87        54.45593
682.30        54.32336
682.72        54.26345
683.15        54.40396
683.57        54.77663
684.00        55.22725
684.42        55.83279
684.85        56.15993
685.27        56.20533
685.70        56.04325
686.12        55.78835
686.54         55.6589
686.97         55.7027
687.39        55.87633
687.82        56.08632
688.24        56.21931
688.66        56.22648
689.09        56.15589
689.51        56.09983
689.94        56.17936
690.36        56.42642
690.78        56.79044
691.21        57.17271
691.63        57.42221
692.06        57.50407
692.48        57.47374
692.90        57.41964
693.33        57.46945
693.75        57.65751
694.17        57.94248
694.60        58.26705
695.02        58.52036
695.44        58.63714
695.87        58.80158
696.29        59.02309
696.71        58.83625
697.14        58.42358
697.56         58.8376
697.98        59.85643
698.41          59.766
698.83        59.17981
699.25        58.85009
699.68        59.01352
700.10        59.06219
700.52        59.00718
700.94        59.17646
701.37        59.51419
701.79        59.84412
702.21        60.09539
702.64         60.3206
703.06        60.47225
703.48        60.46918
703.90        60.32233
704.33        60.05694
704.75        59.76511
705.17        59.68118
705.59        59.85525
706.01        60.10937
706.44        60.34108
706.86        60.90195
707.28         60.9291
707.70        61.12946
708.12         61.2479
708.55        61.15345
708.97        60.90093
709.39        60.78608
709.81        60.85506
710.23        60.91439
710.66        60.96929
711.08        61.19337
711.50        61.48541
711.92        61.61185
712.34        61.53983
712.76        61.32664
713.19        61.10365
713.61        61.11032
714.03        61.38493
714.45        61.84999
714.87        62.33136
715.29         62.5565
715.71        62.46239
716.13        62.13663
716.56        61.74969
716.98        61.56452
717.40        61.64301
717.82        61.97652
718.24        62.44454
718.66        62.45062
719.08        62.54961
719.50        62.32487
719.92        62.06986
720.34         61.9546
720.76        62.03501
721.19        62.14265
721.61        62.40253
722.03         62.5991
722.45        62.74956
722.87        62.87605
723.29        62.99482
723.71        63.11274
724.13        63.20929
724.55        63.32652
724.97        63.48746
725.39        63.47752
725.81        63.24287
726.23        63.69861
726.65        63.55003
727.07        63.21687
727.49        63.41973
727.91        63.29589
728.33        63.18681
728.75        63.24416
729.17        63.52172
729.59        63.45371
730.01        63.87009
730.43        64.03596
730.85        64.18691
731.27        64.33688
731.69        64.43892
732.10        64.38199
732.52        64.15521
732.94        63.84213
733.36        63.59565
733.78        63.54226
734.20        63.71439
734.62        64.33676
735.04        65.18192
735.46        65.23507
735.88        64.69637
736.30        64.99514
736.72        66.14619
737.13         66.5655
737.55        66.06767
737.97        65.85713
738.39        66.01039
738.81        65.40791
739.23        64.42799
739.65        65.15914
740.06        67.14818
740.48        67.39848
740.90        65.98692
741.32        65.38141
741.74         65.8014
742.16        66.01114
742.57        66.05165
742.99        66.61503
743.41        67.51878
743.83        68.07149
744.25        68.15301
744.67        67.93615
745.08        67.61606
745.50        67.50745
745.92        67.71014
746.34          68.119
746.75         68.5729
747.17        68.79925
747.59        68.75401
748.01        68.52673
748.42        68.32431
748.84        68.46432
749.26        69.01337
749.68        69.82298
750.09        70.67139
750.51        71.23151
750.93        71.39867
751.35        71.15237
751.76        70.66088
752.18        70.43458
752.60        70.47949
753.01        70.33475
753.43        70.07916
753.85         70.1834
754.27        70.67287
754.68        71.44034
755.10         72.2505
755.52        72.62062
755.93        72.55535
756.35        72.59313
756.77        72.82574
757.18        72.84563
757.60        72.68021
758.02        72.93124
758.43        73.31351
758.85        72.86251
759.26        71.14206
759.68         71.1833
760.10        72.56034
760.51        73.26979
760.93        72.91831
761.34        72.17056
761.76        71.38166
762.18        70.95966
762.59        71.06611
763.01        71.43546
763.42        72.02625
763.84        72.58283
764.26        73.02236
764.67        73.38528
765.09        73.55974
765.50        73.35653
765.92        72.79503
766.33        71.74839
766.75        70.61541
767.16         70.2175
767.58        70.70911
768.00        71.96571
768.41        73.68232
768.83        74.96925
769.24        75.31012
769.66         74.7443
770.07        73.67706
770.49        72.23138
770.90        70.88548
771.32        71.79115
771.73        73.95535
772.15        73.64008
772.56         71.1349
772.97        70.71027
773.39        72.27239
773.80        72.78143
774.22        72.04323
774.63        71.86317
775.05        72.24747
775.46         72.4681
775.88        72.45142
776.29        72.39513
776.70        72.34028
777.12        72.38208
777.53        72.55135
777.95        72.76812
778.36        72.92004
778.77        72.81721
779.19        72.47162
779.60        71.94767
780.02        71.46444
780.43        71.43806
780.84        71.98499
781.26          72.584
781.67         73.1227
782.09        74.23064
782.50        75.38392
782.91        74.44231
783.33        72.10536
783.74        71.32869
784.15        72.28789
784.57        73.09436
784.98        73.37907
785.39         73.4906
785.81        73.32249
786.22         72.6489
786.63        71.88572
787.04        71.78406
787.46        72.43506
787.87        73.59523
788.28        74.84513
788.70        75.47356
789.11        75.30291
789.52        74.58274
789.93        73.68372
790.35        73.12696
790.76        73.06245
791.17         73.3786
791.58        73.87719
792.00        74.16349
792.41        74.11044
792.82        73.90395
793.23        73.75101
793.65        73.50678
794.06        73.40668
794.47        74.49138
794.88        76.01028
795.29        75.66948
795.71        73.34129
796.12        71.24268
796.53        69.95693
796.94         69.6319
797.35        70.46818
797.76         71.7821
798.18        73.03634
798.59        73.93396
799.00        74.14682
799.41        73.41829
799.82        72.18186
800.23        71.45313
800.64        71.44249
801.06         71.7655
801.47        72.30111
801.88        72.75185
802.29         72.9894
802.70        73.15443
803.11        73.23456
803.52        73.17023
803.93         72.9823
804.34        72.64101
804.75         72.2962
805.17          72.272
805.58          72.658
805.99         73.1629
806.40        73.55794
806.81        73.96556
807.22        74.04761
807.63        72.77789
808.04        70.74847
808.45        69.86794
808.86        70.34968
809.27         71.3045
809.68        72.32214
810.09        72.98672
810.50        73.06226
810.91         72.6908
811.32        72.10786
811.73        71.69635
812.14        71.57525
812.55        71.58457
812.96        71.70718
813.37        71.91752
813.78         72.1729
814.19        72.54504
814.60        72.83169
815.01         72.6991
815.42          72.116
815.83        71.14018
816.24        70.17608
816.65        69.94157
817.05        70.63779
817.46        72.01919
817.87        73.53803
818.28        74.21218
818.69        73.77845
819.10        72.48489
819.51        70.94424
819.92         70.2242
820.33        70.60943
820.74        71.70512
821.14        72.95886
821.55        73.56461
821.96        73.21843
822.37        71.85813
822.78        70.08918
823.19        69.15884
823.60        69.30945
824.00        70.08763
824.41        71.07322
824.82         71.7647
825.23        71.90994
825.64        71.68273
826.04        71.30327
826.45        71.09117
826.86        71.12985
827.27        71.27017
827.68          71.418
828.08        71.46656
828.49        71.31985
828.90         71.1032
829.31        70.81326
829.72        70.42438
830.12        70.00891
830.53        69.57231
830.94        69.30373
831.35        69.45236
831.75        70.08312
832.16        71.06174
832.57         72.1926
832.97         73.0375
833.38        73.36726
833.79        73.28051
834.20        72.96281
834.60        72.71783
835.01        72.66238
835.42        72.69724
835.82        72.72473
836.23        72.51119
836.64        72.05537
837.04        71.48459
837.45        70.95071
837.86        70.67873
838.26        70.72905
838.67        70.98677
839.08        71.36985
839.48        71.72105
839.89        71.93288
840.29        72.05316
840.70        72.03351
841.11        71.79276
841.51        71.35033
841.92        70.70947
842.33        70.05078
842.73        69.68726
843.14        69.66071
843.54        69.93402
843.95          70.278
844.35        70.35879
844.76        70.08169
845.17        69.57578
845.57        69.03319
845.98        68.74828
846.38        68.79803
846.79        69.06579
847.19        69.46322
847.60        69.75532
848.00        69.89495
848.41        69.92242
848.81         69.9165
849.22        69.92336
849.62         70.0093
850.03         70.1428
850.43        70.34373
850.84        70.58393
851.24        70.87794
851.65        71.07756
852.05        71.29824
852.46        71.55543
852.86        71.85748
853.27        72.23934
853.67        72.33527
854.07        71.69739
854.48         70.3748
854.88        68.52405
855.29        66.81584
855.69        66.21675
856.10        66.89162
856.50        68.73228
856.90         71.0614
857.31        72.32063
857.71        72.05367
858.12         70.6688
858.52        68.93944
858.92        67.86375
859.33        67.66093
859.73        68.05219
860.13         68.8707
860.54        69.74776
860.94        70.53925
861.34        71.32628
861.75        71.98004
862.15        72.38914
862.55        72.49947
862.96        72.28413
863.36        71.91823
863.76        71.71542
864.17        71.76808
864.57        72.05679
864.97        72.45045
865.38        72.72117
865.78        72.85251
866.18        72.83163
866.58        72.76168
866.99        72.80645
867.39        73.04927
867.79        73.46632
868.19        73.77541
868.60        73.46475
869.00        72.45245
869.40        70.93698
869.80        69.61539
870.21        69.54749
870.61        71.02998
871.01        73.72681
871.41         76.7934
871.81        78.77474
872.22        79.25189
872.62        78.60513
873.02         77.5089
873.42        77.28905
873.82        78.00391
874.22        78.75072
874.63        79.31621
875.03        79.37983
875.43        78.74724
875.83        78.86871
876.23        77.12417
876.63        75.88759
877.03        74.74406
877.44         73.6732
877.84        108.0856
878.24        79.27917
878.64        81.45229
879.04        84.66504
879.44        80.64378
879.84         78.7449
880.24        84.07578
880.64        85.78954
881.04        85.01001
881.44        83.90018
881.84         82.6598
882.24        81.22908
882.65        80.25703
883.05        80.04797
883.45        80.62993
883.85        82.32922
884.25        84.52496
884.65        85.69309
885.05         85.4146
885.45        84.14133
885.85        82.66533
886.25        82.11847
886.65        82.72353
887.05        84.09907
887.45         85.7246
887.85        86.67442
888.25        86.62897
888.65        85.92221
889.04        84.89244
889.44        84.09487
889.84        83.69694
890.24        83.49592
890.64        83.44009
891.04        83.47459
891.44        83.54482
891.84        83.72039
892.24        83.86916
892.64        83.71294
893.04        83.26044
893.44        82.66066
893.83        82.15472
894.23        82.10581
894.63        82.56094
895.03        83.33173
895.43        84.36675
895.83        85.54161
896.23        86.69316
896.63        87.83316
897.02        88.51765
897.42        88.06432
897.82        86.46662
898.22         84.0326
898.62        81.59983
899.01        80.38535
899.41        80.64856
899.81        81.98978
900.21        83.79649
900.61        85.05366
901.00        85.42287
901.40        85.18331
901.80        84.62701
902.20        84.21352
902.59        84.09166
902.99        84.09921
903.39        84.07751
903.79        83.79599
904.18        83.23349
904.58        82.58634
904.98        82.10571
905.38        82.14108
905.77        82.72018
906.17        83.65247
906.57        84.69188
906.96        85.53734
907.36         86.0103
907.76        86.19292
908.15        86.08293
908.55        85.57923
908.95        84.77267
909.34        83.69376
909.74        82.59683
910.14        81.69461
910.53        81.09624
910.93        80.83083
911.33        80.94622
911.72         81.5074
912.12        82.35029
912.52        83.30869
912.91        84.23148
913.31        84.95345
913.70         85.4992
914.10        85.91171
914.49        85.96078
914.89        85.19933
915.29        83.66975
915.68        81.62503
916.08        79.93017
916.47        79.33637
916.87        79.85804
917.26        81.28358
917.66         82.8708
918.05        83.40636
918.45        82.60136
918.84        80.89654
919.24         79.1089
919.64        78.43507
920.03        79.19183
920.42        80.99339
920.82        83.28262
921.21        85.18868
921.61        86.15867
922.00        86.43217
922.40        86.11166
922.79        85.40574
923.19        84.52157
923.58        83.21199
923.98        81.44921
924.37        80.08797
924.77         79.7298
925.16        76.15659
925.55        77.44138
925.95         77.7352
926.34        79.42262
926.74        81.87522
927.13        84.44699
927.52        85.72554
927.92        85.45649
928.31        84.10955
928.70        82.15527
929.10        80.44967
929.49        79.25742
929.89        78.35151
930.28        78.00935
930.67        78.70098
931.07        80.29944
931.46        82.77894
931.85        85.13467
932.24        85.83214
932.64        84.60297
933.03         81.6601
933.42         78.0128
933.82         75.8729
934.21        75.84581
934.60        77.28525
934.99         78.9533
935.39        79.60475
935.78        79.05533
936.17        76.98452
936.56        73.31941
936.96         74.4509
937.35        73.05608
937.74        74.84794
938.13        76.64017
938.53        78.26878
938.92        79.77998
939.31        81.45415
939.70        82.97629
940.09        83.22582
940.49        81.95918
940.88        79.70875
941.27        77.36005
941.66        75.93774
942.05        75.57213
942.44        75.92149
942.84        76.82997
943.23        78.06687
943.62        79.34092
944.01        80.67661
944.40         81.6507
944.79        81.60973
945.18        80.38931
945.57        77.97989
945.97        74.91327
946.36        72.68614
946.75          72.102
947.14        72.74416
947.53         73.8719
947.92        74.66364
948.31        74.99327
948.70        75.12144
949.09        75.17789
949.48        75.37722
949.87        75.77048
950.26        76.15963
950.65        76.46375
951.04         76.6433
951.43        76.69254
951.82         76.6803
952.21        76.53649
952.60        76.15952
952.99        75.54352
953.38        74.66123
953.77        73.80632
954.16        73.39768
954.55        73.48563
954.94        74.05276
955.33         74.5171
955.72        73.87181
956.11        71.97079
956.50        69.11464
956.89        66.40722
957.28        65.87803
957.66        68.10715
958.05        72.16138
958.44        76.70039
958.83        79.73962
959.22        80.71094
959.61         80.1267
960.00        78.48578
960.39        76.63396
960.78        74.95818
961.16        73.25473
961.55        71.59142
961.94        70.17096
962.33        69.11427
962.72        68.54154
963.11        68.42567
963.49        68.59711
963.88        68.96889
964.27        69.59876
964.66        70.29951
965.04         70.7131
965.43        70.64025
965.82        70.16489
966.21        69.71082
966.60        69.89745
966.98        70.83562
967.37        72.33543
967.76        73.93546
968.15        74.69779
968.53        74.34513
968.92        73.15182
969.31        71.73622
969.69        70.91302
970.08        70.85245
970.47        71.35062
970.86        71.95807
971.24        71.87828
971.63        70.89272
972.02        69.23415
972.40         67.5079
972.79        66.79022
973.17        67.49903
973.56         69.2564
973.95        71.41052
974.33        72.68108
974.72        72.53893
975.11        71.36893
975.49        69.86586
975.88        68.99953
976.26        68.92876
976.65        69.43271
977.04        69.93922
977.42        69.20251
977.81        66.97786
978.19        63.89915
978.58        61.47504
978.96        61.12996
979.35        63.04586
979.74        66.95226
980.12        72.03303
980.51        75.32355
980.89        75.83195
981.28        74.22729
981.66        71.82277
982.05        70.31055
982.43         70.0196
982.82        70.37591
983.20        71.12656
983.59        71.95927
983.97        72.80125
984.35         73.8173
984.74        74.70174
985.12        74.99949
985.51         74.3336
985.89        72.66727
986.28        70.39721
986.66        68.05418
987.04        66.17798
987.43        64.86392
987.81        63.84177
988.20        62.54731
988.58        60.65009
988.96        57.75452
989.35        54.39722
989.73        53.32662
990.12        56.35878
990.50        62.19528
990.88        67.23645
991.27        68.78544
991.65        67.40281
992.03        63.90926
992.42        60.03172
992.80        58.69609
993.18        60.71734
993.56        64.29768
993.95        68.10693
994.33        71.28059
994.71        73.41249
995.10        75.12319
995.48        75.92844
995.86        74.78574
996.24        71.51035
996.63        65.93312
997.01        59.40222
997.39        56.16704
997.77         58.1862
998.15        64.61082
998.54         71.9194
998.92        75.18845
999.30        72.94059
999.68        66.41618
1000.06        57.62305
1000.45        51.44091
1000.83        49.82665
1001.21         51.1045
1001.59        53.75907
1001.97        56.23862
1002.35         58.0813
1002.73        60.08525
1003.12        61.46257
1003.50        59.86659
1003.88        54.95568
1004.26        48.40138
1004.64        42.55359
1005.02        38.99401
1005.40        37.58348
1005.78        37.88398
1006.16        41.36432
1006.54        49.29654
1006.92        57.85197
1007.30        63.91535
1007.69        66.92188
1008.07        67.91351
1008.45        67.33846
1008.83        64.18002
1009.21        53.79353
1009.59        21.31812
1009.97       -60.41504
1010.35       -163.1664
1010.73       -133.3069
1011.11        -61.0458
1011.49       -12.15397
1011.86        21.48256
1012.24        39.78688
1012.62        46.29506
1013.00         45.2581
1013.38        38.15564
1013.76         26.7758
1014.14          20.057
1014.52        26.36043
1014.90        48.03547
1015.28        79.73003
1015.66        100.2564
1016.04        96.20165
1016.41        71.96811
1016.79        42.45002
1017.17        24.19943
1017.55        18.74157
1017.93        18.59404
1018.31        21.06248
1018.69        25.70857
1019.06        32.58755
1019.44        42.81775
1019.82        58.29062
1020.20        76.64493
1020.58        92.66747
1020.95        100.3198
1021.33        78.76595
1021.71        516.6528
1022.09        164.8167
1022.46        148.4941
1022.84        147.1661
1023.22        156.9744
1023.60        190.7172
1023.97        534.8966
1024.35       -47.86866
1024.73        21.28234
