SpectraSmart Spectrum 2.9.0.0
--------- Device Information -----------
Spectrum Name :  反射率_0
Saving Time :  2024/04/26 00:52:22
Spectro-Module Model Name : SE2030-DUVN
Spectro-Module Serial Number : OS361AC55029948
Wavelength Start : 200
Wavelength End : 1025
Wavelength Unit : Wavelength(nm)
Spectrum Unit : Reflectance(%)
-----------Spectrum Setting ------------
Integration Time : 20ms
Average : 10
Boxcar : 0
Background removal :  enabled
linearity correction :  enabled
SC :  disabled
Intensity correction :  disabled
DWT denoise :  enabled
savitzky-golay :  disabled
FFT :  disabled
Running average :  disabled
Kalman :  disabled
High pass :  disabled
---------------BEGIN--------------------
Wavelength(nm)             Reflectance(%)
200.29               0
200.75        77.30585
201.21        71.74622
201.67        65.38911
202.13        61.53081
202.58        60.61155
203.04        62.03896
203.50        64.80764
203.96        67.10775
204.42         68.1635
204.88        68.35542
205.34        68.39976
205.80        69.20769
206.26        71.29655
206.72        75.70727
207.18        82.91513
207.64        84.26256
208.10        71.34257
208.55        57.57228
209.01        50.90238
209.47        50.03469
209.93        52.55178
210.39        57.79366
210.85        63.96219
211.31        66.67072
211.77        64.40658
212.23        58.81876
212.69         52.9149
213.14        51.54115
213.60        55.38525
214.06        62.85571
214.52        71.53978
214.98        77.80618
215.44        80.34287
215.90        80.24769
216.36        78.13347
216.81        74.67108
217.27        70.90741
217.73        66.93755
218.19        62.82396
218.65        58.38158
219.11        53.06629
219.57        45.90667
220.02        37.53276
220.48        33.00733
220.94         34.8381
221.40        42.21007
221.86        49.01415
222.32        48.83582
222.77        42.69277
223.23         34.1504
223.69        27.53709
224.15        27.42721
224.61        33.10499
225.06        42.16736
225.52        51.00513
225.98        54.92856
226.44        53.15636
226.90        47.79648
227.36        41.33717
227.81        37.13646
228.27        36.31684
228.73        37.51295
229.19         39.9348
229.65        42.41722
230.10         44.3407
230.56        46.01071
231.02        47.22738
231.48        47.67621
231.93        47.44148
232.39        46.66242
232.85        45.64228
233.31        44.95887
233.77        44.74755
234.22         44.8265
234.68        45.12996
235.14        45.41539
235.60        45.57975
236.05        45.79037
236.51        45.88246
236.97        45.53907
237.43        44.72459
237.88        43.41582
238.34        42.09128
238.80        42.25441
239.26        44.55446
239.71        48.76573
240.17        53.47095
240.63        56.53463
241.08        57.34779
241.54        56.36608
242.00        54.59579
242.46        53.41261
242.91        53.38593
243.37        54.43481
243.83        59.80161
244.28        84.31962
244.74        124.4296
245.20        118.9881
245.66        105.6283
246.11        100.6592
246.57        100.4755
247.03        103.5691
247.48        108.1367
247.94        84.53217
248.40        74.11575
248.85        73.48411
249.31        74.57291
249.77        76.19172
250.22        78.57608
250.68        82.47756
251.14        87.77909
251.59        90.69264
252.05        88.01479
252.51        81.57609
252.96        75.16003
253.42        72.82207
253.88        73.92047
254.33        76.70688
254.79        80.38869
255.25        83.29144
255.70        84.76923
256.16        85.73758
256.62        85.43472
257.07        82.96247
257.53        79.11187
257.99        74.09947
258.44        69.44092
258.90        67.76974
259.35        68.09785
259.81        69.39709
260.27        69.72917
260.72         67.2361
261.18        62.73907
261.63        57.09293
262.09        52.01572
262.55        48.81794
263.00        47.38687
263.46        47.09131
263.91        46.94614
264.37        46.20788
264.83        44.69376
265.28        42.61776
265.74        40.53185
266.19        39.00635
266.65        38.29345
267.11        38.07436
267.56        37.91251
268.02        37.28714
268.47        36.08569
268.93        34.50904
269.38        32.84712
269.84        31.80912
270.30        31.57108
270.75        31.92079
271.21        32.45861
271.66        32.59634
272.12        32.17128
272.57        31.35426
273.03        30.44744
273.48        29.82306
273.94         29.6003
274.39        29.61147
274.85         29.6481
275.31        29.39905
275.76        28.79925
276.22        27.99792
276.67        27.18187
277.13        26.70628
277.58        26.57271
278.04        26.68245
278.49        26.77914
278.95         26.5698
279.40        25.98425
279.86        25.19906
280.31        24.36623
280.77        23.82444
281.22        23.59647
281.68        23.58391
282.13        23.65638
282.59        23.67034
283.04        23.57149
283.50        23.44654
283.95        23.26885
284.41        23.01471
284.86        22.69255
285.32        22.31855
285.77        22.00491
286.22        21.98696
286.68        22.26404
287.13        22.73177
287.59        23.17819
288.04        23.27439
288.50        22.98824
288.95         22.4202
289.41        21.77538
289.86        21.25822
290.32        20.98634
290.77        20.87559
291.22        20.91617
291.68        21.05616
292.13        21.26961
292.59         21.5734
293.04        21.94402
293.50        22.33938
293.95        22.73091
294.40        23.09718
294.86        23.42327
295.31        23.70448
295.77        23.95084
296.22        24.17108
296.68        24.38049
297.13        24.57546
297.58        24.77868
298.04        25.00853
298.49         25.2999
298.95        25.73958
299.40        26.32097
299.85        27.00641
300.31        27.70485
300.76        28.28642
301.21        28.69866
301.67        28.99801
302.12          29.193
302.58        29.35379
303.03        29.48959
303.48        29.59889
303.94        29.74874
304.39        30.00584
304.84        30.38139
305.30         30.8455
305.75        31.28514
306.20        31.53672
306.66        31.58701
307.11        31.47303
307.57        31.31058
308.02        31.19913
308.47        31.19976
308.93        31.27979
309.38        31.40965
309.83        31.57493
310.29        31.74838
310.74        31.92207
311.19        32.07045
311.65        32.15081
312.10        32.15115
312.55        32.08492
313.00        31.94333
313.46        31.72727
313.91        31.44455
314.36        31.11724
314.82        30.82973
315.27        30.69205
315.72        30.72716
316.18        30.90023
316.63        31.11462
317.08        31.18591
317.53        31.06481
317.99        30.79276
318.44        30.47981
318.89        30.30494
319.35        30.30233
319.80        30.42402
320.25        30.54531
320.70        30.46419
321.16         30.1384
321.61        29.63815
322.06        29.10138
322.51        28.73426
322.97        28.57493
323.42        28.57005
323.87        28.60126
324.32        28.47299
324.78        28.13475
325.23        27.66044
325.68        27.15342
326.13        26.78153
326.59        26.58835
327.04        26.53879
327.49        26.56047
327.94        26.53919
328.39        26.43563
328.85        26.27069
329.30         26.1121
329.75        26.03441
330.20        26.05771
330.66        26.13554
331.11        26.22244
331.56         26.2032
332.01        26.04689
332.46        25.77259
332.92        25.44899
333.37        25.23239
333.82        25.16363
334.27        25.22218
334.72        25.30542
335.17        25.23566
335.63        24.97032
336.08        24.56658
336.53        24.17208
336.98        24.02588
337.43        24.17402
337.88        24.54273
338.34        24.92949
338.79        25.05055
339.24        24.81201
339.69         24.3018
340.14        23.72755
340.59        23.45078
341.05        23.55686
341.50        23.92733
341.95        24.36744
342.40        24.59453
342.85        24.53917
343.30        24.30026
343.75         23.9662
344.20        23.69153
344.66        23.53304
345.11          23.405
345.56        23.31109
346.01        23.25752
346.46        23.22709
346.91        23.24524
347.36        23.20631
347.81        22.93197
348.26        22.42135
348.72        21.76548
349.17        21.14011
349.62        20.91584
350.07         21.1672
350.52        21.76104
350.97        22.48222
351.42        23.00086
351.87        23.21564
352.32        23.21412
352.77        23.05975
353.22        22.86105
353.67        22.66675
354.13        22.44618
354.58        22.21233
355.03        22.02865
355.48        21.90848
355.93           21.86
356.38        21.84042
356.83         21.7648
357.28        21.61234
357.73        21.40027
358.18        21.17826
358.63        21.02649
359.08        20.96235
359.53        20.96448
359.98        20.96835
360.43        20.87556
360.88        20.66911
361.33        20.37763
361.78        20.08968
362.23        19.94835
362.68        19.97563
363.13        20.11506
363.58        20.25638
364.03        20.22857
364.48        19.99637
364.93        19.62594
365.38         19.2011
365.83        18.85534
366.28        18.63602
366.73        18.50142
367.18        18.44201
367.63        18.44243
368.08        18.47872
368.53        18.55174
368.98        18.61312
369.43        18.58063
369.88        18.44488
370.33        18.23713
370.78        17.99938
371.23        17.81082
371.68        17.70103
372.13         17.6384
372.58        17.64927
373.03        17.77316
373.48        17.99079
373.93        18.28054
374.38        18.52254
374.83        18.53244
375.28        18.28559
375.72        17.83489
376.17        17.34216
376.62        17.03424
377.07         16.9794
377.52        17.10703
377.97        17.33618
378.42         17.5311
378.87        17.63364
379.32        17.67699
379.77        17.66121
380.22        17.58393
380.67        17.45317
381.11        17.26777
381.56        17.04144
382.01        16.81417
382.46        16.60742
382.91        16.42325
383.36        16.28174
383.81        16.20496
384.26        16.19246
384.71        16.23813
385.15        16.29551
385.60        16.30554
386.05        16.24693
386.50        16.12479
386.95        15.97937
387.40        15.88643
387.85        15.86633
388.29        15.89592
388.74        15.92533
389.19        15.86698
389.64        15.71135
390.09        15.48018
390.54        15.25517
390.98        15.17168
391.43        15.26281
391.88        15.47046
392.33        15.67888
392.78        15.71853
393.23        15.56843
393.67        15.28708
394.12              15
394.57        14.82697
395.02        14.79563
395.47        14.86036
395.91        14.97306
396.36        15.02986
396.81         14.9997
397.26        14.90307
397.71        14.77709
398.15        14.65844
398.60        14.58282
399.05        14.54593
399.50        14.50411
399.95        14.35506
400.39        14.15605
400.84        13.88265
401.29         13.6502
401.74        13.63758
402.18        13.88742
402.63        14.31771
403.08         14.7746
403.53        15.01468
403.97        14.97743
404.42        14.73243
404.87        14.39131
405.32        14.15292
405.76        14.07976
406.21        14.11271
406.66        14.19196
407.11        14.23617
407.55        14.22466
408.00         14.1863
408.45        14.12984
408.90        14.05835
409.34        13.98096
409.79         13.8917
410.24        13.81703
410.68        13.79736
411.13        13.83992
411.58        13.93948
412.03        14.05397
412.47        14.10893
412.92          14.075
413.37        13.97137
413.81        13.85711
414.26        13.83986
414.71        13.92974
415.15        14.09623
415.60        14.24837
416.05        14.25948
416.49        14.10309
416.94        13.83583
417.39        13.53827
417.83        13.34768
418.28        13.31298
418.73        13.38002
419.17         13.5105
419.62        13.63864
420.07        13.73925
420.51        13.83218
420.96        13.88517
421.41        13.83973
421.85        13.69136
422.30        13.47823
422.74        13.26128
423.19        13.16068
423.64         13.1841
424.08        13.30713
424.53        13.46258
424.98        13.55677
425.42        13.56203
425.87        13.49784
426.31         13.3925
426.76        13.33181
427.21        13.31299
427.65        13.22324
428.10        13.12217
428.54        13.18637
428.99        13.42171
429.44        13.74983
429.88        14.02971
430.33        14.08118
430.77        13.87737
431.22        13.47986
431.66        13.05173
432.11        12.89548
432.56        13.03569
433.00        13.31024
433.45        13.58097
433.89        13.78972
434.34        13.85059
434.78         13.6605
435.23        13.38712
435.67        13.40613
436.12        13.66664
436.57        13.70526
437.01        13.50369
437.46        13.37562
437.90         13.3621
438.35         13.3743
438.79        13.37759
439.24        13.35861
439.68        13.31556
440.13        13.19936
440.57        13.06621
441.02        13.17736
441.46        13.43897
441.91        13.36438
442.35        12.99656
442.80        12.79809
443.24        12.74511
443.69        12.66295
444.13         12.5336
444.58        12.33643
445.02        12.13522
445.47        12.17708
445.91        12.39624
446.36        12.46248
446.80         12.3421
447.24        12.21677
447.69        12.12611
448.13        12.04744
448.58        11.99968
449.02        11.98419
449.47        11.98563
449.91        11.97833
450.36        11.95916
450.80        11.93353
451.25        11.92025
451.69        11.93676
452.13        11.98672
452.58        12.04751
453.02        12.10755
453.47        12.14459
453.91        12.15525
454.36        12.15213
454.80        12.12352
455.24        12.05108
455.69        11.94833
456.13        11.82041
456.58        11.72953
457.02        11.74763
457.46        11.88731
457.91        12.11447
458.35        12.35994
458.79        12.50478
459.24        12.52774
459.68        12.44964
460.13        12.33897
460.57        12.26827
461.01        12.27382
461.46        12.32513
461.90        12.39111
462.34        12.41067
462.79         12.3689
463.23        12.28316
463.68        12.20354
464.12        12.20854
464.56        12.31606
465.01        12.50247
465.45        12.67645
465.89        12.74984
466.34         12.7171
466.78        12.53862
467.22         12.3247
467.67        12.37969
468.11        12.67006
468.55        12.81327
468.99        12.77051
469.44        12.74055
469.88        12.76764
470.32        12.89475
470.77        13.06801
471.21        13.10589
471.65        12.98922
472.10        12.85765
472.54        12.76104
472.98        12.74042
473.42        12.81518
473.87        12.97492
474.31        13.16538
474.75        13.29417
475.20        13.34179
475.64        13.32588
476.08        13.29193
476.52         13.3108
476.97        13.39978
477.41        13.54038
477.85         13.6837
478.29        13.77858
478.74        13.81308
479.18        13.73509
479.62        13.60507
480.06        13.74519
480.50        13.88531
480.95        14.04764
481.39        14.08946
481.83        14.07968
482.27         14.0141
482.72        13.80128
483.16        13.54617
483.60        13.58038
484.04        13.91747
484.48        14.18116
484.93        14.51687
485.37        14.91297
485.81        15.32185
486.25        15.66086
486.69           20.94
487.14        16.53734
487.58        10.91384
488.02        13.13873
488.46        14.98041
488.90        15.07893
489.34         15.1874
489.79        15.18418
490.23        16.05544
490.67        16.53414
491.11        16.41567
491.55        16.30062
491.99        16.17231
492.43        16.01229
492.88        15.89648
493.32        15.94604
493.76        16.05571
494.20          16.301
494.64        16.62437
495.08        17.00001
495.52        17.38932
495.96        17.75507
496.41        18.03143
496.85        18.20182
497.29        18.26553
497.73        18.04975
498.17        17.78081
498.61        17.90472
499.05        18.43985
499.49        18.55787
499.93        18.71237
500.37        18.91912
500.82        19.09887
501.26        19.40048
501.70        19.71395
502.14        19.88552
502.58        19.90077
503.02        19.93052
503.46        19.98657
503.90        19.96184
504.34        19.88422
504.78        19.84905
505.22        19.87385
505.66        19.94698
506.10        20.03968
506.54        20.09809
506.98        20.11185
507.42        20.09754
507.86        20.10776
508.30        20.22359
508.74        20.45201
509.18        20.75662
509.62         21.0605
510.06        21.23889
510.50        21.26379
510.94         21.1833
511.38        21.05673
511.82        20.97835
512.26        20.98057
512.70         21.0297
513.14        21.12664
513.58        21.27205
514.02        21.44036
514.46        21.62354
514.90        21.76523
515.34        21.73944
515.78        21.50393
516.22        21.25351
516.66        21.07418
517.10        20.65865
517.54        20.03885
517.98         20.8159
518.42        20.62645
518.86        20.98871
519.30        21.17447
519.74        21.40689
520.18        21.63037
520.62        21.72643
521.06         21.7036
521.50        21.56989
521.93        21.38069
522.37        21.24233
522.81        21.18501
523.25        21.18269
523.69        21.21367
524.13        21.24118
524.57        21.24875
525.01         21.2478
525.45        21.23118
525.89        21.18487
526.32        21.10586
526.76        20.99768
527.20        20.86918
527.64        20.74467
528.08        20.63674
528.52          20.523
528.96        20.40193
529.40        20.32561
529.83        20.30568
530.27        20.12279
530.71        20.16122
531.15        20.07781
531.59        19.98913
532.03        19.88734
532.46        19.81016
532.90        19.81963
533.34        19.91382
533.78        20.06849
534.22        20.21656
534.66        20.26065
535.09        20.17724
535.53        20.00391
535.97         19.7957
536.41        19.64505
536.85        19.58252
537.28        19.58877
537.72        19.63009
538.16        19.65139
538.60        19.63976
539.04        19.59922
539.47        19.57029
539.91        19.66125
540.35        19.85909
540.79        20.05823
541.22        20.21513
541.66        20.34361
542.10        20.42979
542.54        20.44059
542.97        20.42878
543.41        20.51329
543.85        20.70951
544.29        20.99139
544.72        21.27981
545.16        21.45937
545.60          21.508
546.04        21.46276
546.47        21.42523
546.91        21.56451
547.35        21.90171
547.79        22.38148
548.22        22.87634
548.66        23.16868
549.10        23.22495
549.53        23.14785
549.97        23.05249
550.41        23.05681
550.84        23.20573
551.28        23.47349
551.72        23.81344
552.15        24.13694
552.59         24.4029
553.03        24.63174
553.46        24.82046
553.90        24.98474
554.34        25.13687
554.77        25.24523
555.21         25.3098
555.65        25.40968
556.08        25.56433
556.52        25.44578
556.96        25.66544
557.39        25.76607
557.83        25.93357
558.27        26.13483
558.70         26.3536
559.14        26.54723
559.57        26.69051
560.01        26.80476
560.45        26.87896
560.88        26.89699
561.32        26.88504
561.75         26.8363
562.19        26.79786
562.63        26.80455
563.06        26.86287
563.50        26.97166
563.93         27.1118
564.37        27.26382
564.80        27.40882
565.24        27.55975
565.68        27.70654
566.11        27.83742
566.55         27.9711
566.98        28.10143
567.42        28.25119
567.85        28.44923
568.29        28.71754
568.72        28.96181
569.16         29.2016
569.60        29.58442
570.03        29.97612
570.47        30.02616
570.90        29.86623
571.34        29.62406
571.77        29.98417
572.21        30.21577
572.64        30.33212
573.08        29.93594
573.51        28.99718
573.95        30.27654
574.38         32.2254
574.82        31.72249
575.25        31.41862
575.69        30.37944
576.12        29.94943
576.56         29.7183
576.99         30.4092
577.42        31.89904
577.86        31.88582
578.29        31.44933
578.73        33.15737
579.16         30.3942
579.60        27.67035
580.03        28.84632
580.47        30.80555
580.90        31.20443
581.33        30.65075
581.77        30.38597
582.20        33.07575
582.64        32.73951
583.07        27.85947
583.51        27.19849
583.94        26.55984
584.37        27.52267
584.81        28.65984
585.24        30.07131
585.68        30.85245
586.11        30.11955
586.54         28.1822
586.98        27.37474
587.41        27.43424
587.85        28.94341
588.28        29.47726
588.71        28.07268
589.15        27.13174
589.58        27.62201
590.01        27.85265
590.45        28.39433
590.88        28.41996
591.31        28.08614
591.75        27.97067
592.18         28.0218
592.61        28.59428
593.05        29.05569
593.48        30.38046
593.91        30.63578
594.35        28.23918
594.78        27.76581
595.21        27.78733
595.65        29.29793
596.08        30.72221
596.51        29.51009
596.94        28.75678
597.38        29.18306
597.81        30.74668
598.24        31.43213
598.68        31.06212
599.11        31.16898
599.54        32.86123
599.97        33.74371
600.41        31.97195
600.84        32.40278
601.27        33.46423
601.70        33.41881
602.14        33.81946
602.57        33.67279
603.00        34.22748
603.43        35.43757
603.87        36.81418
604.30        37.03358
604.73        36.27618
605.16        36.10572
605.60        36.92126
606.03        38.11732
606.46        39.28814
606.89        39.64613
607.32          38.951
607.76        38.99636
608.19        40.81408
608.62        40.50588
609.05        39.98432
609.48        40.59189
609.92        41.03209
610.35        41.06802
610.78        43.02776
611.21         43.7726
611.64        42.10967
612.07        42.83575
612.50          43.445
612.94         43.9539
613.37        43.66263
613.80        44.41655
614.23        44.69724
614.66        45.03082
615.09        45.57795
615.52         45.9484
615.96        46.18407
616.39        46.58078
616.82        46.06933
617.25        46.24199
617.68        46.74547
618.11        47.38577
618.54        47.93898
618.97        47.85291
619.40        47.37292
619.84        47.57061
620.27        48.39358
620.70        48.95465
621.13        49.12278
621.56        48.76453
621.99        48.12823
622.42        48.80205
622.85        50.41727
623.28        50.32381
623.71        49.75748
624.14        50.14008
624.57         49.6701
625.00        49.70348
625.43        49.64942
625.86        49.10097
626.29        49.00872
626.72         49.2288
627.15         48.9223
627.58        48.94547
628.01        48.90287
628.44        48.96344
628.87        48.79065
629.30        48.49897
629.73        48.39053
630.16        48.12807
630.59        47.78153
631.02        47.14936
631.45        46.34837
631.88        45.75134
632.31        45.39621
632.74        45.10225
633.17        44.79896
633.60        44.44309
634.03        44.00578
634.46        43.50465
634.89        42.97795
635.32        42.48762
635.75        42.05445
636.18        41.65991
636.61        41.28521
637.04        40.89907
637.47        40.48697
637.89        40.06111
638.32        39.62331
638.75        39.20253
639.18        38.81386
639.61         38.4614
640.04        38.12847
640.47        37.78301
640.90        37.42392
641.33        37.06148
641.76        36.73016
642.18        36.54019
642.61        36.50498
643.04        36.50521
643.47        36.46624
643.90        36.74188
644.33        36.55225
644.76        36.54012
645.18        36.50127
645.61        36.49024
646.04        36.51589
646.47        36.55809
646.90        36.67365
647.33        36.92971
647.75        37.34459
648.18        37.91563
648.61        38.49504
649.04        38.87826
649.47        39.02387
649.89        38.84327
650.32         38.6365
650.75        39.08962
651.18        40.18771
651.61        41.27289
652.03        42.04883
652.46        42.67209
652.89        43.34551
653.32        43.34449
653.74        42.94103
654.17        44.99983
654.60        45.80362
655.03        44.64457
655.46        45.79271
655.88        48.98117
656.31        53.17501
656.74        123.8891
657.16         80.5896
657.59        28.32432
658.02        21.27345
658.45        36.84668
658.87        48.13302
659.30        50.62052
659.73        50.40754
660.15         48.9792
660.58        51.09439
661.01        52.79517
661.44        51.53452
661.86        51.29951
662.29        51.50953
662.72        52.28491
663.14        53.45455
663.57        53.57807
664.00        52.86882
664.42        52.89217
664.85        53.72283
665.27         54.3788
665.70        54.65303
666.13        54.77686
666.55         54.7221
666.98        54.42699
667.41        54.07621
667.83        54.00991
668.26        54.30561
668.69        54.83517
669.11        55.38908
669.54        55.89192
669.96        55.74533
670.39        55.49102
670.82        55.16188
671.24        55.04097
671.67        55.24584
672.09        55.75016
672.52        56.29731
672.94          56.811
673.37        56.30505
673.80        56.16452
674.22        56.19842
674.65        56.25149
675.07        56.32812
675.50        56.42266
675.92        56.54829
676.35        56.75389
676.77        57.03547
677.20        57.31712
677.62         57.5646
678.05        57.73339
678.47        57.80064
678.90        57.78034
679.32        57.74562
679.75        57.70772
680.17        57.91647
680.60        58.18197
681.02        58.46825
681.45        58.52228
681.87         58.3544
682.30        58.16293
682.72        58.05628
683.15        58.10537
683.57        58.35655
684.00        58.70414
684.42        59.22947
684.85        59.51923
685.27        59.57228
685.70          59.466
686.12        59.27244
686.54        59.16701
686.97        59.19987
687.39        59.23798
687.82         59.3283
688.24        59.48204
688.66        59.72104
689.09        59.53554
689.51        59.82163
689.94        59.91285
690.36        60.07685
690.78        60.25988
691.21        60.44963
691.63        60.62415
692.06        60.76767
692.48        60.90318
692.90        61.04037
693.33        61.14806
693.75        61.22215
694.17         61.3377
694.60        61.52573
695.02         61.4513
695.44        61.64935
695.87        61.84394
696.29        62.17005
696.71        61.99406
697.14        61.51506
697.56        61.98588
697.98        63.15263
698.41        63.07832
698.83        62.40632
699.25        62.00023
699.68        62.12621
700.10        62.14496
700.52        62.07614
700.94        62.26566
701.37        62.64688
701.79        63.01799
702.21          63.297
702.64         63.5408
703.06        63.69653
703.48        63.67538
703.90        63.48927
704.33         63.1692
704.75        62.81876
705.17         62.6869
705.59        62.84022
706.01        63.11406
706.44        63.39698
706.86         64.0533
707.28        64.17162
707.70        64.43344
708.12         64.5871
708.55        64.65147
708.97        64.61802
709.39        64.49341
709.81        64.33697
710.23        64.24195
710.66        64.24113
711.08        64.35008
711.50        64.50205
711.92        64.55837
712.34        64.48681
712.76        64.38557
713.19        64.36983
713.61        64.25359
714.03        64.67899
714.45        65.08233
714.87        65.48515
715.29        65.61273
715.71        65.42393
716.13        65.00433
716.56        64.52628
716.98        64.31795
717.40        64.45626
717.82         64.8301
718.24        65.30664
718.66        65.69128
719.08        65.88675
719.50        65.87769
719.92        65.72874
720.34         65.6335
720.76        65.63945
721.19        65.55672
721.61        65.58829
722.03        65.63055
722.45        65.73911
722.87        65.90638
723.29        66.11111
723.71         66.3027
724.13        66.45847
724.55        66.58241
724.97        66.67283
725.39        66.73495
725.81         66.7711
726.23        66.77781
726.65        66.76331
727.07        66.74039
727.49        66.72137
727.91        66.72059
728.33        66.73709
728.75        66.76596
729.17        66.80611
729.59        66.84367
730.01        66.90092
730.43        67.06148
730.85        67.34035
731.27         67.6342
731.69        67.80522
732.10        68.18897
732.52         67.8347
732.94        67.56564
733.36        67.28619
733.78        67.23015
734.20        67.45068
734.62        68.11046
735.04        68.89703
735.46        69.18465
735.88        68.07084
736.30        68.38522
736.72        69.72208
737.13        70.23543
737.55        69.64509
737.97        69.47046
738.39        69.75778
738.81        68.88168
739.23        67.41513
739.65        68.33495
740.06        71.03754
740.48        71.54017
740.90        69.88447
741.32        68.73087
741.74        69.20577
742.16        69.35671
742.57        69.49909
742.99        70.33801
743.41        71.58027
743.83        72.30755
744.25        72.33897
744.67        71.92387
745.08        71.34475
745.50        71.06571
745.92        71.23333
746.34        71.68625
746.75         72.2426
747.17        72.58178
747.59        72.63306
748.01        72.55945
748.42         72.5186
748.84        72.61114
749.26        72.95805
749.68        73.71648
750.09         74.6715
750.51         75.2824
750.93         75.4211
751.35         75.1291
751.76        74.59638
752.18        74.37659
752.60        74.47798
753.01        74.38991
753.43        74.15591
753.85        74.26569
754.27        74.74892
754.68        75.39474
755.10        76.04334
755.52        76.55363
755.93        76.82397
756.35        76.87479
756.77        76.88837
757.18        76.70335
757.60        76.86919
758.02        77.37906
758.43         77.9874
758.85        77.31454
759.26        75.91793
759.68        75.44854
760.10          76.402
760.51        77.84972
760.93        77.62946
761.34        76.59263
761.76        75.76442
762.18         75.1194
762.59        75.25849
763.01         75.3821
763.42        76.03962
763.84        76.80537
764.26        77.62049
764.67        77.73083
765.09        77.23457
765.50        77.12144
765.92        77.25573
766.33        76.34087
766.75        74.78121
767.16         74.1296
767.58        74.63034
768.00        75.99642
768.41        77.88474
768.83        79.26584
769.24        79.58548
769.66        78.96529
770.07        77.84793
770.49        76.39667
770.90        75.11156
771.32        75.98914
771.73        78.34453
772.15        77.94426
772.56        75.22124
772.97        74.57652
773.39        75.98094
773.80        76.55812
774.22        76.05293
774.63        75.94136
775.05        76.19682
775.46        76.34001
775.88        76.29767
776.29        76.09204
776.70        75.80579
777.12        75.71233
777.53        75.86597
777.95        76.11909
778.36        76.35369
778.77        76.36905
779.19        76.16415
779.60        75.81235
780.02        75.45654
780.43        75.45029
780.84        75.94007
781.26        76.20116
781.67        76.23096
782.09        77.49726
782.50        79.45261
782.91         77.8602
783.33        75.69865
783.74        74.73129
784.15        75.79582
784.57        76.59799
784.98        76.78928
785.39        76.77918
785.81        76.52032
786.22        76.05665
786.63        75.66792
787.04        75.65585
787.46        76.07009
787.87        76.88245
788.28        77.82652
788.70        78.29575
789.11        78.14922
789.52        77.77993
789.93        77.35078
790.35        76.63351
790.76        75.92006
791.17        76.16621
791.58        77.16555
792.00        77.57227
792.41        77.21902
792.82        76.94669
793.23        76.97286
793.65        76.66405
794.06         76.3403
794.47        77.61186
794.88        79.64631
795.29        79.38973
795.71        77.04202
796.12        74.85925
796.53        73.55476
796.94        73.23002
797.35        73.95549
797.76        75.24055
798.18        76.48837
798.59        77.34864
799.00        77.48587
799.41        76.67917
799.82        75.37743
800.23        74.60261
800.64        74.56754
801.06        74.87687
801.47         75.4102
801.88        75.87164
802.29        76.12702
802.70        76.31345
803.11        76.40328
803.52        76.31252
803.93        76.06964
804.34        75.66409
804.75        75.26705
805.17         75.2732
805.58        75.79324
805.99        76.39808
806.40        76.87701
806.81        77.65713
807.22        78.24856
807.63        76.98624
808.04        74.53981
808.45        73.47277
808.86        74.03917
809.27        74.98676
809.68        75.87357
810.09        76.41325
810.50        76.37756
810.91        75.89056
811.32        75.21198
811.73        74.75231
812.14        74.63582
812.55        74.69821
812.96         74.9114
813.37        75.22109
813.78        75.56737
814.19        76.02342
814.60        76.37012
815.01        76.25433
815.42        75.64151
815.83        74.58658
816.24         73.5236
816.65        73.22281
817.05        73.90482
817.46         75.3245
817.87        76.88548
818.28         77.5163
818.69        76.93388
819.10        75.40691
819.51        73.65086
819.92        72.87724
820.33        73.39535
820.74        74.83974
821.14        76.50224
821.55        77.12743
821.96        76.44845
822.37        74.90955
822.78        73.16871
823.19        72.19391
823.60        72.24399
824.00        73.05632
824.41        74.19906
824.82        75.02596
825.23        75.24999
825.64        75.09635
826.04         74.7415
826.45        74.43215
826.86        74.25706
827.27         74.0908
827.68        73.94102
828.08         73.8858
828.49        73.87587
828.90        73.98376
829.31        74.12115
829.72        74.09155
830.12        73.88538
830.53        73.54225
830.94        73.25769
831.35        73.29905
831.75        73.75237
832.16        74.46771
832.57        75.30515
832.97        75.94824
833.38        76.20494
833.79        76.15366
834.20        75.91615
834.60        75.68142
835.01        75.53792
835.42        75.42665
835.82        75.27588
836.23        74.89685
836.64         74.3149
837.04        73.63869
837.45        73.04478
837.86        72.80173
838.26        72.96895
838.67        73.41798
839.08        74.00594
839.48        74.46267
839.89        74.64921
840.29        74.65076
840.70        74.48071
841.11        74.15084
841.51        73.71706
841.92        73.16821
842.33          72.669
842.73        72.50745
843.14        72.70243
843.54        73.20126
843.95        73.78394
844.35        74.13054
844.76        74.12646
845.17        73.88531
845.57         73.4966
845.98        73.11258
846.38        72.79787
846.79        72.47395
847.19        72.23678
847.60        72.17906
848.00        72.34697
848.41        72.69746
848.81        73.09411
849.22        73.24176
849.62        73.13425
850.03        72.84553
850.43        72.57451
850.84        72.61379
851.24        73.08736
851.65        73.72501
852.05        74.51241
852.46        75.25238
852.86        75.85571
853.27        76.41151
853.67        76.54279
854.07          75.786
854.48        74.22556
854.88        72.03955
855.29         69.9813
855.69        69.14285
856.10        69.72087
856.50         71.5862
856.90        74.05947
857.31        75.54399
857.71         75.5309
858.12        74.40964
858.52        72.86438
858.92        71.79166
859.33        71.40257
859.73        71.44204
860.13        71.82162
860.54        72.36716
860.94        73.03267
861.34        73.85525
861.75        74.67166
862.15        75.29381
862.55        75.63199
862.96        75.69706
863.36        75.59789
863.76        75.52372
864.17        75.54688
864.57        75.65923
864.97        75.87652
865.38        76.21389
865.78        76.69263
866.18        77.23067
866.58        77.74246
866.99         78.0615
867.39        78.18752
867.79        78.18488
868.19        77.95034
868.60        77.31229
869.00        76.31146
869.40        75.03487
869.80        74.05343
870.21        74.21619
870.61        75.74918
871.01        78.40047
871.41        81.32684
871.81        83.07085
872.22        83.24284
872.62        82.22511
873.02        80.82468
873.42        80.53568
873.82        81.47636
874.22         82.8193
874.63        84.17208
875.03         84.7144
875.43         84.0512
875.83        83.53556
876.23        81.56062
876.63        80.42731
877.03        79.97695
877.44        80.27745
877.84        105.5048
878.24         87.0043
878.64        88.38115
879.04        89.79929
879.44        86.31272
879.84        84.66693
880.24        88.75061
880.64        90.49089
881.04        90.72145
881.44        90.50576
881.84        89.61779
882.24        88.19089
882.65        86.95451
883.05        86.45255
883.45         86.7713
883.85        88.05486
884.25        89.75488
884.65        90.60818
885.05        90.26906
885.45        89.13493
885.85        87.92088
886.25        87.63325
886.65        88.45229
887.05         90.0305
887.45        91.81208
887.85        92.80569
888.25        92.68738
888.65        91.80798
889.04        90.58545
889.44        89.71536
889.84         89.3924
890.24        89.36246
890.64        89.52584
891.04        89.75224
891.44         89.9548
891.84        90.22794
892.24        90.39828
892.64        90.11906
893.04        89.41032
893.44        88.46027
893.83        87.61615
894.23        87.39398
894.63        87.86964
895.03        88.83041
895.43         90.1602
895.83        91.59828
896.23        92.93411
896.63        94.21433
897.02        95.04438
897.42        94.82549
897.82        93.55688
898.22        91.47123
898.62        89.35184
899.01        88.35883
899.41        88.72744
899.81         90.0683
900.21        91.75254
900.61        92.73169
901.00         92.6973
901.40        91.99489
901.80        90.96914
902.20         90.1527
902.59        89.72966
902.99        89.51112
903.39        89.42297
903.79        89.36176
904.18        89.28688
904.58        89.32273
904.98        89.46617
905.38        89.68285
905.77        89.93543
906.17        90.16831
906.57        90.39283
906.96        90.70062
907.36        91.01746
907.76         91.3184
908.15        91.45867
908.55        91.09552
908.95        90.24315
909.34        89.00651
909.74        87.73458
910.14        86.78239
910.53        86.29508
910.93        86.24388
911.33        86.56898
911.72         87.1564
912.12        87.81635
912.52        88.47135
912.91        89.10997
913.31        89.74555
913.70        90.44138
914.10        91.21214
914.49        91.77256
914.89        91.43531
915.29        90.11411
915.68        88.09588
916.08        86.37102
916.47        85.84483
916.87        86.56644
917.26        88.25065
917.66        90.06635
918.05        90.65656
918.45        89.68874
918.84        87.66113
919.24        85.46245
919.64        84.38523
920.03        84.77717
920.42        86.22881
920.82        88.17801
921.21        89.76058
921.61        90.45559
922.00        90.55491
922.40        90.15697
922.79        89.42097
923.19        88.53944
923.58        87.32304
923.98        85.84212
924.37        84.91566
924.77        85.02625
925.16        83.01151
925.55        84.63168
925.95         85.6058
926.34        87.54485
926.74        89.94575
927.13        92.23652
927.52         93.1994
927.92        92.66724
928.31        91.03332
928.70        88.82877
929.10        86.98301
929.49        85.78686
929.89        85.06319
930.28        84.93487
930.67        85.59722
931.07        86.86448
931.46        88.72502
931.85        90.52105
932.24        91.27183
932.64         90.7931
933.03        89.19991
933.42        86.87534
933.82        84.82867
934.21        83.45154
934.60        82.64473
934.99        82.14067
935.39        81.73757
935.78        81.41296
936.17        80.70338
936.56        79.33752
936.96         81.1339
937.35         80.0442
937.74        80.72263
938.13        81.33517
938.53        82.20136
938.92        83.39674
939.31        84.98183
939.70        86.64135
940.09         87.3199
940.49        86.68324
940.88        85.17559
941.27        83.54058
941.66        82.65713
942.05        82.66024
942.44        83.27193
942.84        84.25166
943.23        85.26015
943.62        86.03236
944.01        86.63905
944.40        87.00436
944.79        87.01697
945.18        86.64321
945.57        85.81505
945.97        84.57994
946.36        83.25047
946.75        82.19347
947.14        81.51433
947.53        81.16716
947.92        80.98173
948.31        80.87759
948.70         80.8819
949.09        81.02311
949.48        81.33349
949.87        81.77235
950.26        82.24841
950.65        82.63632
951.04        82.80158
951.43        82.71493
951.82        82.39893
952.21        81.91061
952.60        81.38977
952.99        80.88555
953.38        80.34809
953.77        79.82965
954.16        79.37157
954.55        78.99281
954.94        78.79382
955.33        78.58808
955.72        78.03774
956.11        77.12957
956.50         75.9347
956.89        75.04664
957.28        75.52907
957.66        77.63612
958.05        80.75494
958.44        83.91193
958.83          85.675
959.22         85.7009
959.61        84.35548
960.00        82.28331
960.39        80.56617
960.78        79.59369
961.16        79.14854
961.55        78.91113
961.94         78.3377
962.33        77.33332
962.72        76.18933
963.11        75.29362
963.49        75.10689
963.88        75.66441
964.27        76.82069
964.66        78.12761
965.04        78.67634
965.43        78.07919
965.82         76.7318
966.21        75.26008
966.60        74.45271
966.98        74.47549
967.37        75.04539
967.76        75.91721
968.15        76.58934
968.53        76.82833
968.92        76.72335
969.31        76.41232
969.69        76.04179
970.08        75.66924
970.47        75.26715
970.86        74.71405
971.24        73.83572
971.63        72.64495
972.02        71.23369
972.40        70.02306
972.79        69.71844
973.17         70.6031
973.56        72.42967
973.95        74.64722
974.33        76.11741
974.72        76.32964
975.11        75.53156
975.49        74.35908
975.88        73.78552
976.26        73.96249
976.65         74.6687
977.04        75.26469
977.42        74.34299
977.81        71.63722
978.19        67.92449
978.58        64.83893
978.96         63.8776
979.35        65.21955
979.74        68.55908
980.12        73.24483
980.51        76.63751
980.89        77.81678
981.28        77.30766
981.66        76.00508
982.05        75.12595
982.43        74.94764
982.82        75.00848
983.20        75.40403
983.59        76.38431
983.97        78.00771
984.35        80.36101
984.74        82.68261
985.12        83.45782
985.51         81.8228
985.89        78.07626
986.28        73.39017
986.66        69.65628
987.04        67.78172
987.43        67.38602
987.81        67.65213
988.20        67.46413
988.58        66.43238
988.96        64.46066
989.35        62.11457
989.73        61.88256
990.12        65.12656
990.50        70.49579
990.88        74.77364
991.27        75.75518
991.65        73.95586
992.03        69.99974
992.42        65.69844
992.80         64.1647
993.18        66.18768
993.56        69.96709
993.95        73.71318
994.33        75.89639
994.71        76.21058
995.10        75.61443
995.48        74.25777
995.86        72.12804
996.24        69.34015
996.63        65.48782
997.01        61.73042
997.39        61.50121
997.77        66.00343
998.15        74.33125
998.54        82.53643
998.92        85.35526
999.30        81.36762
999.68        71.73129
1000.06        59.23529
1000.45        50.74974
1000.83         49.0176
1001.21        51.84913
1001.59        56.62437
1001.97        60.45665
1002.35        62.69484
1002.73        64.52552
1003.12        65.49633
1003.50        64.20593
1003.88        60.58912
1004.26         55.5535
1004.64        51.08916
1005.02        48.83153
1005.40        48.80082
1005.78        50.93912
1006.16        56.20959
1006.54        63.44608
1006.92        68.66842
1007.30         71.0428
1007.69        71.44988
1008.07        71.19987
1008.45        70.41455
1008.83        67.99161
1009.21        60.82496
1009.59        39.56844
1009.97       -12.25195
1010.35       -73.50206
1010.73       -53.48693
1011.11       -12.58568
1011.49        13.82297
1011.86        32.66325
1012.24        43.26308
1012.62        48.16461
1013.00        49.83157
1013.38        48.91992
1013.76        47.60462
1014.14        52.50716
1014.52        68.86575
1014.90        98.76991
1015.28        133.3339
1015.66         148.051
1016.04        129.0392
1016.41        81.53029
1016.79        33.67263
1017.17         14.2636
1017.55        18.24212
1017.93        30.32199
1018.31        41.79351
1018.69        47.92682
1019.06        49.20499
1019.44        46.40067
1019.82        40.71212
1020.20        38.04914
1020.58        46.85231
1020.95        79.36375
1021.33        150.8013
1021.71       -431.4999
1022.09        78.07291
1022.46        118.9263
1022.84        138.9302
1023.22        155.8654
1023.60        186.4439
1023.97        462.5269
1024.35       -1.275196
1024.73        51.36967
