SpectraSmart Spectrum 2.9.0.0
--------- Device Information -----------
Spectrum Name :  反射率_0
Saving Time :  2024/04/26 00:48:45
Spectro-Module Model Name : SE2030-DUVN
Spectro-Module Serial Number : OS361AC55029948
Wavelength Start : 200
Wavelength End : 1025
Wavelength Unit : Wavelength(nm)
Spectrum Unit : Reflectance(%)
-----------Spectrum Setting ------------
Integration Time : 20ms
Average : 10
Boxcar : 0
Background removal :  enabled
linearity correction :  enabled
SC :  disabled
Intensity correction :  disabled
DWT denoise :  enabled
savitzky-golay :  disabled
FFT :  disabled
Running average :  disabled
Kalman :  disabled
High pass :  disabled
---------------BEGIN--------------------
Wavelength(nm)             Reflectance(%)
200.29               0
200.75        91.37435
201.21        85.73175
201.67        80.28962
202.13        77.71387
202.58        78.14563
203.04        81.23543
203.50         85.4373
203.96         87.8964
204.42        87.91704
204.88        86.48895
205.34         85.0814
205.80        85.41315
206.26        88.24571
206.72        94.91021
207.18        107.8306
207.64        118.5214
208.10        109.6883
208.55        93.35725
209.01        82.66771
209.47        77.39758
209.93        74.71424
210.39        73.34286
210.85        72.13515
211.31        69.51094
211.77        65.48582
212.23        60.82527
212.69          57.512
213.14        58.67816
213.60        64.42814
214.06        73.85651
214.52        84.13612
214.98         91.0092
215.44        93.20392
215.90        91.75636
216.36         88.5815
216.81         86.3019
217.27        85.94859
217.73        86.82565
218.19         87.3577
218.65        85.37413
219.11        80.02489
219.57         70.4549
220.02        58.53601
220.48        53.28481
220.94        59.06656
221.40        72.90075
221.86        84.78635
222.32        84.71484
222.77         74.5199
223.23        60.47959
223.69        48.74456
224.15        45.55512
224.61        50.25804
225.06        59.62146
225.52         69.7103
225.98        75.44042
226.44        75.73527
226.90        72.64176
227.36        68.47236
227.81        66.32598
228.27        67.18814
228.73        69.61134
229.19        72.44726
229.65         74.1192
230.10        74.25847
230.56         73.7936
231.02        73.14793
231.48        72.72694
231.93        72.59456
232.39        72.57683
232.85        72.71501
233.31        73.22229
233.77        74.06438
234.22         75.2237
234.68        76.26419
235.14        76.33631
235.60        75.25027
236.05        73.31325
236.51        71.14468
236.97         69.5342
237.43         68.6711
237.88        68.51221
238.34        68.82643
238.80        69.33479
239.26        69.86295
239.71        70.73895
240.17        71.78671
240.63        73.28151
241.08        75.27301
241.54        77.27784
242.00        79.44019
242.46        82.40898
242.91        87.49138
243.37        97.82403
243.83        124.5599
244.28        191.1986
244.74        229.5026
245.20        162.3912
245.66         123.236
246.11        113.4561
246.57        118.7907
247.03        145.9478
247.48        238.9057
247.94        230.0504
248.40        139.4427
248.85        107.1056
249.31        95.73177
249.77        92.11733
250.22        92.01034
250.68        93.98824
251.14        97.27493
251.59        97.97618
252.05        93.60042
252.51        87.11174
252.96        81.34075
253.42        78.85659
253.88        79.06411
254.33        80.62212
254.79        84.04637
255.25        89.35445
255.70        95.20511
256.16        101.0122
256.62        104.5815
257.07        103.7155
257.53        99.60165
257.99        93.32219
258.44        86.93238
258.90        83.82607
259.35        83.09284
259.81        83.51177
260.27        83.26969
260.72        80.63336
261.18        76.34212
261.63        71.09396
262.09        66.22249
262.55         62.4828
263.00        59.91428
263.46        58.31294
263.91        57.10773
264.37        56.08006
264.83         54.9683
265.28        53.70383
265.74        52.54874
266.19        51.56103
266.65        50.91244
267.11        50.48626
267.56          49.967
268.02        49.00764
268.47        47.51031
268.93        45.61393
269.38        43.67311
269.84        42.53886
270.30        42.40522
270.75        43.01821
271.21         43.8154
271.66        43.93727
272.12        43.18394
272.57        41.82045
273.03        40.30293
273.48        39.22627
273.94        38.78026
274.39        38.71167
274.85        38.77277
275.31        38.57747
275.76        38.02136
276.22        37.28851
276.67        36.51393
277.13        35.99688
277.58        35.72419
278.04        35.61853
278.49        35.48403
278.95        35.15014
279.40        34.54332
279.86        33.80993
280.31        33.01002
280.77        32.36384
281.22        31.87545
281.68        31.52016
282.13        31.23715
282.59        30.99964
283.04        30.76528
283.50        30.57929
283.95        30.38053
284.41        30.10941
284.86        29.74543
285.32        29.32016
285.77        28.91015
286.22        28.70482
286.68         28.7103
287.13        28.84134
287.59        28.94898
288.04        28.78966
288.50         28.3551
288.95        27.71126
289.41        27.03497
289.86        26.47437
290.32        26.13224
290.77        25.93713
291.22        25.87527
291.68        25.88569
292.13        25.94512
292.59        26.07467
293.04        26.27566
293.50        26.55345
293.95        26.88609
294.40        27.23505
294.86        27.56364
295.31        27.82829
295.77        28.02747
296.22        28.18446
296.68        28.31036
297.13        28.39557
297.58        28.47165
298.04        28.56331
298.49        28.74154
298.95        29.15073
299.40        29.79142
299.85        30.60806
300.31        31.46562
300.76        32.15979
301.21         32.6171
301.67        32.91504
302.12        33.08594
302.58        33.24666
303.03        33.41241
303.48        33.56364
303.94        33.75724
304.39        34.04202
304.84         34.4273
305.30        34.89856
305.75        35.33725
306.20        35.57143
306.66        35.59459
307.11        35.44521
307.57        35.27191
308.02        35.21653
308.47        35.34475
308.93        35.60719
309.38        35.92844
309.83        36.22421
310.29        36.45095
310.74        36.61826
311.19        36.73819
311.65        36.82838
312.10        36.88887
312.55        36.91163
313.00        36.86158
313.46        36.69667
313.91        36.41457
314.36        36.06067
314.82        35.73209
315.27        35.55206
315.72        35.55363
316.18        35.69284
316.63        35.89505
317.08        36.01126
317.53        35.99196
317.99        35.86658
318.44        35.69172
318.89        35.56294
319.35        35.49466
319.80        35.45961
320.25        35.39148
320.70        35.19177
321.16         34.8494
321.61        34.40997
322.06        33.95215
322.51        33.58854
322.97        33.33445
323.42        33.16537
323.87        33.02506
324.32        32.82242
324.78         32.5334
325.23        32.20131
325.68        31.85309
326.13        31.53631
326.59        31.26256
327.04         31.0323
327.49         30.8505
327.94        30.73282
328.39        30.67749
328.85        30.67124
329.30        30.70785
329.75        30.72608
330.20        30.70964
330.66        30.65328
331.11        30.59723
331.56        30.56069
332.01        30.54686
332.46        30.53173
332.92        30.50074
333.37        30.47285
333.82        30.43272
334.27        30.39694
334.72        30.32425
335.17        30.14401
335.63        29.85509
336.08        29.49146
336.53        29.16629
336.98        29.06632
337.43         29.2229
337.88        29.57917
338.34        29.96746
338.79        30.16078
339.24        30.06961
339.69        29.75558
340.14        29.35851
340.59        29.12899
341.05        29.13068
341.50        29.28925
341.95        29.48598
342.40        29.54588
342.85        29.43091
343.30        29.21464
343.75        28.96104
344.20        28.77893
344.66        28.70444
345.11         28.6616
345.56        28.65646
346.01        28.69813
346.46        28.76777
346.91        28.88156
347.36        28.92027
347.81         28.6908
348.26        28.19179
348.72        27.52018
349.17        26.87439
349.62        26.66013
350.07         26.9577
350.52        27.62068
350.97        28.41192
351.42        28.96618
351.87         29.1759
352.32        29.14645
352.77        28.95037
353.22         28.7105
353.67        28.48405
354.13        28.23366
354.58        27.99128
355.03        27.85192
355.48        27.82901
355.93         27.9216
356.38         28.0395
356.83        28.02191
357.28        27.83389
357.73        27.51401
358.18        27.16735
358.63        26.96499
359.08        26.94207
359.53         27.0444
359.98        27.15763
360.43        27.10474
360.88        26.85096
361.33        26.45816
361.78        26.04309
362.23         25.7931
362.68        25.74929
363.13        25.83936
363.58        25.96357
364.03        25.96795
364.48        25.81278
364.93        25.56057
365.38        25.25414
365.83        24.95837
366.28        24.70634
366.73        24.47277
367.18        24.29552
367.63         24.2416
368.08        24.30662
368.53        24.46383
368.98        24.62243
369.43         24.6349
369.88         24.4736
370.33        24.19053
370.78        23.85253
371.23        23.57801
371.68        23.41276
372.13        23.31811
372.58        23.30888
373.03         23.4055
373.48        23.58681
373.93          23.841
374.38        24.06899
374.83        24.11643
375.28        23.95757
375.72        23.62481
376.17         23.2457
376.62        22.99588
377.07        22.92694
377.52        22.98365
377.97        23.09924
378.42        23.16244
378.87         23.1354
379.32        23.05777
379.77        22.94501
380.22        22.81316
380.67        22.67286
381.11        22.51694
381.56         22.3542
382.01        22.21422
382.46         22.1042
382.91        22.01689
383.36        21.94793
383.81        21.88431
384.26        21.82118
384.71        21.76838
385.15        21.69831
385.60        21.58579
386.05        21.41934
386.50        21.19595
386.95         20.9752
387.40        20.86362
387.85         20.8806
388.29          20.986
388.74        21.09089
389.19        21.03884
389.64        20.81277
390.09        20.45133
390.54         20.0823
390.98        19.92315
391.43        20.02839
391.88        20.31211
392.33        20.61236
392.78        20.69052
393.23        20.51467
393.67        20.17001
394.12        19.82041
394.57        19.62344
395.02        19.61589
395.47        19.73361
395.91        19.92065
396.36        20.05224
396.81        20.08659
397.26        20.04899
397.71        19.96086
398.15        19.83246
398.60        19.70654
399.05        19.58621
399.50        19.46083
399.95        19.26109
400.39        19.07286
400.84        18.84588
401.29        18.66709
401.74        18.65244
402.18        18.83063
402.63        19.13759
403.08        19.46958
403.53        19.65838
403.97        19.65946
404.42        19.51808
404.87        19.29647
405.32        19.10934
405.76        18.99665
406.21        18.93089
406.66        18.89704
407.11        18.87881
407.55        18.87034
408.00        18.87634
408.45        18.87698
408.90        18.82227
409.34        18.70459
409.79         18.5409
410.24          18.381
410.68        18.29325
411.13        18.29338
411.58        18.36443
412.03        18.46169
412.47        18.50954
412.92        18.47339
413.37        18.37652
413.81        18.26983
414.26        18.24884
414.71         18.3206
415.15        18.45619
415.60        18.57468
416.05        18.56694
416.49        18.41087
416.94         18.1567
417.39        17.87376
417.83        17.68011
418.28        17.61926
418.73        17.64309
419.17        17.72553
419.62        17.82086
420.07        17.90784
420.51        18.00457
420.96        18.06549
421.41        18.01149
421.85        17.83413
422.30        17.58117
422.74          17.333
423.19        17.24573
423.64         17.3271
424.08        17.54186
424.53        17.78998
424.98        17.92449
425.42         17.9047
425.87        17.76466
426.31        17.56368
426.76        17.44505
427.21        17.41572
427.65         17.3215
428.10        17.22951
428.54         17.3534
428.99         17.6943
429.44        18.15549
429.88        18.54702
430.33         18.6309
430.77        18.36913
431.22        17.83774
431.66        17.26353
432.11        17.06339
432.56        17.27261
433.00        17.67644
433.45        18.06653
433.89        18.31352
434.34        18.29843
434.78        17.91064
435.23        17.42706
435.67        17.40731
436.12        17.79214
436.57        17.96005
437.01        17.83708
437.46        17.74983
437.90         17.7286
438.35         17.6796
438.79        17.59591
439.24        17.51671
439.68        17.45905
440.13        17.34664
440.57         17.2324
441.02         17.4313
441.46        17.81321
441.91        17.74001
442.35        17.29416
442.80        17.12412
443.24        17.20308
443.69        17.27479
444.13        17.27129
444.58        17.08483
445.02        16.78827
445.47        16.75472
445.91        16.92704
446.36        16.90782
446.80        16.67806
447.24         16.4715
447.69        16.34723
448.13        16.28604
448.58        16.30647
449.02        16.40684
449.47        16.53353
449.91        16.59714
450.36        16.57713
450.80        16.49059
451.25        16.38947
451.69        16.34507
452.13        16.37685
452.58        16.44976
453.02        16.52562
453.47        16.54444
453.91        16.49544
454.36        16.40634
454.80        16.29784
455.24        16.20115
455.69        16.13975
456.13         16.0955
456.58        16.09449
457.02        16.15102
457.46        16.26789
457.91        16.43022
458.35        16.59224
458.79        16.67543
459.24        16.67232
459.68        16.58933
460.13        16.48768
460.57        16.42339
461.01        16.42992
461.46        16.48536
461.90        16.55775
462.34         16.5874
462.79        16.55669
463.23        16.47731
463.68        16.40277
464.12        16.42417
464.56        16.55726
465.01         16.7791
465.45        16.97039
465.89        17.01907
466.34        16.92109
466.78        16.62315
467.22        16.27926
467.67        16.30144
468.11        16.64733
468.55        16.81306
468.99        16.74254
469.44        16.68483
469.88        16.69522
470.32         16.8356
470.77        17.04212
471.21        17.08575
471.65        16.94465
472.10        16.79186
472.54        16.69229
472.98        16.69553
473.42         16.8202
473.87        17.05012
474.31        17.30404
474.75        17.44895
475.20         17.4611
475.64        17.37624
476.08        17.25908
476.52        17.20944
476.97        17.25581
477.41        17.36764
477.85        17.50842
478.29        17.65333
478.74        17.78797
479.18        17.83361
479.62        17.80229
480.06        18.01458
480.50        18.10219
480.95        18.12637
481.39         17.9877
481.83         17.9038
482.27        17.89167
482.72        17.79023
483.16        17.65342
483.60        17.78444
484.04        18.17638
484.48        18.36748
484.93        18.57436
485.37        18.91973
485.81        19.43034
486.25        19.64683
486.69        26.48428
487.14        21.23725
487.58        13.55411
488.02        16.56057
488.46        18.98802
488.90        18.81787
489.34        18.87279
489.79        18.69732
490.23         19.8197
490.67        20.44403
491.11        20.31443
491.55        20.19346
491.99        20.05512
492.43        19.90832
492.88        19.83625
493.32        19.95454
493.76        20.10623
494.20        20.37003
494.64        20.67204
495.08        20.99047
495.52         21.3127
495.96        21.64102
496.41        21.90928
496.85        22.10525
497.29        22.21602
497.73        21.95553
498.17         21.6107
498.61        21.84199
499.05        22.63528
499.49         22.7958
499.93        22.85773
500.37        22.92987
500.82        22.96653
501.26        23.18899
501.70        23.48608
502.14        23.66988
502.58        23.69963
503.02        23.73592
503.46        23.78234
503.90        23.72397
504.34        23.61644
504.78        23.60914
505.22        23.72381
505.66        23.92219
506.10        24.13664
506.54        24.25084
506.98        24.23779
507.42        24.13997
507.86        24.03352
508.30        24.03519
508.74        24.16979
509.18        24.39224
509.62        24.64604
510.06        24.83872
510.50        24.94195
510.94        24.99348
511.38        25.00648
511.82        24.99971
512.26        24.98802
512.70        24.95697
513.14        24.94647
513.58        25.02672
514.02        25.19316
514.46        25.41613
514.90        25.61725
515.34        25.63702
515.78        25.42397
516.22        25.18011
516.66        24.99384
517.10        24.58223
517.54        23.98021
517.98        24.70193
518.42        24.51048
518.86        24.86765
519.30        25.08123
519.74        25.36006
520.18        25.62507
520.62        25.72022
521.06        25.64744
521.50        25.42934
521.93        25.15511
522.37        24.98588
522.81        24.96445
523.25        25.04535
523.69        25.17626
524.13        25.27319
524.57        25.30664
525.01        25.30307
525.45        25.26829
525.89        25.20952
526.32        25.13132
526.76        25.02835
527.20        24.90954
527.64        24.80185
528.08        24.71733
528.52        24.63112
528.96        24.53181
529.40         24.4663
529.83        24.44573
530.27         24.2098
530.71        24.23574
531.15        24.13444
531.59        24.05208
532.03        23.97515
532.46        23.93191
532.90        23.96635
533.34        24.06994
533.78        24.22069
534.22        24.36438
534.66        24.42278
535.09        24.37519
535.53        24.25797
535.97        24.10001
536.41        23.95479
536.85        23.84767
537.28        23.76902
537.72        23.73079
538.16        23.75213
538.60        23.83086
539.04        23.94154
539.47        24.05877
539.91        24.20501
540.35        24.34423
540.79        24.38407
541.22        24.34935
541.66         24.3782
542.10        24.48267
542.54        24.58707
542.97        24.69051
543.41        24.83376
543.85        25.01145
544.29         25.2267
544.72        25.43655
545.16        25.58224
545.60        25.65394
546.04         25.6635
546.47        25.68988
546.91        25.87102
547.35        26.21575
547.79        26.68226
548.22        27.14335
548.66        27.37881
549.10         27.3626
549.53        27.20635
549.97        27.04046
550.41         26.9988
550.84         27.1312
551.28        27.40948
551.72        27.77833
552.15        28.12947
552.59        28.41457
553.03        28.65787
553.46        28.85191
553.90        29.01269
554.34        29.15218
554.77        29.23129
555.21        29.25811
555.65        29.33976
556.08        29.50065
556.52        29.35827
556.96        29.59991
557.39        29.66764
557.83        29.77443
558.27        29.89722
558.70        30.04266
559.14        30.20301
559.57        30.35691
560.01        30.51185
560.45        30.64207
560.88        30.69693
561.32        30.69345
561.75        30.66561
562.19        30.64967
562.63        30.58687
563.06        30.52031
563.50        30.61459
563.93        30.84032
564.37        31.02256
564.80        31.13439
565.24        31.28564
565.68        31.44743
566.11        31.54178
566.55        31.59109
566.98        31.59319
567.42        31.61275
567.85        31.79237
568.29        32.14437
568.72        32.43381
569.16        32.68654
569.60         33.1412
570.03        33.63604
570.47        33.76236
570.90        33.65886
571.34         33.2962
571.77        33.72209
572.21        33.93072
572.64        33.99318
573.08        33.49543
573.51        32.45604
573.95        33.89793
574.38        36.17759
574.82        35.11539
575.25        35.14824
575.69         33.9244
576.12        33.33638
576.56        33.12293
576.99        33.70921
577.42        35.49491
577.86        35.38154
578.29        35.42131
578.73        37.34048
579.16        34.24452
579.60        31.00117
580.03        32.25257
580.47        34.54322
580.90        34.94995
581.33        34.55952
581.77        33.95526
582.20        37.52792
582.64        37.09423
583.07        31.74839
583.51        30.87116
583.94        29.89404
584.37        30.96384
584.81         32.5169
585.24        34.29248
585.68        35.14482
586.11         34.2865
586.54        31.86069
586.98        30.79628
587.41        31.19193
587.85        32.82262
588.28        33.82856
588.71        31.93744
589.15        31.13865
589.58        31.49776
590.01        31.79291
590.45        32.17146
590.88        32.43029
591.31        31.98275
591.75        31.70396
592.18        31.73985
592.61        32.47063
593.05        33.16554
593.48         34.6076
593.91        34.85036
594.35        32.37618
594.78        31.80543
595.21        31.64985
595.65        33.09928
596.08        34.40916
596.51        33.18169
596.94         32.3667
597.38        32.90358
597.81        34.54715
598.24        35.37909
598.68        35.23396
599.11        34.88929
599.54        36.68739
599.97        37.69062
600.41        35.57459
600.84        35.96138
601.27        36.92498
601.70        36.80366
602.14        37.06494
602.57        36.84095
603.00        37.42355
603.43        38.79013
603.87        40.36263
604.30        40.51731
604.73        39.48561
605.16        39.24551
605.60        40.12407
606.03        41.26765
606.46        42.28515
606.89        42.45591
607.32        41.86709
607.76        41.94432
608.19        43.74059
608.62        43.33681
609.05        42.77586
609.48        43.41014
609.92        43.80783
610.35        44.00533
610.78         45.9421
611.21        46.57766
611.64        44.95952
612.07        45.62916
612.50        46.04578
612.94        46.54114
613.37        46.44823
613.80        46.73021
614.23        47.39362
614.66        47.55576
615.09        47.91533
615.52        48.18027
615.96        48.41427
616.39        48.82402
616.82        48.36759
617.25         48.3319
617.68        49.11761
618.11        49.71735
618.54        50.14608
618.97        49.95647
619.40        49.43967
619.84        49.66663
620.27        50.58017
620.70         51.2664
621.13        51.55759
621.56        51.30304
621.99        50.72988
622.42        51.37072
622.85        52.86816
623.28         52.6192
623.71        52.15678
624.14        52.22411
624.57        52.04649
625.00        51.88095
625.43        51.92139
625.86        51.40978
626.29        51.49568
626.72        51.52747
627.15        51.26849
627.58        51.24361
628.01        51.24525
628.44        51.29824
628.87        51.03192
629.30         50.9492
629.73        50.90342
630.16        50.67963
630.59        50.26955
631.02        49.79551
631.45        49.31022
631.88        48.84273
632.31        48.41359
632.74        48.01422
633.17        47.64103
633.60        47.28699
634.03        46.94656
634.46        46.62605
634.89        46.29992
635.32        45.92464
635.75         45.4953
636.18        45.02465
636.61         44.5507
637.04        44.13399
637.47        43.78318
637.89        43.47923
638.32        43.18042
638.75        42.84784
639.18        42.47327
639.61        42.08236
640.04         41.6833
640.47        41.28112
640.90         40.8872
641.33        40.50024
641.76        40.14224
642.18        39.90959
642.61        39.81392
643.04        39.73973
643.47        39.62629
643.90        39.88656
644.33        39.67921
644.76        39.68874
645.18        39.67892
645.61        39.68461
646.04        39.70452
646.47         39.7228
646.90        39.79662
647.33        39.98796
647.75        40.32065
648.18        40.80951
648.61        41.31083
649.04        41.60633
649.47        41.66857
649.89        41.44133
650.32        41.22266
650.75        41.66459
651.18        42.71134
651.61        43.70655
652.03         44.3744
652.46        44.71477
652.89        44.99231
653.32        45.03495
653.74        45.10385
654.17        46.64536
654.60        47.48654
655.03        46.46134
655.46        47.20481
655.88         51.1575
656.31        55.52992
656.74        130.7077
657.16        84.87709
657.59         29.6977
658.02         22.0342
658.45        38.45623
658.87        49.10528
659.30        52.12725
659.73        51.46399
660.15        50.20107
660.58        52.47322
661.01        54.24173
661.44        52.85823
661.86        52.57936
662.29        52.83616
662.72        53.68442
663.14        54.92511
663.57         55.0071
664.00        54.16956
664.42        54.13925
664.85        54.99708
665.27        55.66005
665.70         55.9109
666.13         56.0195
666.55         55.9548
666.98        55.63893
667.41        55.26223
667.83         55.1784
668.26        55.46689
668.69         55.9969
669.11        56.54641
669.54        57.03385
669.96        56.86635
670.39        56.56123
670.82         56.1573
671.24         56.1085
671.67        56.55832
672.09        56.86607
672.52        57.66658
672.94         58.2992
673.37        57.96094
673.80        57.81253
674.22        57.67475
674.65        57.60341
675.07        57.61676
675.50        57.59826
675.92        57.58186
676.35        57.70897
676.77        57.98401
677.20        58.30497
677.62        58.62419
678.05        58.86426
678.47        58.98686
678.90        59.03131
679.32        59.04905
679.75        58.98892
680.17        59.10217
680.60        59.29381
681.02        59.38793
681.45         59.4281
681.87        59.35437
682.30        59.20048
682.72        59.06734
683.15        59.14459
683.57        59.47732
684.00        59.88542
684.42        60.43421
684.85        60.74348
685.27         60.7978
685.70        60.66932
686.12        60.45654
686.54        60.36047
686.97        60.42148
687.39        60.60167
687.82         60.8023
688.24        60.90496
688.66        60.86326
689.09        60.72995
689.51        60.61491
689.94        60.66616
690.36        60.92113
690.78        61.31655
691.21        61.74197
691.63        62.02671
692.06         62.1249
692.48         62.0965
692.90        62.01662
693.33        61.99086
693.75        62.05614
694.17        62.18486
694.60         62.3525
695.02        62.49755
695.44        62.56839
695.87         62.7565
696.29        63.05337
696.71        62.90493
697.14        62.50293
697.56        63.02628
697.98        64.20398
698.41        64.15813
698.83        63.43711
699.25        62.98159
699.68        63.04349
700.10        63.01504
700.52        62.92543
700.94        63.11279
701.37        63.51707
701.79        63.94188
702.21        64.29871
702.64        64.64242
703.06        64.88635
703.48        64.88468
703.90        64.64494
704.33        64.22285
704.75        63.76217
705.17        63.57794
705.59        63.74745
706.01        64.07645
706.44        64.44622
706.86        65.17451
707.28        65.30698
707.70        65.67863
708.12        65.97511
708.55        65.82422
708.97        65.32699
709.39        65.28054
709.81        65.39878
710.23        65.45811
710.66        65.36156
711.08        65.47684
711.50        65.72238
711.92        65.81356
712.34        65.72369
712.76        65.51942
713.19         65.3236
713.61        65.36107
714.03        65.66013
714.45        66.14124
714.87        66.62003
715.29        66.81149
715.71          66.657
716.13        66.25142
716.56         65.7753
716.98         65.5498
717.40        65.65296
717.82        65.98693
718.24        66.41469
718.66        66.70212
719.08        66.77518
719.50        66.70657
719.92        66.55284
720.34        66.43906
720.76        66.41192
721.19        66.28956
721.61         66.2767
722.03        66.42294
722.45        66.50021
722.87        66.72826
723.29        66.97801
723.71        67.16824
724.13        67.26955
724.55        67.30207
724.97        67.30102
725.39        67.32488
725.81        67.38981
726.23        67.47339
726.65        67.55875
727.07        67.61846
727.49         67.6511
727.91        67.68359
728.33        67.71606
728.75        67.74496
729.17        67.77169
729.59        67.78281
730.01        67.82887
730.43        67.98388
730.85        68.25493
731.27        68.64254
731.69        69.01577
732.10        69.14182
732.52        68.98098
732.94        68.64085
733.36        68.31122
733.78        68.23805
734.20        68.49406
734.62        69.17171
735.04        69.96938
735.46        70.40568
735.88        69.54515
736.30        69.88707
736.72         71.0668
737.13        71.49058
737.55         70.9203
737.97          70.859
738.39        71.28609
738.81        70.31685
739.23        68.56303
739.65        69.41682
740.06        72.30554
740.48        72.85379
740.90         71.0736
741.32        70.27586
741.74        70.76086
742.16        70.99944
742.57        71.04453
742.99        71.70898
743.41        72.75323
743.83        73.31705
744.25        73.28252
744.67        72.95806
745.08        72.57152
745.50        72.41082
745.92        72.58596
746.34         73.0074
746.75        73.53104
747.17        73.86164
747.59        73.94443
748.01        73.96022
748.42        74.01151
748.84        74.07748
749.26        74.29917
749.68        74.91762
750.09        75.78909
750.51        76.52899
750.93        76.93906
751.35        76.73899
751.76        76.12642
752.18         75.8541
752.60        75.91121
753.01        75.78825
753.43         75.6068
753.85          75.154
754.27        75.96866
754.68        76.60103
755.10        77.30701
755.52        77.89404
755.93        78.25877
756.35        78.36118
756.77        78.35645
757.18        78.35818
757.60        78.40668
758.02        78.97489
758.43        79.69229
758.85        78.89763
759.26        77.18346
759.68        76.94918
760.10        78.57082
760.51        79.34332
760.93        79.04173
761.34        77.99514
761.76        77.79478
762.18        76.91596
762.59        76.12992
763.01        76.39498
763.42        77.66739
763.84        78.49355
764.26        78.69851
764.67        78.99204
765.09        79.28089
765.50        79.23691
765.92        78.81339
766.33        77.57891
766.75        76.03299
767.16        75.56527
767.58        76.32142
768.00        77.64862
768.41        79.23845
768.83         80.5828
769.24        81.19225
769.66        80.74445
770.07        79.64124
770.49        78.07649
770.90        76.61912
771.32        77.52084
771.73        80.08749
772.15        79.76654
772.56        76.98897
772.97        76.41422
773.39        77.98669
773.80        78.62481
774.22        78.04491
774.63        77.79213
775.05        77.89753
775.46        77.98482
775.88        78.00548
776.29        77.93373
776.70        77.79842
777.12        77.79977
777.53        77.96274
777.95        78.15372
778.36        78.27753
778.77        78.17346
779.19        77.87071
779.60        77.44614
780.02        77.03572
780.43        77.00829
780.84        77.49072
781.26        77.70753
781.67        77.74899
782.09         79.2449
782.50         81.4207
782.91        80.55112
783.33        77.42751
783.74        76.40515
784.15         77.6966
784.57        78.57204
784.98        78.66167
785.39        78.72227
785.81        78.67912
786.22        78.23779
786.63        77.73121
787.04         77.7394
787.46        78.32547
787.87        79.33163
788.28        80.39524
788.70        80.86382
789.11         80.5958
789.52        79.84784
789.93        78.95409
790.35          78.353
790.76        78.18405
791.17        78.39554
791.58        78.84393
792.00        79.13309
792.41        79.13775
792.82        79.19392
793.23        79.39769
793.65        79.03593
794.06        78.47337
794.47        79.65069
794.88        81.75259
795.29        81.41979
795.71        78.86787
796.12        76.64793
796.53        75.44783
796.94        75.01654
797.35         75.4862
797.76        76.86079
798.18        78.48753
798.59        79.48672
799.00        79.47342
799.41        78.50546
799.82        77.10007
800.23        76.26515
800.64         76.2362
801.06        76.61932
801.47        77.25877
801.88        77.79524
802.29        78.07512
802.70         78.2525
803.11        78.32578
803.52        78.25595
803.93        78.08511
804.34         77.7839
804.75        77.50413
805.17        77.62129
805.58        78.23824
805.99        78.90459
806.40        79.41679
806.81        80.27576
807.22        80.96252
807.63        79.66593
808.04        77.08343
808.45        75.94142
808.86        76.50554
809.27        77.44042
809.68        78.28419
810.09        78.75474
810.50        78.62024
810.91        78.01087
811.32        77.20824
811.73        76.64824
812.14        76.46272
812.55        76.49628
812.96        76.71159
813.37        77.00143
813.78        77.31178
814.19        77.79407
814.60        78.21185
815.01        78.11432
815.42        77.46421
815.83         76.3782
816.24         75.2846
816.65        74.92693
817.05        75.52902
817.46        76.83694
817.87        78.32619
818.28         79.0434
818.69        78.72376
819.10        77.61131
819.51        76.25411
819.92        75.60661
820.33        75.92907
820.74         76.8652
821.14        77.94568
821.55        78.47871
821.96        78.20779
822.37        77.08276
822.78        75.61594
823.19        74.86172
823.60         75.0244
824.00        75.72723
824.41        76.59218
824.82        77.20058
825.23        77.33342
825.64        77.13344
826.04        76.79276
826.45         76.5899
826.86        76.60023
827.27        76.70811
827.68        76.81826
828.08        76.81979
828.49        76.61565
828.90        76.31687
829.31        75.98241
829.72         75.6992
830.12        75.54161
830.53        75.46706
830.94        75.50999
831.35        75.69842
831.75        76.06234
832.16        76.52083
832.57        77.03931
832.97          77.497
833.38        77.77314
833.79        77.88666
834.20        77.86991
834.60        77.78236
835.01        77.68121
835.42        77.55106
835.82        77.38564
836.23        77.09789
836.64         76.7309
837.04        76.33924
837.45         76.0253
837.86        75.95377
838.26        76.15421
838.67        76.52644
839.08        76.96097
839.48        77.24948
839.89        77.28501
840.29        77.14534
840.70        76.85397
841.11        76.43019
841.51        75.93224
841.92        75.36066
842.33        74.87125
842.73        74.72868
843.14        74.94651
843.54        75.47483
843.95        76.10544
844.35        76.54449
844.76         76.6711
845.17        76.57065
845.57        76.30798
845.98        76.00664
846.38        75.72134
846.79        75.38627
847.19        75.08385
847.60         74.8823
848.00        74.84503
848.41        74.95242
848.81        75.13651
849.22        75.19874
849.62         75.1517
850.03        75.04588
850.43        75.02222
850.84        75.25182
851.24        75.81266
851.65        76.45125
852.05        77.18976
852.46        77.89682
852.86        78.50635
853.27         79.0874
853.67        79.23857
854.07        78.46495
854.48        76.85063
854.88        74.59218
855.29        72.47917
855.69        71.65157
856.10        72.31655
856.50        74.33855
856.90        76.99651
857.31         78.6004
857.71        78.59943
858.12         77.3951
858.52        75.72391
858.92         74.5581
859.33        74.12403
859.73        74.16348
860.13         74.5384
860.54        74.97851
860.94         75.4335
861.34        75.97869
861.75        76.57272
862.15        77.21825
862.55        77.84797
862.96        78.38543
863.36        78.79253
863.76        78.99908
864.17        78.99751
864.57        78.88067
864.97        78.71114
865.38        78.57546
865.78        78.55663
866.18        78.55891
866.58        78.65499
866.99        78.94075
867.39        79.47832
867.79        80.30241
868.19        81.06026
868.60        81.08807
869.00        80.25499
869.40        78.71541
869.80        77.32198
870.21        77.41936
870.61        79.35599
871.01         82.7348
871.41        86.38428
871.81        88.30682
872.22        87.98654
872.62        86.01437
873.02        83.60271
873.42        82.78798
873.82        83.84373
874.22        85.88492
874.63        88.20409
875.03        89.21497
875.43        88.23755
875.83        86.72466
876.23        84.07469
876.63        82.83404
877.03        83.10559
877.44        85.08141
877.84        103.3319
878.24        93.60487
878.64        93.61111
879.04        92.71429
879.44        88.32491
879.84        86.08747
880.24        89.97107
880.64        92.24261
881.04        93.61366
881.44        94.30375
881.84         93.5517
882.24        91.74412
882.65        89.94817
883.05        89.19963
883.45        89.68705
883.85        91.34532
884.25         93.4931
884.65        94.69065
885.05        94.49567
885.45        93.38124
885.85        92.11717
886.25        91.76373
886.65        92.52754
887.05         94.0395
887.45        95.74065
887.85        96.65073
888.25        96.44998
888.65        95.49171
889.04        94.21426
889.44        93.33357
889.84        93.04597
890.24         93.1029
890.64        93.34848
891.04        93.56597
891.44        93.66058
891.84        93.74673
892.24        93.76157
892.64        93.54847
893.04        93.15501
893.44        92.68991
893.83        92.33421
894.23        92.38702
894.63        92.87385
895.03         93.6264
895.43        94.64661
895.83        95.89513
896.23        97.23109
896.63        98.64616
897.02        99.60009
897.42        99.24943
897.82        97.55759
898.22        94.86988
898.62        92.17016
899.01        90.89142
899.41        91.32793
899.81        93.00178
900.21        95.12238
900.61        96.39194
901.00        96.41997
901.40         95.5986
901.80        94.40744
902.20        93.59001
902.59        93.37931
902.99        93.54246
903.39        93.80322
903.79        93.71962
904.18        93.20081
904.58        92.49571
904.98         91.9602
905.38        92.10406
905.77        92.96533
906.17        94.27455
906.57         95.6442
906.96        96.57819
907.36        96.87477
907.76        96.69563
908.15         96.1595
908.55        95.35748
908.95        94.44859
909.34        93.41096
909.74         92.4511
910.14        91.70337
910.53        91.24461
910.93        91.12389
911.33        91.37057
911.72         91.9965
912.12        92.83719
912.52        93.74322
912.91        94.59576
913.31        95.31287
913.70        95.93022
914.10        96.44543
914.49        96.66121
914.89        96.09082
915.29        94.74207
915.68        92.84779
916.08        91.19776
916.47        90.40738
916.87         90.5305
917.26         91.4017
917.66        92.42553
918.05        92.66678
918.45        91.90353
918.84        90.46158
919.24        89.04198
919.64        88.65784
920.03        89.55672
920.42        91.41671
920.82        93.60349
921.21        95.14456
921.61        95.53772
922.00        95.10319
922.40        94.19193
922.79        93.30145
923.19        92.65784
923.58        92.05603
923.98        91.36325
924.37        90.68945
924.77        90.29309
925.16        88.20516
925.55        88.67314
925.95        89.21516
926.34        91.07173
926.74         93.6429
927.13        96.19775
927.52        97.30128
927.92        96.73196
928.31         94.9518
928.70        92.54779
929.10        90.52946
929.49         89.2086
929.89        88.34949
930.28        88.07973
930.67        88.60955
931.07        89.76555
931.46        91.59055
931.85         93.3554
932.24        93.94826
932.64        93.18023
933.03        91.18751
933.42        88.60187
933.82        86.88972
934.21        86.46114
934.60        86.94808
934.99        87.68111
935.39        87.96152
935.78        87.68765
936.17         86.7003
936.56         84.8538
936.96        85.45687
937.35        84.28889
937.74        84.75563
938.13        85.33926
938.53        86.18748
938.92        87.33157
939.31        88.91879
939.70        90.57323
940.09        91.12604
940.49         90.2477
940.88        88.40503
941.27        86.53886
941.66        85.79358
942.05        86.30001
942.44        87.68358
942.84        89.44419
943.23         90.7702
943.62        91.25015
944.01        91.10554
944.40         90.5218
944.79        89.77324
945.18        88.95611
945.57        87.93808
945.97        86.72804
946.36        85.53238
946.75        84.63287
947.14         84.1418
947.53        84.04504
947.92        84.23273
948.31        84.65116
948.70        85.34321
949.09        86.18418
949.48        86.84563
949.87        87.13621
950.26        87.02142
950.65        86.75952
951.04        86.81184
951.43        87.26166
951.82        87.98629
952.21        88.55018
952.60         88.2611
952.99        87.02175
953.38        85.10684
953.77        83.15468
954.16        82.07111
954.55        82.04067
954.94        82.85137
955.33        83.88576
955.72        84.09341
956.11        83.21973
956.50        81.55712
956.89        79.86501
957.28        79.53063
957.66        81.00956
958.05        83.61134
958.44        86.45466
958.83        88.25358
959.22        88.63834
959.61         87.9135
960.00        86.55809
960.39         85.3502
960.78        84.57014
961.16        84.07711
961.55        83.50924
961.94        82.31303
962.33        80.49031
962.72        78.39774
963.11        76.69997
963.49        76.20589
963.88        77.01455
964.27        78.96145
964.66        81.36539
965.04        82.72752
965.43        82.38675
965.82         80.8366
966.21        79.05191
966.60        78.34097
966.98        78.94698
967.37        80.42026
967.76        82.14465
968.15        82.93243
968.53        82.41595
968.92        81.03865
969.31        79.41196
969.69        78.28568
970.08        77.85874
970.47        77.91913
970.86        78.20194
971.24        78.27267
971.63        77.98293
972.02        77.46484
972.40        77.05386
972.79        77.28918
973.17        78.39751
973.56        80.08131
973.95        81.80418
974.33        82.55152
974.72        81.96949
975.11        80.40932
975.49        78.64561
975.88        77.76154
976.26        77.91702
976.65        78.89589
977.04        80.06291
977.42        79.88824
977.81        77.94259
978.19        74.93529
978.58        72.46667
978.96        72.10374
979.35        74.06467
979.74        77.97158
980.12        83.13222
980.51        86.75902
980.89        87.84896
981.28        86.99417
981.66        85.07334
982.05        83.25974
982.43        81.90529
982.82        80.71522
983.20        79.94868
983.59        80.07274
983.97        81.22289
984.35        83.45015
984.74        86.10246
985.12        87.85757
985.51        87.77908
985.89        85.98637
986.28        83.19359
986.66        80.60847
987.04        78.96394
987.43        78.13432
987.81        77.56034
988.20        76.43105
988.58        74.35633
988.96        70.92146
989.35        66.77262
989.73         65.5898
990.12        69.59671
990.50        77.11998
990.88        83.34307
991.27        84.67909
991.65        81.68652
992.03        75.41207
992.42        68.55621
992.80        66.04215
993.18        69.07994
993.56        74.98888
993.95        81.02346
994.33        84.62304
994.71        85.35298
995.10        84.48213
995.48        82.56968
995.86        80.21569
996.24        77.72795
996.63        74.61775
997.01        71.54823
997.39         70.7787
997.77        73.12833
998.15        78.09497
998.54        83.21809
998.92        85.24096
999.30        83.17426
999.68        77.89745
1000.06        70.68943
1000.45        64.94083
1000.83        62.27037
1001.21        61.74741
1001.59        62.96849
1001.97        65.62992
1002.35        69.54523
1002.73        75.44414
1003.12        81.99109
1003.50        84.39834
1003.88         80.3371
1004.26        72.01156
1004.64        63.57311
1005.02        58.48214
1005.40        56.86422
1005.78        58.00563
1006.16        62.81736
1006.54         70.3158
1006.92        76.32154
1007.30        79.74135
1007.69        81.27679
1008.07        82.33563
1008.45        83.59692
1008.83        85.07491
1009.21        86.26178
1009.59        81.98058
1009.97        53.72794
1010.35       -6.553902
1010.73       -17.30032
1011.11        10.04854
1011.49        34.80352
1011.86        54.48655
1012.24        66.10426
1012.62        70.90469
1013.00        71.42224
1013.38        68.57681
1013.76        64.73488
1014.14        67.90636
1014.52        84.66731
1014.90        117.2047
1015.28        155.6353
1015.66        171.8276
1016.04        150.0979
1016.41        97.86178
1016.79        45.02654
1017.17        22.26694
1017.55         24.7831
1017.93        35.85551
1018.31        47.62554
1018.69        56.61449
1019.06        63.66655
1019.44        71.25308
1019.82        81.14835
1020.20         92.9793
1020.58        104.9205
1020.95         112.667
1021.33         104.738
1021.71        269.5904
1022.09        135.1501
1022.46        128.9783
1022.84        128.3432
1023.22        132.6416
1023.60        147.3478
1023.97        292.5039
1024.35        48.06615
1024.73        77.82366
