SpectraSmart Spectrum 2.9.0.0
--------- Device Information -----------
Spectrum Name :  反射率_0
Saving Time :  2024/04/25 22:50:30
Spectro-Module Model Name : SE2030-DUVN
Spectro-Module Serial Number : OS361AC55029948
Wavelength Start : 200
Wavelength End : 1025
Wavelength Unit : Wavelength(nm)
Spectrum Unit : Reflectance(%)
-----------Spectrum Setting ------------
Integration Time : 20ms
Average : 10
Boxcar : 0
Background removal :  enabled
linearity correction :  enabled
SC :  disabled
Intensity correction :  disabled
DWT denoise :  enabled
savitzky-golay :  disabled
FFT :  disabled
Running average :  disabled
Kalman :  disabled
High pass :  disabled
---------------BEGIN--------------------
Wavelength(nm)             Reflectance(%)
200.29               0
200.75         82.7182
201.21        75.05589
201.67        66.26484
202.13        60.45216
202.58        58.09727
203.04        58.32529
203.50        60.22001
203.96        62.11327
204.42        63.21722
204.88        63.97413
205.34        64.48696
205.80        64.87047
206.26        65.35094
206.72        66.10303
207.18        67.23264
207.64        68.14365
208.10        67.32838
208.55        65.33797
209.01        64.56139
209.47        65.81046
209.93        68.65302
210.39        73.28057
210.85        77.71297
211.31        77.38534
211.77        71.23252
212.23        60.97992
212.69        51.37437
213.14        49.78501
213.60        57.18679
214.06        71.47936
214.52        87.00724
214.98        95.00986
215.44        93.49406
215.90         85.4557
216.36        75.19852
216.81        68.76381
217.27        67.70618
217.73        69.80862
218.19        72.13983
218.65        70.88965
219.11        64.68909
219.57        53.10977
220.02        37.82354
220.48        28.48967
220.94        30.80676
221.40        42.25286
221.86        53.69357
222.32        55.60234
222.77        48.92957
223.23        38.79185
223.69        30.35101
224.15        28.84528
224.61        33.66704
225.06        42.10283
225.52        50.47043
225.98        54.09099
226.44        52.17255
226.90        46.84929
227.36        40.65061
227.81        36.94464
228.27        36.81482
228.73        38.85659
229.19        42.04267
229.65        44.87469
230.10        46.71893
230.56        48.02838
231.02        48.89546
231.48        49.36578
231.93        49.51962
232.39         49.3403
232.85        48.90017
233.31        48.41973
233.77        47.94627
234.22        47.42197
234.68        46.89161
235.14        46.37725
235.60        45.92528
236.05        45.64591
236.51        45.40057
236.97        44.86222
237.43        43.98112
237.88        42.84258
238.34        41.81015
238.80        42.03004
239.26        44.01262
239.71        47.50982
240.17        51.64564
240.63        55.29684
241.08        57.98074
241.54        59.72135
242.00        60.68643
242.46        61.26809
242.91        61.85903
243.37        62.21879
243.83        63.81517
244.28        76.77208
244.74        106.1995
245.20        109.2512
245.66        103.1668
246.11        102.1687
246.57        106.1801
247.03        118.9907
247.48        156.5415
247.94        141.7691
248.40        102.6492
248.85        89.88686
249.31         85.9615
249.77         85.2082
250.22        86.02958
250.68        88.16967
251.14        90.85981
251.59        90.14648
252.05          83.977
252.51         75.3394
252.96        67.83234
253.42        64.39793
253.88        64.19295
254.33        65.89671
254.79        69.27504
255.25        73.33262
255.70        77.07087
256.16        80.52996
256.62        82.30994
257.07        81.00621
257.53        77.46873
257.99        72.24406
258.44        67.07551
258.90        64.83607
259.35        64.67828
259.81        65.55054
260.27        65.56734
260.72         62.9138
261.18        58.36184
261.63        52.75774
262.09        47.77143
262.55        44.68277
263.00        43.37508
263.46        43.20756
263.91        43.19482
264.37        42.56638
264.83        41.15688
265.28        39.18559
265.74        37.23015
266.19        35.90535
266.65        35.43301
267.11        35.46104
267.56        35.51214
268.02        35.01889
268.47        33.87744
268.93        32.30239
269.38        30.60741
269.84        29.54373
270.30        29.29833
270.75        29.64741
271.21        30.17244
271.66        30.25541
272.12        29.73258
272.57        28.79988
273.03        27.77714
273.48        27.06481
273.94        26.78609
274.39        26.75795
274.85        26.78009
275.31        26.55701
275.76        26.02085
276.22        25.32087
276.67        24.59151
277.13        24.10409
277.58        23.86392
278.04         23.7987
278.49        23.75283
278.95        23.56766
279.40        23.18378
279.86        22.71536
280.31         22.2049
280.77        21.81912
281.22        21.55531
281.68         21.3831
282.13        21.26139
282.59        21.16658
283.04        21.07596
283.50        21.02697
283.95        20.96701
284.41        20.83124
284.86         20.6076
285.32        20.32299
285.77        20.07213
286.22        20.05688
286.68         20.2782
287.13        20.64797
287.59        20.98281
288.04        21.00514
288.50        20.69242
288.95        20.12758
289.41         19.5093
289.86         19.0354
290.32        18.81113
290.77        18.75673
291.22        18.83002
291.68        18.92905
292.13        19.02764
292.59        19.16149
293.04        19.35997
293.50         19.6654
293.95        20.06815
294.40          20.517
294.86        20.95381
295.31        21.30768
295.77        21.56495
296.22        21.75136
296.68        21.89361
297.13        22.00666
297.58        22.12659
298.04        22.27223
298.49        22.48032
298.95        22.84078
299.40        23.35034
299.85         23.9689
300.31        24.62942
300.76        25.23609
301.21        25.73454
301.67        26.16717
302.12        26.48206
302.58        26.65682
303.03        26.69236
303.48        26.61297
303.94        26.56591
304.39         26.7457
304.84        27.18246
305.30        27.80116
305.75        28.40333
306.20        28.68919
306.66        28.61983
307.11        28.28946
307.57        27.88534
308.02        27.61581
308.47         27.5668
308.93        27.66553
309.38        27.85256
309.83         28.0658
310.29         28.2577
310.74         28.4383
311.19         28.5754
311.65        28.61392
312.10        28.54457
312.55        28.38055
313.00        28.13661
313.46        27.85577
313.91        27.55829
314.36        27.25957
314.82        27.02039
315.27        26.91444
315.72        26.95434
316.18         27.1144
316.63        27.31776
317.08        27.41405
317.53        27.35751
317.99        27.17162
318.44         26.9372
318.89        26.78955
319.35        26.75364
319.80         26.7966
320.25        26.81586
320.70        26.64703
321.16        26.26482
321.61         25.7329
322.06        25.18825
322.51         24.8326
322.97        24.70109
323.42        24.74117
323.87        24.82726
324.32        24.74887
324.78        24.44855
325.23        23.99609
325.68        23.49719
326.13        23.12665
326.59        22.93074
327.04        22.87155
327.49        22.87526
327.94        22.82293
328.39        22.67962
328.85        22.47837
329.30        22.29473
329.75        22.22037
330.20        22.27964
330.66        22.41601
331.11        22.58689
331.56        22.68554
332.01         22.6751
332.46        22.57036
332.92         22.3996
333.37        22.24025
333.82        22.11535
334.27        22.02188
334.72        21.91924
335.17        21.74021
335.63        21.47746
336.08        21.16142
336.53        20.89272
336.98        20.82832
337.43        20.99099
337.88        21.33407
338.34        21.68372
338.79        21.79946
339.24        21.60126
339.69        21.15644
340.14        20.65613
340.59        20.43781
341.05        20.57343
341.50        20.95143
341.95        21.38091
342.40        21.58235
342.85        21.49155
343.30        21.21274
343.75        20.83585
344.20        20.51915
344.66        20.32522
345.11        20.16953
345.56        20.07712
346.01        20.08398
346.46        20.17156
346.91        20.35235
347.36        20.47589
347.81        20.29487
348.26        19.79407
348.72          19.083
349.17        18.38186
349.62        18.13758
350.07        18.44301
350.52        19.13867
350.97        19.96894
351.42        20.54331
351.87        20.74446
352.32        20.67958
352.77        20.43921
353.22        20.17245
353.67        19.94249
354.13        19.71155
354.58        19.47511
355.03        19.26764
355.48        19.10101
355.93        18.99843
356.38        18.95058
356.83        18.92198
357.28        18.89776
357.73         18.8724
358.18        18.85316
358.63        18.85596
359.08        18.87785
359.53        18.91105
359.98        18.91433
360.43        18.82901
360.88        18.64952
361.33         18.3925
361.78        18.13251
362.23        17.99028
362.68        17.98642
363.13        18.08078
363.58         18.1803
364.03        18.13715
364.48        17.92222
364.93        17.59111
365.38        17.22251
365.83        16.94227
366.28        16.78986
366.73         16.7233
367.18        16.71741
367.63        16.73145
368.08        16.74051
368.53        16.75765
368.98        16.75796
369.43        16.69639
369.88        16.57424
370.33         16.4118
370.78        16.24641
371.23        16.14705
371.68        16.13464
372.13        16.17982
372.58        16.28863
373.03        16.46609
373.48         16.6871
373.93        16.93836
374.38         17.1296
374.83        17.12611
375.28         16.9127
375.72        16.52396
376.17        16.10069
376.62        15.83384
377.07         15.7797
377.52        15.88348
377.97        16.06552
378.42        16.19018
378.87        16.21203
379.32        16.17372
379.77        16.10112
380.22        16.02895
380.67        15.96996
381.11        15.90723
381.56        15.83512
382.01        15.76041
382.46        15.68243
382.91        15.59991
383.36         15.5186
383.81        15.44187
384.26         15.3718
384.71        15.31688
385.15        15.24746
385.60        15.12728
386.05        14.94778
386.50        14.71152
386.95        14.48973
387.40        14.40516
387.85        14.47729
388.29        14.66159
388.74        14.84235
389.19        14.85321
389.64         14.6752
390.09        14.35084
390.54        14.01473
390.98        13.89433
391.43        14.04507
391.88         14.3788
392.33        14.72285
392.78        14.82475
393.23        14.65056
393.67        14.29108
394.12        13.92147
394.57        13.73172
395.02        13.76116
395.47        13.94054
395.91         14.1786
396.36        14.29511
396.81        14.23725
397.26        14.05565
397.71         13.8273
398.15        13.64886
398.60        13.56864
399.05        13.55674
399.50        13.55597
399.95        13.44996
400.39        13.28466
400.84        13.04889
401.29         12.8409
401.74        12.80876
402.18        12.99281
402.63        13.32068
403.08         13.6792
403.53        13.88941
403.97        13.90301
404.42        13.77137
404.87        13.56488
405.32        13.40955
405.76        13.34729
406.21        13.34226
406.66        13.36536
407.11        13.37941
407.55         13.3762
408.00          13.371
408.45        13.36264
408.90        13.33615
409.34        13.29039
409.79        13.22437
410.24        13.16697
410.68        13.16139
411.13        13.21648
411.58        13.32598
412.03        13.44293
412.47         13.4865
412.92        13.42772
413.37        13.28807
413.81        13.14074
414.26        13.11342
414.71        13.21903
415.15        13.42197
415.60        13.61092
416.05        13.62583
416.49        13.43366
416.94        13.10141
417.39        12.73368
417.83        12.50931
418.28        12.48699
418.73        12.59702
419.17        12.77901
419.62        12.93382
420.07        13.02837
420.51        13.09513
420.96        13.11056
421.41        13.03065
421.85         12.8596
422.30        12.63093
422.74        12.41083
423.19        12.32639
423.64         12.3847
424.08        12.55878
424.53        12.77192
424.98        12.90886
425.42        12.93368
425.87         12.8715
426.31        12.75544
426.76        12.67996
427.21        12.64718
427.65        12.54453
428.10        12.43706
428.54        12.50473
428.99        12.75478
429.44         13.1131
429.88         13.4256
430.33        13.48924
430.77         13.2747
431.22        12.84808
431.66         12.3952
432.11        12.24829
432.56        12.43864
433.00         12.8037
433.45        13.16984
433.89        13.40041
434.34        13.39115
434.78        13.07381
435.23        12.67379
435.67        12.62424
436.12        12.88971
436.57        13.01271
437.01        12.93314
437.46        12.87678
437.90        12.86184
438.35        12.82566
438.79        12.76876
439.24          12.729
439.68        12.71758
440.13        12.66989
440.57        12.61275
441.02        12.75908
441.46        13.00736
441.91        12.89757
442.35        12.49992
442.80        12.29733
443.24        12.27057
443.69        12.24065
444.13        12.15894
444.58        11.95481
445.02        11.68441
445.47        11.60829
445.91        11.69811
446.36         11.6994
446.80        11.59555
447.24        11.53597
447.69          11.531
448.13        11.51542
448.58         11.4935
449.02        11.48124
449.47        11.46994
449.91        11.44513
450.36        11.40941
450.80         11.3608
451.25         11.3289
451.69        11.35015
452.13        11.42993
452.58        11.54339
453.02        11.65626
453.47        11.70869
453.91        11.69211
454.36        11.63011
454.80         11.5414
455.24        11.46009
455.69        11.40802
456.13        11.36713
456.58        11.36635
457.02        11.43012
457.46        11.56055
457.91        11.74385
458.35        11.92394
458.79         12.0011
459.24        11.96712
459.68        11.84018
460.13        11.70324
460.57        11.65257
461.01        11.72277
461.46        11.87125
461.90        12.04322
462.34        12.14003
462.79        12.13499
463.23        12.05432
463.68        11.94967
464.12        11.90637
464.56        11.95303
465.01        12.06885
465.45        12.18287
465.89        12.23251
466.34        12.21445
466.78         12.0851
467.22        11.93478
467.67         12.0318
468.11        12.33612
468.55        12.48052
468.99        12.43434
469.44        12.40537
469.88        12.44129
470.32        12.57936
470.77        12.76202
471.21        12.80528
471.65        12.68873
472.10         12.5515
472.54        12.44987
472.98         12.4354
473.42        12.52777
473.87        12.71187
474.31        12.92218
474.75        13.04897
475.20        13.07083
475.64        13.01354
476.08        12.93506
476.52        12.92499
476.97        13.00607
477.41        13.15453
477.85         13.3173
478.29        13.43516
478.74        13.49197
479.18        13.43801
479.62        13.32994
480.06        13.48212
480.50        13.62792
480.95        13.78303
481.39        13.81143
481.83        13.79322
482.27         13.7275
482.72        13.51655
483.16        13.25434
483.60        13.28249
484.04        13.61511
484.48        13.81525
484.93        14.05853
485.37        14.51733
485.81        14.97556
486.25        15.22723
486.69        19.60799
487.14        15.30426
487.58        10.34939
488.02        12.76468
488.46        14.76608
488.90        14.86221
489.34        14.80143
489.79        14.68996
490.23        15.55092
490.67        16.08271
491.11        16.04156
491.55        15.90941
491.99        15.68073
492.43        15.50073
492.88        15.44656
493.32        15.50627
493.76        15.57839
494.20         15.8109
494.64        16.15149
495.08        16.55051
495.52        16.95624
495.96        17.31652
496.41        17.56497
496.85        17.69142
497.29        17.72307
497.73        17.53519
498.17        17.35093
498.61        17.59044
499.05        18.23904
499.49        18.40868
499.93        18.52689
500.37        18.63363
500.82        18.68908
501.26        18.89666
501.70        19.16625
502.14        19.33346
502.58        19.37238
503.02         19.4284
503.46        19.50514
503.90        19.50659
504.34         19.4589
504.78        19.45227
505.22        19.50176
505.66        19.58961
506.10        19.68947
506.54        19.75512
506.98        19.77673
507.42        19.77068
507.86         19.7782
508.30        19.86164
508.74        20.02865
509.18        20.25267
509.62        20.48175
510.06        20.63112
510.50        20.68174
510.94        20.66816
511.38        20.62631
511.82        20.61308
512.26        20.64842
512.70        20.70792
513.14        20.79993
513.58        20.93833
514.02        21.10395
514.46        21.28499
514.90        21.42678
515.34        21.40697
515.78        21.18447
516.22        20.95549
516.66        20.80553
517.10        20.42366
517.54        19.83773
517.98        20.64763
518.42        20.47976
518.86        20.84972
519.30        21.02663
519.74        21.23853
520.18        21.42616
520.62        21.46548
521.06        21.36932
521.50        21.15063
521.93        20.88868
522.37        20.72724
522.81        20.70282
523.25        20.77771
523.69        20.89995
524.13        20.98477
524.57        21.00493
525.01        20.98646
525.45        20.94292
525.89        20.89561
526.32        20.85002
526.76        20.79287
527.20        20.72271
527.64        20.64989
528.08        20.57859
528.52        20.49081
528.96        20.37597
529.40         20.2704
529.83        20.18886
530.27        19.92506
530.71        19.88033
531.15        19.74526
531.59        19.64467
532.03        19.56268
532.46         19.5335
532.90        19.61151
533.34        19.78334
533.78        20.01872
534.22        20.23405
534.66        20.30843
535.09         20.2155
535.53         20.0028
535.97        19.73348
536.41        19.51554
536.85         19.3884
537.28        19.32857
537.72        19.32217
538.16        19.34365
538.60        19.38118
539.04        19.43076
539.47        19.48999
539.91        19.60122
540.35        19.74061
540.79        19.82178
541.22        19.85134
541.66        19.92189
542.10        20.03733
542.54        20.14099
542.97        20.23824
543.41        20.37329
543.85        20.54372
544.29        20.74713
544.72        20.94422
545.16        21.08106
545.60          21.149
546.04        21.16213
546.47        21.18723
546.91         21.3403
547.35        21.63069
547.79        22.02418
548.22        22.42119
548.66        22.64639
549.10        22.67875
549.53        22.60638
549.97        22.53072
550.41        22.55011
550.84         22.7027
551.28        22.97027
551.72        23.30959
552.15         23.6363
552.59        23.91096
553.03        24.15012
553.46        24.35108
553.90        24.53175
554.34        24.70365
554.77        24.83384
555.21        24.91941
555.65        25.03293
556.08        25.19203
556.52        25.07576
556.96         25.2863
557.39        25.37294
557.83           25.52
558.27        25.69456
558.70        25.88724
559.14        26.06628
559.57        26.20844
560.01        26.33253
560.45        26.41702
560.88         26.4285
561.32        26.39109
561.75        26.30552
562.19        26.23113
562.63        26.22206
563.06        26.28783
563.50        26.41805
563.93        26.58561
564.37        26.75777
564.80        26.91096
565.24        27.06349
565.68        27.20107
566.11        27.30592
566.55        27.39736
566.98         27.4681
567.42        27.55796
567.85        27.72428
568.29         27.9876
568.72        28.24886
569.16        28.51501
569.60        28.84721
570.03        29.10662
570.47        29.09265
570.90        28.97437
571.34        28.38603
571.77         28.9458
572.21        29.01958
572.64        29.13935
573.08        28.78316
573.51        28.06374
573.95        29.28519
574.38        31.01612
574.82        30.21252
575.25        29.98123
575.69        29.02502
576.12        28.68573
576.56         28.6777
576.99        29.33621
577.42        30.51431
577.86        30.53902
578.29        30.36103
578.73        31.59876
579.16        29.09099
579.60        26.77095
580.03        28.02447
580.47        29.77661
580.90         30.1405
581.33        29.53044
581.77        29.11151
582.20        31.71145
582.64        31.02662
583.07        26.50867
583.51        26.02553
583.94        25.73506
584.37        26.91802
584.81        27.85597
585.24        29.07526
585.68        29.73266
586.11        28.87759
586.54        26.91629
586.98        26.22771
587.41        26.55055
587.85        27.61812
588.28          28.195
588.71        26.98475
589.15        26.08559
589.58        26.58952
590.01        26.94724
590.45        27.50529
590.88        27.46108
591.31        27.12084
591.75         27.0594
592.18        27.18975
592.61        27.79202
593.05        28.36122
593.48        29.54683
593.91        29.58271
594.35        27.13834
594.78        26.71852
595.21        26.95383
595.65        28.29071
596.08        29.25602
596.51         28.2642
596.94        27.79129
597.38        28.37506
597.81         29.8067
598.24        30.43433
598.68        30.13042
599.11        30.16464
599.54        31.80326
599.97        32.57806
600.41        31.03362
600.84        31.45382
601.27        32.40469
601.70         32.3406
602.14        32.59422
602.57        32.58424
603.00         33.3974
603.43        34.70148
603.87        36.00459
604.30        36.22276
604.73         35.5374
605.16        35.49205
605.60        36.23432
606.03        37.44983
606.46        38.69102
606.89         39.0866
607.32        38.37847
607.76        38.80566
608.19         40.4671
608.62        40.28476
609.05        39.91118
609.48        40.58984
609.92         40.9371
610.35        41.41861
610.78        43.09454
611.21        43.69026
611.64        42.22077
612.07        43.03719
612.50        43.74417
612.94        44.41081
613.37        44.36831
613.80        44.82023
614.23        45.44616
614.66        45.76371
615.09        46.29694
615.52        46.67197
615.96         46.9711
616.39        47.31958
616.82          46.909
617.25        47.22964
617.68        47.96605
618.11        48.66315
618.54        49.11356
618.97        49.10956
619.40        48.86779
619.84        49.06862
620.27        49.73085
620.70        50.41903
621.13        50.96561
621.56        50.92147
621.99        50.47539
622.42        51.10678
622.85        52.46524
623.28        52.42956
623.71        52.06107
624.14        51.99942
624.57        51.70978
625.00        51.45481
625.43         51.5808
625.86        51.14607
626.29        51.27711
626.72        51.33704
627.15         51.0461
627.58        50.87001
628.01        50.67493
628.44        50.48494
628.87        50.31531
629.30        50.26481
629.73          50.239
630.16        49.97631
630.59        49.45184
631.02        48.79097
631.45        48.10183
631.88        47.51439
632.31        47.06552
632.74        46.71664
633.17        46.40459
633.60        46.01237
634.03        45.51412
634.46        44.97815
634.89        44.41801
635.32        43.82647
635.75        43.22073
636.18        42.61308
636.61        42.02788
637.04         41.4934
637.47        41.01096
637.89         40.5786
638.32        40.16129
638.75        39.72527
639.18         39.2686
639.61        38.81314
640.04        38.37506
640.47        37.97421
640.90        37.61818
641.33        37.29443
641.76        37.00513
642.18        36.81054
642.61        36.71149
643.04        36.60938
643.47        36.45154
643.90        36.62371
644.33        36.36174
644.76        36.29748
645.18        36.23218
645.61        36.22824
646.04        36.28949
646.47        36.39104
646.90        36.57006
647.33        36.85684
647.75        37.26389
648.18        37.81163
648.61        38.36018
649.04        38.70865
649.47        38.83695
649.89        38.66288
650.32        38.49467
650.75        39.06201
651.18         40.2969
651.61        41.40983
652.03        42.13773
652.46        42.65184
652.89        43.17072
653.32        43.36753
653.74        43.52139
654.17        45.14703
654.60        46.12707
655.03        45.56828
655.46        46.78828
655.88        49.94781
656.31        53.50711
656.74        119.0741
657.16        76.29267
657.59        26.94331
658.02        21.25141
658.45        38.09558
658.87        49.33602
659.30        52.58287
659.73        52.40692
660.15        51.21067
660.58        53.27775
661.01        55.14449
661.44        54.08394
661.86         53.8942
662.29        54.04848
662.72          55.009
663.14        56.58088
663.57        56.88821
664.00        56.13782
664.42        56.22635
664.85        57.24344
665.27        58.03277
665.70        58.37648
666.13        58.56929
666.55        58.58575
666.98        58.35716
667.41        58.06905
667.83        58.05737
668.26        58.39943
668.69        58.96854
669.11        59.55656
669.54        60.11015
669.96        59.99482
670.39        59.78224
670.82        59.48661
671.24        59.39889
671.67        59.63105
672.09        60.11926
672.52        60.64004
672.94        61.23451
673.37        60.85137
673.80        60.92748
674.22         61.1964
674.65        61.39646
675.07        61.50446
675.50        61.54791
675.92        61.58907
676.35        61.75476
676.77         62.0557
677.20        62.40487
677.62         62.7689
678.05        63.01744
678.47        63.10028
678.90        63.38258
679.32        63.32633
679.75        63.31931
680.17        63.46268
680.60        63.56108
681.02        63.65987
681.45        63.70168
681.87        63.69824
682.30        63.65762
682.72         63.6475
683.15        63.79678
683.57        64.12923
684.00        64.49116
684.42        64.96374
684.85          65.217
685.27        65.25457
685.70        65.19866
686.12        65.09978
686.54        64.96026
686.97        64.88086
687.39        65.11511
687.82        65.56305
688.24        65.91191
688.66        66.04827
689.09        65.98529
689.51        65.83829
689.94        65.86581
690.36        66.11615
690.78        66.43464
691.21        66.73678
691.63         66.9523
692.06        67.05512
692.48        67.08369
692.90        67.09511
693.33        67.16501
693.75        67.31594
694.17        67.52135
694.60        67.77007
695.02        68.01846
695.44        68.20953
695.87        68.54217
696.29        68.95659
696.71        68.77743
697.14        68.21838
697.56        68.58744
697.98        69.64764
698.41        69.60351
698.83        68.78539
699.25        68.42857
699.68        68.67733
700.10        68.79328
700.52        68.77457
700.94        69.01649
701.37        69.46733
701.79        69.92561
702.21        70.30656
702.64        70.66075
703.06        70.90257
703.48        70.89607
703.90           70.65
704.33        70.21369
704.75        69.73898
705.17        69.55867
705.59        69.75727
706.01        70.13135
706.44        70.52588
706.86        71.28935
707.28        71.39476
707.70        71.63367
708.12        71.73676
708.55        71.72964
708.97        71.61887
709.39        71.42316
709.81         71.2429
710.23        71.22393
710.66        71.40319
711.08        71.77969
711.50        72.19231
711.92        72.38446
712.34        72.30209
712.76        72.01598
713.19        71.69788
713.61        71.63415
714.03        71.92136
714.45        72.42901
714.87        72.97054
715.29        73.23283
715.71        73.14289
716.13        72.80249
716.56         72.3838
716.98        72.18831
717.40        72.28915
717.82        72.60577
718.24        73.00342
718.66         73.1976
719.08        73.21646
719.50        73.06685
719.92        72.86942
720.34        72.78596
720.76        72.86593
721.19        72.93147
721.61        73.17048
722.03        73.38042
722.45        73.59415
722.87        73.81587
723.29        74.02287
723.71        74.16838
724.13        74.23972
724.55        74.24438
724.97        74.20361
725.39        74.16167
725.81        74.13624
726.23        74.12138
726.65        74.12325
727.07        74.14506
727.49        74.19048
727.91        74.27199
728.33        74.37234
728.75        74.45999
729.17        74.52728
729.59        74.56086
730.01        74.57891
730.43        74.72389
730.85        75.03264
731.27        75.28094
731.69        75.30787
732.10        76.02715
732.52        75.50478
732.94        75.34252
733.36        75.13019
733.78        75.12323
734.20        75.37069
734.62        76.00181
735.04          76.663
735.46        77.09795
735.88        75.53554
736.30        75.82001
736.72        77.29453
737.13        77.87192
737.55         77.2571
737.97        77.32645
738.39        78.02496
738.81        77.10873
739.23        75.21242
739.65        76.05384
740.06        79.04605
740.48        79.51497
740.90        77.50938
741.32         76.6065
741.74        77.12366
742.16        77.39515
742.57        77.47633
742.99        78.23898
743.41        79.43559
743.83        80.19244
744.25        80.35278
744.67        80.12918
745.08        79.75734
745.50        79.62856
745.92        79.86357
746.34        80.31544
746.75         80.8269
747.17        81.11493
747.59        81.12741
748.01        81.03311
748.42        80.98271
748.84        81.04259
749.26         81.3548
749.68        82.11516
750.09        83.13041
750.51        83.84281
750.93        84.00449
751.35         83.5759
751.76        82.92329
752.18        81.87891
752.60        82.61063
753.01        82.61507
753.43        82.48535
753.85        82.64587
754.27        83.11038
754.68        83.68443
755.10        84.27182
755.52        84.70105
755.93         85.2772
756.35        85.58307
756.77         85.8223
757.18        85.95035
757.60        85.98579
758.02        86.47031
758.43        87.03388
758.85        86.05167
759.26        84.19242
759.68        83.66696
760.10         85.1396
760.51        86.09327
760.93        86.27296
761.34        84.97021
761.76        84.66154
762.18        83.65269
762.59        83.00891
763.01         83.4958
763.42        85.00834
763.84        85.97391
764.26        86.18245
764.67        86.38433
765.09        86.55264
765.50        86.54913
765.92        86.28029
766.33        84.97989
766.75        83.21418
767.16        82.74036
767.58        83.72054
768.00        85.32038
768.41        87.11584
768.83        88.47166
769.24        88.81013
769.66        87.93117
770.07        86.39223
770.49        84.60408
770.90        83.15424
771.32        84.26272
771.73        87.13285
772.15        86.88677
772.56        83.95338
772.97        83.39245
773.39        85.15085
773.80        85.74461
774.22        84.96404
774.63        84.91315
775.05        85.54641
775.46        85.84988
775.88        85.70174
776.29        85.51072
776.70        85.42992
777.12        85.08279
777.53        85.57181
777.95        85.91087
778.36        86.24613
778.77        86.27174
779.19        85.98504
779.60        85.47693
780.02        84.94092
780.43        84.83311
780.84        85.30206
781.26        85.61903
781.67        85.80071
782.09        87.17262
782.50        89.01781
782.91        88.02237
783.33        85.00851
783.74        84.03628
784.15        85.30083
784.57        86.28288
784.98        86.54317
785.39        86.47645
785.81        86.07825
786.22         85.4995
786.63        85.07243
787.04        85.09844
787.46        85.64483
787.87        86.64878
788.28         87.7572
788.70        88.59045
789.11        88.35207
789.52        87.94148
789.93        87.38161
790.35        86.67565
790.76        86.07665
791.17        86.16905
791.58        86.84943
792.00         87.3233
792.41        87.40884
792.82        87.46775
793.23         87.6112
793.65        87.31167
794.06        86.86574
794.47        87.87949
794.88         89.5843
795.29        88.94214
795.71        86.23998
796.12        83.98038
796.53        82.84798
796.94        82.49512
797.35        83.07861
797.76        84.79722
798.18        86.86121
798.59        88.19287
799.00        87.95264
799.41        86.68587
799.82        84.94127
800.23         83.9166
800.64        83.90797
801.06        84.47736
801.47        85.40059
801.88        86.17117
802.29        86.57832
802.70        86.81532
803.11        86.92873
803.52        86.88389
803.93        86.71416
804.34         86.5016
804.75        86.39761
805.17         86.0028
805.58        86.62669
805.99         86.9374
806.40         87.1386
806.81        87.63665
807.22        88.02245
807.63        86.76228
808.04        84.47016
808.45        83.51114
808.86         84.1116
809.27        85.13366
809.68        86.12186
810.09        86.71303
810.50        86.66765
810.91        86.11376
811.32        85.36597
811.73        84.92126
812.14        84.91712
812.55        85.20283
812.96        85.65902
813.37        85.96563
813.78        86.07066
814.19         86.3336
814.60        86.58542
815.01        86.34997
815.42        85.61619
815.83        84.53947
816.24        83.54906
816.65        83.34486
817.05        84.13157
817.46         85.6686
817.87        87.34894
818.28        88.07617
818.69        87.56362
819.10         86.0816
819.51        84.32917
819.92        83.54151
820.33        84.04522
820.74         85.3515
821.14        86.82311
821.55        87.62025
821.96        87.34473
822.37        85.72252
822.78        83.49728
823.19        82.34707
823.60        82.56536
824.00        83.50684
824.41        84.62701
824.82        85.31658
825.23        85.27773
825.64        84.75214
826.04        84.05019
826.45        83.61722
826.86        83.57744
827.27        83.74673
827.68        84.03152
828.08        84.33299
828.49        84.52007
828.90        84.71078
829.31        84.82745
829.72        84.70641
830.12        84.36225
830.53        83.81769
830.94        83.31667
831.35        83.19348
831.75        83.55473
832.16        84.26067
832.57        85.12786
832.97        85.74633
833.38        85.90149
833.79        85.70355
834.20         85.3816
834.60         85.2886
835.01        85.53231
835.42         85.9917
835.82        86.43957
836.23        86.41039
836.64        85.85674
837.04        84.96743
837.45        84.06676
837.86        83.66601
838.26        83.89459
838.67        84.54047
839.08        85.38247
839.48        86.00597
839.89        86.21347
840.29        86.15569
840.70        85.86211
841.11        85.35642
841.51        84.70654
841.92        83.87292
842.33        83.09131
842.73        82.77429
843.14        82.96107
843.54        83.59595
843.95        84.30452
844.35        84.51212
844.76        84.06848
845.17        83.17406
845.57        82.17147
845.98        81.59566
846.38        81.58439
846.79        81.95287
847.19        82.52719
847.60        82.89846
848.00        82.97038
848.41         82.8407
848.81         82.6617
849.22         82.5809
849.62        82.70177
850.03        82.96648
850.43         83.3408
850.84        83.67097
851.24        83.94386
851.65        83.99289
852.05        84.07574
852.46        84.42239
852.86        85.06309
853.27        85.96638
853.67        86.47775
854.07        85.72619
854.48        83.73382
854.88        80.82468
855.29        78.05655
855.69        76.95863
856.10        77.83666
856.50        80.49076
856.90        83.95928
857.31         86.0114
857.71        85.90627
858.12        84.20476
858.52         81.9997
858.92        80.76388
859.33        80.80914
859.73        81.73701
860.13        83.13052
860.54        84.12934
860.94         84.4578
861.34        84.35271
861.75        84.05014
862.15        83.99088
862.55        84.26804
862.96        84.71068
863.36        85.19313
863.76        85.47929
864.17        85.49891
864.57        85.39172
864.97        85.30415
865.38        85.43398
865.78        85.86217
866.18        86.43372
866.58        87.01768
866.99        87.38902
867.39        87.53399
867.79        87.53979
868.19        87.33643
868.60        86.78784
869.00        85.95705
869.40        84.91138
869.80        84.15195
870.21        84.42552
870.61        85.93864
871.01        88.44363
871.41        91.19973
871.81        92.93186
872.22        93.25555
872.62        92.48875
873.02         91.3037
873.42         90.8761
873.82        91.40764
874.22        92.45732
874.63        93.57092
875.03        93.86283
875.43        92.99268
875.83        91.86349
876.23          90.273
876.63         90.0195
877.03        91.33088
877.44         94.5836
877.84        100.0308
878.24        102.8768
878.64         102.049
879.04        99.34889
879.44        96.10087
879.84         94.1918
880.24         95.8921
880.64        97.48256
881.04        99.16608
881.44         100.307
881.84        100.0329
882.24        98.78038
882.65        97.38937
883.05         96.7851
883.45        97.15543
883.85        98.31583
884.25        99.75157
884.65         100.488
885.05        100.2403
885.45        99.37035
885.85        98.50351
886.25        98.49612
886.65        99.49455
887.05        101.1786
887.45        103.0495
887.85        104.2102
888.25         104.343
888.65        103.7581
889.04        102.7482
889.44        101.8267
889.84        101.1835
890.24        100.6612
890.64        100.3442
891.04        100.3762
891.44        100.7221
891.84        101.3687
892.24        102.0368
892.64        102.1733
893.04        101.7062
893.44        100.9022
893.83        100.0508
894.23        99.60088
894.63        99.64205
895.03        99.95677
895.43        100.6629
895.83         101.945
896.23        103.6931
896.63        105.8285
897.02        107.5884
897.42        107.7286
897.82        106.1073
898.22        103.1963
898.62        100.0967
899.01        98.43807
899.41        98.59283
899.81        99.99361
900.21        101.9581
900.61        103.3592
901.00        103.8058
901.40        103.6756
901.80        103.1428
902.20        102.4631
902.59        101.7877
902.99        100.9886
903.39        100.2364
903.79        99.86913
904.18        99.97865
904.58        100.5691
904.98        101.4267
905.38        102.1794
905.77        102.6725
906.17        102.9342
906.57        103.0913
906.96        103.4061
907.36        103.8602
907.76        104.3947
908.15        104.7226
908.55        104.2767
908.95        103.0472
909.34        101.2114
909.74        99.42144
910.14        98.50668
910.53        98.70274
910.93        99.84213
911.33        101.4259
911.72        102.5272
912.12        102.7735
912.52        102.3927
912.91         101.877
913.31        101.8924
913.70        102.6078
914.10        103.8518
914.49        105.1275
914.89        105.1104
915.29        103.4847
915.68        100.8018
916.08        98.35705
916.47        97.31625
916.87        97.78737
917.26          99.347
917.66        101.1436
918.05        101.8131
918.45        100.9971
918.84        99.22151
919.24         97.2744
919.64        96.27839
920.03         96.5537
920.42        97.70114
920.82        99.32669
921.21        100.9072
921.61        101.9874
922.00        102.7403
922.40        103.0041
922.79        102.5296
923.19        101.4024
923.58        99.70658
923.98        97.79858
924.37        96.52958
924.77        96.39857
925.16         96.4508
925.55        97.81052
925.95        99.27324
926.34        100.9729
926.74         102.706
927.13        104.1181
927.52        104.3975
927.92        103.5416
928.31        101.8063
928.70        99.66799
929.10        97.97024
929.49        96.94607
929.89        96.41597
930.28        96.52083
930.67         97.4568
931.07        99.01645
931.46        101.1877
931.85        103.1639
932.24        103.7495
932.64        102.7501
933.03        100.3675
933.42        97.31647
933.82        95.25623
934.21        94.68983
934.60        95.20122
934.99        96.14325
935.39        96.71811
935.78        96.78576
936.17        96.54858
936.56        95.91085
936.96          95.705
937.35        94.86378
937.74        94.38244
938.13        94.16351
938.53        94.59943
938.92        95.67922
939.31        97.42948
939.70        99.31686
940.09        99.89044
940.49        98.71928
940.88        96.42467
941.27        94.06219
941.66        92.87088
942.05          93.009
942.44        94.06786
942.84        95.60806
943.23        96.95824
943.62         97.7192
944.01        98.05275
944.40        98.03076
944.79        97.76302
945.18        97.29488
945.57        96.52759
945.97        95.41447
946.36        94.12634
946.75        92.97205
947.14        92.14012
947.53        91.76511
947.92        91.88414
948.31        92.43943
948.70        93.41823
949.09        94.64497
949.48        95.63788
949.87        96.09115
950.26         95.9944
950.65        95.53603
951.04        95.07658
951.43        94.72613
951.82        94.43172
952.21        93.98363
952.60        93.06901
952.99        91.70425
953.38        90.05369
953.77        88.61195
954.16        88.06152
954.55        88.48925
954.94        89.71548
955.33        91.08578
955.72        91.49453
956.11         90.6765
956.50        88.91637
956.89        86.99935
957.28        86.40287
957.66        87.63438
958.05        89.99659
958.44        92.67728
958.83         94.4637
959.22        94.99043
959.61        94.56815
960.00        93.53696
960.39        92.43472
960.78        91.49512
961.16        90.63062
961.55        89.68642
961.94        88.49828
962.33        87.12982
962.72        85.76546
963.11        84.79173
963.49        84.65768
963.88        85.38288
964.27        86.88967
964.66         88.6116
965.04        89.34843
965.43        88.60723
965.82        86.84132
966.21        84.95674
966.60        84.13711
966.98        84.59381
967.37        85.93848
967.76        87.60577
968.15        88.48032
968.53        88.19264
968.92        87.10777
969.31         85.7808
969.69        84.91485
970.08        84.68929
970.47        84.89925
970.86        85.24287
971.24        85.22143
971.63        84.68446
972.02        83.82533
972.40        83.08113
972.79         83.1479
973.17         84.3409
973.56        86.31647
973.95        88.57063
974.33        90.08221
974.72        90.36956
975.11        89.66428
975.49        88.54489
975.88        87.92376
976.26        87.93964
976.65        88.37067
977.04        88.61993
977.42        87.40101
977.81        84.50347
978.19        80.70995
978.58        77.63004
978.96        76.68902
979.35        78.03147
979.74        81.34524
980.12        86.02836
980.51        89.46573
980.89        90.75043
981.28         90.3713
981.66        89.09161
982.05        87.99825
982.43        87.37917
982.82        86.91328
983.20        86.83848
983.59        87.64577
983.97        89.47057
984.35        92.34483
984.74        95.49748
985.12        97.39717
985.51        96.98297
985.89        94.53504
986.28        90.83855
986.66        87.27871
987.04        84.77402
987.43         83.2424
987.81        82.36337
988.20        81.64247
988.58        80.82317
988.96        79.81413
989.35        79.13862
989.73        80.66689
990.12        84.64606
990.50        89.79836
990.88        93.26331
991.27        93.34575
991.65         90.5569
992.03        85.39107
992.42        79.80097
992.80        77.36745
993.18        79.06359
993.56         82.9963
993.95        87.11514
994.33        89.49294
994.71        89.78024
995.10        88.98769
995.48        87.44672
995.86        85.45919
996.24        83.23991
996.63        80.38386
997.01        77.74489
997.39        77.84617
997.77        81.51662
998.15        88.01284
998.54        94.44474
998.92        97.11697
999.30        94.94846
999.68        88.84538
1000.06        80.34956
1000.45        73.54542
1000.83         70.3713
1001.21        69.76459
1001.59        70.93169
1001.97        72.96953
1002.35        75.52689
1002.73        79.37727
1003.12         83.4463
1003.50        84.26415
1003.88        80.32391
1004.26        73.31413
1004.64        66.56709
1005.02        62.85603
1005.40        62.34513
1005.78        64.83139
1006.16        71.03239
1006.54        78.66628
1006.92        83.26226
1007.30        84.61359
1007.69        84.80927
1008.07        86.11477
1008.45        89.43355
1008.83         96.0388
1009.21        108.7877
1009.59        125.6149
1009.97        117.5197
1010.35         36.4339
1010.73       -21.13435
1011.11       -6.233716
1011.49        21.39346
1011.86        46.21296
1012.24         62.0079
1012.62        69.63652
1013.00        72.26893
1013.38        71.98721
1013.76        70.95167
1014.14        75.12768
1014.52        89.07928
1014.90        113.2793
1015.28        140.2711
1015.66        150.9259
1016.04        134.5379
1016.41        96.53165
1016.79        57.80445
1017.17        39.15123
1017.55        38.25953
1017.93        43.97939
1018.31        51.17522
1018.69         57.7864
1019.06        64.39518
1019.44         72.8568
1019.82         84.8521
1020.20        99.07111
1020.58        112.2362
1020.95        118.5859
1021.33        106.2555
1021.71        266.8708
1022.09        129.6229
1022.46         121.434
1022.84        119.8146
1023.22        124.7663
1023.60        143.2153
1023.97        329.3809
1024.35         14.4431
1024.73        52.60046
