SpectraSmart Spectrum 2.9.0.0
--------- Device Information -----------
Spectrum Name :  反射率_0
Saving Time :  2024/04/26 00:37:00
Spectro-Module Model Name : SE2030-DUVN
Spectro-Module Serial Number : OS361AC55029948
Wavelength Start : 200
Wavelength End : 1025
Wavelength Unit : Wavelength(nm)
Spectrum Unit : Reflectance(%)
-----------Spectrum Setting ------------
Integration Time : 20ms
Average : 10
Boxcar : 0
Background removal :  enabled
linearity correction :  enabled
SC :  disabled
Intensity correction :  disabled
DWT denoise :  enabled
savitzky-golay :  disabled
FFT :  disabled
Running average :  disabled
Kalman :  disabled
High pass :  disabled
---------------BEGIN--------------------
Wavelength(nm)             Reflectance(%)
200.29               0
200.75        94.44117
201.21        86.63419
201.67        77.44343
202.13        72.26484
202.58        71.83938
203.04        75.04311
203.50        79.63237
203.96         81.7746
204.42        80.67165
204.88        77.85524
205.34        75.51686
205.80        76.07601
206.26        80.73186
206.72        92.13618
207.18        114.6083
207.64        133.6274
208.10        119.3969
208.55        91.96404
209.01        74.88123
209.47        69.12772
209.93          69.881
210.39        74.76239
210.85        80.90166
211.31        82.30473
211.77        77.16096
212.23        67.90977
212.69        59.05109
213.14        57.47008
213.60        64.20193
214.06         76.9743
214.52         91.2993
214.98        100.4208
215.44        102.3803
215.90        99.30032
216.36        93.71693
216.81        89.02528
217.27        86.71507
217.73        85.90313
218.19        85.16368
218.65          82.517
219.11        77.15491
219.57        68.46161
220.02        58.45737
220.48        55.75938
220.94        63.98457
221.40        79.55147
221.86        92.48691
222.32        93.31037
222.77        83.81357
223.23        70.08925
223.69        58.03469
224.15        53.59777
224.61        56.29342
225.06        63.25404
225.52        70.87666
225.98        74.56745
226.44        73.46156
226.90        69.49783
227.36        65.05258
227.81        63.27648
228.27        65.06538
228.73        68.90236
229.19          73.269
229.65        76.01031
230.10        76.62511
230.56         76.1993
231.02         75.4351
231.48        75.11459
231.93        75.32969
232.39        75.74825
232.85        76.27808
233.31        76.92927
233.77        77.61207
234.22        78.42649
234.68        78.92357
235.14        78.24986
235.60        76.32807
236.05        73.53645
236.51        70.70562
236.97        68.90527
237.43        68.35574
237.88         68.9503
238.34        70.31265
238.80        71.64574
239.26        72.37704
239.71        72.88915
240.17        72.86527
240.63        72.48164
241.08        72.02782
241.54        71.30951
242.00        70.92802
242.46        71.87651
242.91        75.19865
243.37        83.31028
243.83        106.6648
244.28        172.4428
244.74        227.4985
245.20        173.1297
245.66          134.09
246.11        121.5808
246.57        121.3814
247.03        133.2969
247.48         171.984
247.94         146.192
248.40        102.8038
248.85        90.42746
249.31        87.78037
249.77        89.26391
250.22        93.66734
250.68        101.3907
251.14        112.3152
251.59        119.5313
252.05        115.9543
252.51        105.0386
252.96        92.56705
253.42        84.00775
253.88        79.11694
254.33        76.20667
254.79        76.41155
255.25        80.57139
255.70        87.18005
256.16        94.90599
256.62        100.7323
257.07        101.7007
257.53        98.85663
257.99        93.44101
258.44        87.59486
258.90        84.80765
259.35        84.24403
259.81        84.74928
260.27        84.51397
260.72        81.81509
261.18        77.44712
261.63        72.11434
262.09        67.27525
262.55        63.81969
263.00        61.69074
263.46        60.54967
263.91         59.6708
264.37        58.68909
264.83        57.35957
265.28        55.72461
265.74        54.10424
266.19        52.65883
266.65         51.6422
267.11        50.91272
267.56         50.2281
268.02        49.32821
268.47        48.09013
268.93        46.62439
269.38        45.12666
269.84        44.15105
270.30        43.81758
270.75        43.96392
271.21        44.23106
271.66        44.07187
272.12        43.36259
272.57         42.2776
273.03        41.12858
273.48        40.28921
273.94        39.89203
274.39        39.74818
274.85        39.71157
275.31        39.54198
275.76        39.14882
276.22        38.64373
276.67         38.0492
277.13        37.51356
277.58        37.01155
278.04        36.55304
278.49        36.04436
278.95        35.45019
279.40         34.7306
279.86        33.98915
280.31        33.25584
280.77        32.70687
281.22         32.3204
281.68        32.07772
282.13        31.90284
282.59        31.74684
283.04        31.56393
283.50        31.40476
283.95        31.20917
284.41        30.92724
284.86        30.54369
285.32        30.08514
285.77        29.65202
286.22        29.47048
286.68        29.54525
287.13        29.77695
287.59        29.96724
288.04        29.79453
288.50        29.24609
288.95         28.4231
289.41         27.5588
289.86         26.8844
290.32        26.52002
290.77        26.35956
291.22         26.3654
291.68        26.43998
292.13        26.54379
292.59        26.71453
293.04        26.93228
293.50        27.16717
293.95        27.40169
294.40        27.61168
294.86        27.81922
295.31        28.07299
295.77        28.38867
296.22        28.76138
296.68        29.14245
297.13        29.42182
297.58        29.59834
298.04         29.7192
298.49        29.89128
298.95        30.31991
299.40        31.01996
299.85        31.91286
300.31        32.83508
300.76        33.53943
301.21        33.94751
301.67        34.16352
302.12        34.24796
302.58        34.35645
303.03        34.51297
303.48        34.68373
303.94        34.91623
304.39        35.24454
304.84        35.66885
305.30        36.17607
305.75        36.63554
306.20        36.85799
306.66        36.83569
307.11        36.61129
307.57        36.34862
308.02        36.21187
308.47        36.27262
308.93        36.47533
309.38        36.73939
309.83         36.9718
310.29        37.12822
310.74        37.22626
311.19        37.27718
311.65        37.29411
312.10        37.27965
312.55        37.22819
313.00        37.11945
313.46        36.93676
313.91        36.67931
314.36        36.37853
314.82        36.11124
315.27        35.96989
315.72        35.97836
316.18        36.10238
316.63        36.26732
317.08        36.32647
317.53        36.23645
317.99        36.02573
318.44        35.77375
318.89         35.6118
319.35        35.55989
319.80        35.58401
320.25        35.58395
320.70        35.40073
321.16        35.01004
321.61         34.4766
322.06        33.91768
322.51        33.50679
322.97        33.27253
323.42        33.16862
323.87        33.11061
324.32        32.95921
324.78        32.67362
325.23        32.31437
325.68         31.9192
326.13        31.55181
326.59        31.23484
327.04        30.96599
327.49        30.76043
327.94        30.65244
328.39        30.64176
328.85        30.70669
329.30        30.82966
329.75        30.92691
330.20        30.96911
330.66        30.95365
331.11        30.90613
331.56        30.82537
332.01        30.71474
332.46         30.5554
332.92        30.37003
333.37        30.24602
333.82        30.19341
334.27          30.221
334.72        30.24907
335.17        30.13515
335.63        29.85255
336.08        29.44564
336.53         29.0658
336.98        28.96281
337.43        29.18027
337.88        29.64403
338.34        30.12679
338.79        30.30477
339.24        30.07348
339.69        29.52998
340.14        28.90704
340.59        28.61422
341.05        28.74947
341.50        29.17422
341.95        29.67434
342.40        29.93892
342.85        29.89317
343.30        29.65276
343.75        29.30409
344.20        28.99775
344.66        28.79777
345.11        28.61706
345.56        28.49346
346.01        28.48563
346.46        28.57946
346.91        28.78234
347.36        28.93026
347.81        28.75332
348.26        28.23098
348.72         27.4783
349.17        26.72925
349.62        26.45188
350.07        26.74351
350.52        27.43723
350.97        28.26666
351.42        28.82308
351.87        28.98907
352.32        28.88669
352.77        28.61296
353.22        28.32656
353.67        28.09406
354.13        27.86605
354.58         27.6523
355.03        27.51495
355.48        27.45743
355.93        27.48511
356.38        27.52974
356.83        27.46461
357.28        27.26185
357.73        26.95227
358.18        26.60935
358.63        26.35402
359.08        26.21778
359.53         26.1687
359.98        26.14093
360.43        26.03215
360.88        25.81965
361.33        25.53434
361.78        25.24956
362.23        25.08164
362.68         25.0501
363.13        25.10839
363.58        25.16516
364.03        25.08146
364.48        24.82849
364.93        24.45797
365.38        24.04863
365.83         23.7243
366.28        23.52634
366.73        23.42107
367.18        23.37597
367.63        23.33828
368.08        23.28316
368.53        23.22161
368.98        23.15893
369.43        23.09779
369.88        23.03962
370.33        22.98613
370.78        22.91176
371.23        22.78162
371.68        22.59605
372.13        22.36196
372.58        22.15948
373.03        22.12123
373.48        22.26445
373.93        22.54152
374.38        22.82004
374.83        22.89646
375.28        22.72936
375.72        22.37201
376.17        21.96394
376.62        21.69448
377.07         21.6202
377.52         21.6767
377.97        21.79163
378.42        21.84955
378.87         21.8102
379.32        21.71459
379.77         21.5821
380.22        21.43267
380.67        21.27859
381.11        21.11485
381.56        20.94381
382.01         20.7842
382.46        20.64435
382.91         20.5216
383.36        20.43124
383.81        20.39147
384.26        20.39851
384.71        20.44545
385.15        20.47757
385.60        20.42952
386.05        20.28268
386.50        20.05008
386.95        19.79934
387.40        19.65332
387.85        19.64144
388.29        19.71709
388.74        19.80767
389.19        19.78335
389.64        19.62535
390.09        19.36703
390.54        19.09497
390.98        18.95403
391.43        18.98757
391.88        19.13834
392.33        19.30124
392.78        19.32258
393.23        19.18221
393.67        18.92926
394.12        18.68615
394.57        18.55814
395.02         18.5687
395.47        18.67493
395.91        18.82339
396.36        18.89486
396.81        18.85941
397.26        18.74335
397.71        18.59649
398.15         18.4736
398.60        18.41528
399.05        18.40286
399.50        18.39138
399.95        18.26651
400.39        18.09936
400.84        17.85894
401.29        17.63706
401.74        17.56312
402.18        17.67753
402.63        17.91479
403.08        18.19187
403.53        18.37168
403.97        18.41417
404.42         18.3596
404.87        18.24169
405.32        18.12308
405.76        18.02882
406.21        17.94326
406.66         17.8783
407.11        17.85859
407.55        17.88823
408.00        17.96256
408.45        18.04106
408.90        18.03326
409.34        17.92082
409.79        17.73723
410.24        17.55925
410.68         17.4944
411.13        17.56532
411.58        17.73826
412.03        17.94965
412.47         18.0889
412.92        18.10432
413.37        18.02853
413.81        17.91028
414.26        17.84256
414.71        17.83951
415.15        17.87647
415.60        17.89737
416.05        17.83274
416.49        17.67142
416.94        17.45769
417.39        17.24123
417.83         17.1024
418.28        17.07218
418.73        17.11047
419.17        17.20362
419.62          17.327
420.07        17.46194
420.51        17.61376
420.96        17.72377
421.41        17.69219
421.85        17.50663
422.30        17.22796
422.74        16.94291
423.19        16.81326
423.64        16.85115
424.08        17.01762
424.53        17.23031
424.98        17.37276
425.42        17.40857
425.87         17.3641
426.31        17.26061
426.76        17.18138
427.21        17.12131
427.65        16.94236
428.10        16.75214
428.54        16.83226
428.99        17.19819
429.44        17.72674
429.88        18.19624
430.33        18.31998
430.77        18.05372
431.22        17.49801
431.66        16.88498
432.11        16.65707
432.56        16.86074
433.00        17.19829
433.45         17.4952
433.89         17.8789
434.34        18.14746
434.78        17.73513
435.23        16.97708
435.67        16.84282
436.12        17.28289
436.57        17.45957
437.01        17.29003
437.46        17.19276
437.90        17.19893
438.35        17.19302
438.79        17.15976
439.24        17.12445
439.68        17.09786
440.13        17.00531
440.57         16.9083
441.02        17.13016
441.46        17.54419
441.91        17.51774
442.35        17.10345
442.80        16.90556
443.24        16.89628
443.69        16.83701
444.13        16.70185
444.58        16.45516
445.02        16.18381
445.47        16.22637
445.91         16.4922
446.36         16.5351
446.80        16.31759
447.24        16.08522
447.69        15.91981
448.13        15.84079
448.58        15.87572
449.02        16.00815
449.47        16.16754
449.91        16.23896
450.36        16.19712
450.80        16.07262
451.25        15.93158
451.69        15.86605
452.13         15.9003
452.58         15.9887
453.02        16.09027
453.47         16.1407
453.91        16.12588
454.36        16.07804
454.80        16.00226
455.24        15.90335
455.69        15.80355
456.13        15.69357
456.58         15.6339
457.02        15.69116
457.46        15.87387
457.91        16.14748
458.35         16.4267
458.79        16.57017
459.24        16.55559
459.68        16.41047
460.13        16.22473
460.57        16.09889
461.01         16.0793
461.46        16.13039
461.90        16.20888
462.34        16.23667
462.79        16.19236
463.23        16.09913
463.68        16.01511
464.12        16.03645
464.56        16.18003
465.01          16.414
465.45        16.62504
465.89        16.71121
466.34        16.66556
466.78        16.43198
467.22        16.13954
467.67        16.16056
468.11        16.44633
468.55        16.50917
468.99        16.33041
469.44        16.21119
469.88        16.21803
470.32        16.39393
470.77        16.65135
471.21        16.72344
471.65        16.57429
472.10        16.38798
472.54         16.2379
472.98        16.18749
473.42        16.26506
473.87        16.45348
474.31        16.67612
474.75        16.80939
475.20        16.82796
475.64        16.75793
476.08        16.66716
476.52        16.65928
476.97        16.75779
477.41        16.93284
477.85        17.11028
478.29        17.20493
478.74        17.19837
479.18        17.03732
479.62        16.80941
480.06        16.92874
480.50        17.06824
480.95        17.25153
481.39        17.30429
481.83        17.31129
482.27        17.26252
482.72        17.04097
483.16         16.7604
483.60        16.80786
484.04        17.21687
484.48        17.48012
484.93        17.74303
485.37        18.19375
485.81        18.91318
486.25         18.8068
486.69        25.65493
487.14         20.6178
487.58        13.25749
488.02        15.88252
488.46        17.87467
488.90        17.98103
489.34        18.16155
489.79        18.11007
490.23        19.01161
490.67        19.52353
491.11        19.42879
491.55        19.35852
491.99        19.27182
492.43        19.11635
492.88        18.96938
493.32        19.00769
493.76        19.09645
494.20        19.29287
494.64        19.53137
495.08        19.80214
495.52        20.09563
495.96        20.40364
496.41        20.65862
496.85        20.87177
497.29        21.01057
497.73        20.72309
498.17        20.30231
498.61        20.48842
499.05        21.26947
499.49        21.42454
499.93        21.45429
500.37        21.52713
500.82        21.59761
501.26        21.83907
501.70        22.14304
502.14         22.3371
502.58        22.38637
503.02        22.44958
503.46        22.52821
503.90        22.50787
504.34        22.42334
504.78        22.38951
505.22        22.42561
505.66        22.50889
506.10        22.60201
506.54        22.64014
506.98        22.61207
507.42        22.54368
507.86        22.49559
508.30        22.55864
508.74        22.74498
509.18        23.01623
509.62        23.30173
510.06        23.48658
510.50        23.54076
510.94        23.50607
511.38        23.42485
511.82        23.36467
512.26         23.3515
512.70        23.35989
513.14        23.40157
513.58        23.49668
514.02        23.62962
514.46        23.78989
514.90        23.92448
515.34        23.91258
515.78        23.71114
516.22        23.50747
516.66        23.37804
517.10        23.01291
517.54        22.43629
517.98        23.19882
518.42        23.00636
518.86        23.33094
519.30        23.46881
519.74         23.6417
520.18        23.79801
520.62        23.82564
521.06        23.73884
521.50        23.54871
521.93        23.32603
522.37        23.19892
522.81        23.19857
523.25        23.28924
523.69        23.42262
524.13         23.5216
524.57        23.55952
525.01         23.5569
525.45          23.524
525.89        23.47763
526.32        23.42254
526.76        23.35084
527.20        23.26015
527.64        23.15846
528.08        23.05446
528.52        22.93209
528.96        22.79379
529.40         22.7024
529.83        22.67541
530.27        22.46877
530.71        22.51693
531.15         22.4457
531.59        22.38624
532.03        22.32558
532.46        22.30107
532.90        22.37174
533.34        22.52876
533.78        22.74369
534.22        22.93585
534.66        22.98944
535.09        22.87963
535.53        22.65342
535.97        22.38043
536.41        22.17745
536.85         22.0839
537.28        22.07523
537.72        22.11613
538.16        22.14795
538.60        22.15347
539.04        22.13469
539.47        22.12389
539.91        22.22334
540.35        22.41525
540.79        22.58727
541.22        22.70449
541.66        22.80579
542.10        22.88214
542.54        22.89067
542.97        22.88458
543.41        22.98602
543.85        23.20847
544.29        23.52565
544.72        23.84753
545.16         24.0437
545.60        24.08628
546.04        24.01003
546.47         23.9307
546.91        24.04223
547.35        24.36861
547.79         24.8503
548.22        25.33092
548.66        25.54582
549.10        25.46114
549.53        25.20611
549.97        24.94167
550.41        24.85076
550.84        24.99236
551.28        25.31788
551.72        25.74858
552.15        26.13875
552.59        26.42705
553.03        26.65172
553.46        26.81197
553.90        26.93026
554.34        27.02365
554.77        27.05302
555.21        27.04645
555.65        27.11521
556.08        27.28201
556.52        27.22909
556.96        27.57618
557.39        27.57393
557.83        27.73983
558.27        27.79817
558.70        27.87996
559.14        28.01485
559.57        28.19505
560.01        28.40981
560.45        28.59776
560.88         28.6692
561.32        28.63265
561.75        28.51954
562.19        28.40462
562.63        28.33609
563.06        28.34494
563.50         28.4697
563.93        28.67513
564.37         28.8699
564.80        29.02415
565.24        29.19166
565.68        29.35364
566.11        29.46913
566.55        29.55883
566.98         29.6222
567.42        29.70195
567.85        29.87681
568.29        30.17875
568.72         30.4636
569.16        30.72208
569.60         31.2115
570.03        31.55407
570.47        31.56932
570.90        31.34216
571.34        31.06238
571.77        31.45896
572.21        31.62855
572.64        31.82425
573.08        31.39514
573.51        30.50354
573.95        31.81691
574.38        33.81447
574.82        33.09852
575.25        32.99964
575.69        31.98965
576.12        31.16254
576.56        30.97273
576.99        31.65513
577.42        33.41526
577.86        33.44593
578.29        33.21389
578.73        35.04557
579.16         32.1038
579.60        29.12485
580.03        30.30567
580.47        32.38528
580.90        32.86293
581.33        32.36676
581.77        32.00718
582.20        35.26313
582.64        34.92023
583.07        29.81568
583.51        29.02955
583.94         28.1896
584.37        29.11293
584.81        30.26987
585.24        31.88923
585.68        32.86393
586.11        32.17309
586.54        29.81957
586.98        28.74916
587.41        29.02122
587.85        30.55862
588.28        31.55682
588.71        30.14626
589.15         29.0069
589.58        29.57065
590.01        29.61812
590.45        30.12863
590.88        30.34418
591.31        29.93507
591.75        29.62662
592.18        29.53323
592.61        30.08452
593.05        30.82026
593.48         32.3125
593.91        32.73496
594.35        30.14078
594.78        29.54341
595.21        29.42523
595.65        30.83943
596.08        32.15797
596.51        31.03587
596.94        30.23515
597.38        30.71949
597.81        32.26341
598.24        33.17279
598.68        32.78353
599.11        32.68545
599.54        34.32653
599.97        35.13337
600.41         33.5268
600.84         33.9325
601.27        34.78215
601.70         34.6175
602.14        34.86964
602.57        34.58168
603.00        35.27863
603.43        36.59314
603.87        38.04021
604.30         38.3722
604.73        37.60169
605.16        37.12532
605.60        38.13022
606.03        39.16266
606.46        40.20618
606.89        40.45408
607.32        39.83167
607.76        40.24537
608.19        41.74144
608.62        41.38281
609.05        40.85011
609.48        41.40141
609.92        41.68693
610.35        42.01273
610.78        43.67863
611.21        44.68542
611.64        42.85225
612.07        43.62251
612.50        44.21493
612.94        44.81055
613.37        44.74899
613.80         45.0262
614.23        45.68989
614.66        45.92329
615.09         46.3687
615.52        46.67593
615.96        46.92908
616.39        47.22445
616.82        46.74429
617.25        46.97454
617.68        47.59073
618.11        48.16288
618.54         48.5049
618.97        48.36801
619.40        48.03437
619.84        48.30887
620.27        49.10934
620.70        49.87223
621.13        50.44773
621.56        49.67341
621.99        49.25595
622.42        49.78957
622.85        51.29734
623.28        51.30479
623.71        50.93681
624.14        50.61443
624.57        50.65527
625.00        50.57113
625.43         50.5642
625.86        49.93961
626.29        49.75216
626.72        49.99459
627.15        49.66969
627.58         49.7589
628.01        49.81401
628.44        49.76546
628.87        49.58847
629.30        49.36873
629.73         49.1062
630.16        48.84285
630.59        48.43408
631.02        47.89631
631.45        47.33443
631.88        46.84695
632.31        46.47836
632.74        46.15299
633.17        45.83414
633.60        45.48266
634.03        45.08097
634.46        44.64214
634.89        44.18527
635.32        43.74286
635.75        43.32701
636.18        42.92873
636.61        42.53939
637.04        42.14345
637.47        41.73202
637.89        41.31227
638.32        40.88246
638.75        40.46797
639.18        40.08179
639.61        39.72905
640.04        39.39457
640.47        39.04804
640.90        38.68764
641.33        38.32172
641.76        37.97927
642.18        37.76399
642.61        37.68932
643.04        37.63832
643.47         37.5435
643.90        37.78299
644.33        37.55894
644.76        37.52798
645.18        37.48005
645.61        37.46944
646.04          37.502
646.47        37.55812
646.90        37.68563
647.33        37.93231
647.75        38.31567
648.18        38.85006
648.61        39.39805
649.04        39.75531
649.47        39.89484
649.89        39.74685
650.32        39.59343
650.75        40.08825
651.18        41.16962
651.61         42.1381
652.03        42.76225
652.46        43.13772
652.89        43.50764
653.32        43.61647
653.74        43.80052
654.17        44.99802
654.60        46.47714
655.03        45.07579
655.46        46.36174
655.88        49.61357
656.31        54.39149
656.74        129.9589
657.16        84.86015
657.59        29.70654
658.02        21.99276
658.45        37.90701
658.87        48.63671
659.30        51.49578
659.73        50.96896
660.15        49.86489
660.58        52.05049
661.01        53.64954
661.44        52.04809
661.86        51.75737
662.29        52.20335
662.72        53.26958
663.14        54.69622
663.57        54.85385
664.00        53.99717
664.42        54.02665
664.85        55.02962
665.27        55.78514
665.70        56.06511
666.13        56.20812
666.55        56.18631
666.98        55.90075
667.41        55.54674
667.83        55.48994
668.26        55.81186
668.69        56.37986
669.11        56.97188
669.54         57.5047
669.96        57.36839
670.39        57.10568
670.82        56.75862
671.24        56.70898
671.67         57.0549
672.09        57.56608
672.52        58.02792
672.94        58.69083
673.37        58.48034
673.80        58.43477
674.22        58.35101
674.65        58.36674
675.07        58.49974
675.50        58.55281
675.92        58.56863
676.35        58.77586
676.77        59.15831
677.20        59.48986
677.62        59.73666
678.05        59.94701
678.47        60.09944
678.90        60.16639
679.32         60.1899
679.75        60.15603
680.17        60.31549
680.60        60.44613
681.02        60.58385
681.45        60.61069
681.87        60.51604
682.30        60.45304
682.72        60.45342
683.15        60.31025
683.57        60.19546
684.00        60.60495
684.42         61.5537
684.85        62.09019
685.27        61.99282
685.70        61.85496
686.12        61.74171
686.54        61.71373
686.97        61.81115
687.39        62.03191
687.82        62.26742
688.24        62.38726
688.66        62.34497
689.09        62.17564
689.51        62.00362
689.94        62.04917
690.36        62.33751
690.78        62.69609
691.21        63.03326
691.63        63.30701
692.06        63.47373
692.48        63.50607
692.90        63.46247
693.33        63.47295
693.75        63.56302
694.17        63.68204
694.60        63.83087
695.02        63.96794
695.44        64.04182
695.87        64.33581
696.29        64.78379
696.71          64.499
697.14        63.76908
697.56        64.32796
697.98        65.86763
698.41        65.92245
698.83        65.14091
699.25        64.67295
699.68        64.80119
700.10        64.75626
700.52        64.56599
700.94        64.62465
701.37         64.8969
701.79        65.22913
702.21        65.54897
702.64        65.89382
703.06        66.17738
703.48        66.25399
703.90        66.12166
704.33        65.83485
704.75        65.49654
705.17        65.36096
705.59        65.49328
706.01        65.70454
706.44        65.93537
706.86        66.62212
707.28        66.81868
707.70        67.33455
708.12        67.76743
708.55        67.65733
708.97        67.09653
709.39        66.75352
709.81        66.74079
710.23        66.68992
710.66        66.63674
711.08        66.91187
711.50        67.35924
711.92        67.56576
712.34        67.46805
712.76         67.1715
713.19        66.85844
713.61        66.85221
714.03        67.20591
714.45        67.80581
714.87        68.40976
715.29         68.6441
715.71        68.43047
716.13        67.89861
716.56         67.2892
716.98        66.99638
717.40        67.11797
717.82        67.57078
718.24        68.18521
718.66        68.45462
719.08        68.62324
719.50         68.5073
719.92        68.30042
720.34        68.15395
720.76        68.12841
721.19        68.06078
721.61        68.13729
722.03        68.19831
722.45        68.29104
722.87        68.42036
723.29        68.59571
723.71        68.81448
724.13        69.05956
724.55        69.32085
724.97        69.55614
725.39        69.65744
725.81         69.6017
726.23        69.50845
726.65        69.46801
727.07        69.13149
727.49        69.31792
727.91        69.38419
728.33        69.51495
728.75        69.60315
729.17        69.62688
729.59        69.59699
730.01        69.57542
730.43           69.67
730.85        69.90341
731.27        70.27071
731.69        70.64465
732.10        70.80367
732.52         70.6966
732.94        70.41718
733.36        70.18094
733.78        70.17915
734.20        70.46368
734.62        71.34146
735.04        72.45826
735.46        72.40377
735.88        71.45708
736.30        71.50504
736.72        72.59645
737.13        73.22826
737.55        73.05195
737.97        73.03268
738.39        73.17641
738.81        72.23785
739.23        70.81853
739.65        71.71584
740.06        74.32884
740.48        74.78442
740.90        73.16941
741.32         71.8698
741.74         72.5863
742.16        72.72673
742.57        72.76987
742.99        73.47803
743.41         74.6057
743.83        75.27507
744.25        75.31849
744.67        74.97752
745.08         74.4967
745.50        74.28294
745.92        74.45917
746.34        74.86515
746.75        75.35535
747.17        75.66528
747.59        75.74781
748.01         75.7748
748.42        75.82813
748.84        75.91725
749.26        76.17657
749.68        76.66454
750.09        77.31253
750.51        78.21558
750.93        79.05495
751.35        78.80345
751.76        77.71698
752.18        77.32723
752.60        77.66787
753.01        77.63414
753.43        77.28348
753.85        77.42325
754.27        78.10019
754.68        79.03702
755.10        79.96825
755.52        80.57983
755.93        80.76337
756.35        80.60797
756.77        80.36916
757.18        80.33524
757.60        80.60461
758.02        81.41639
758.43        82.13271
758.85        82.12943
759.26        79.37041
759.68        79.02085
760.10        80.38751
760.51        81.34967
760.93        81.53182
761.34        79.95481
761.76        79.70696
762.18        78.95992
762.59        78.79845
763.01        78.90231
763.42        79.36312
763.84        80.41354
764.26        81.71227
764.67        82.07209
765.09        81.53123
765.50        81.37266
765.92        81.49287
766.33         80.4239
766.75        78.63129
767.16        77.90598
767.58        78.47058
768.00        79.78224
768.41        81.53269
768.83         82.9183
769.24         83.3405
769.66        82.88098
770.07        81.87572
770.49        79.98801
770.90        77.97488
771.32        78.98571
771.73         82.2171
772.15        82.09927
772.56        79.01069
772.97        78.24097
773.39        79.81476
773.80        80.47524
774.22        79.97219
774.63        79.98352
775.05        80.42645
775.46        80.63597
775.88        80.51415
776.29        80.14881
776.70        79.68393
777.12        79.48733
777.53        79.63293
777.95        79.93024
778.36        80.22887
778.77        80.24625
779.19        79.96687
779.60        79.58718
780.02        79.23235
780.43        79.05626
780.84        79.28458
781.26        79.57726
781.67        79.97516
782.09        81.61013
782.50        83.68074
782.91        82.73316
783.33        79.68996
783.74        78.66692
784.15        79.90105
784.57        80.78897
784.98         80.9342
785.39        80.82379
785.81        80.48454
786.22        80.12361
786.63        79.98605
787.04         80.1162
787.46        80.55505
787.87        81.43083
788.28         82.4516
788.70        82.95737
789.11        82.82204
789.52        82.28235
789.93        81.60034
790.35        81.12551
790.76        80.95999
791.17        81.03897
791.58        81.27668
792.00        81.39483
792.41        81.30231
792.82        81.36395
793.23        81.63281
793.65        81.16586
794.06        80.40337
794.47        81.69236
794.88        84.13876
795.29        84.00851
795.71        81.29979
796.12        79.00707
796.53        77.79385
796.94        77.35017
797.35        77.81027
797.76        79.16918
798.18        80.77859
798.59        81.78799
799.00        81.81022
799.41        80.88721
799.82        79.50563
800.23        78.63456
800.64        78.51122
801.06        78.76018
801.47        79.28231
801.88        79.81781
802.29        80.22701
802.70        80.60984
803.11        80.92805
803.52        81.06359
803.93        81.02167
804.34        80.85588
804.75        80.63891
805.17        80.50317
805.58        80.62119
805.99        80.82681
806.40        81.05218
806.81        81.89355
807.22        82.79581
807.63        81.71742
808.04        79.27287
808.45        78.25983
808.86        78.91032
809.27        79.77576
809.68        80.43247
810.09        80.77389
810.50        80.61442
810.91        80.01894
811.32        79.28665
811.73          78.893
812.14        78.96143
812.55        79.33123
812.96        79.87663
813.37        80.32235
813.78        80.57082
814.19        80.81892
814.60        80.93469
815.01        80.64242
815.42        79.94601
815.83         78.8976
816.24        77.90083
816.65        77.65295
817.05        78.35209
817.46        79.77921
817.87        81.34118
818.28        81.96346
818.69        81.37336
819.10        79.83551
819.51        78.07809
819.92        77.37762
820.33        78.05571
820.74        79.61575
821.14         81.3456
821.55        82.25005
821.96        81.92017
822.37        80.19997
822.78        77.88183
823.19        76.65794
823.60        76.85098
824.00        77.83051
824.41        79.07539
824.82        79.96906
825.23        80.18954
825.64        79.95882
826.04        79.52042
826.45        79.22465
826.86        79.17492
827.27        79.20607
827.68        79.25824
828.08        79.29697
828.49        79.23286
828.90        79.18166
829.31        79.09162
829.72        78.83775
830.12        78.45384
830.53        77.96687
830.94        77.59649
831.35        77.63793
831.75        78.17463
832.16         79.0561
832.57        80.08842
832.97         80.8424
833.38        81.09141
833.79        80.94787
834.20        80.60145
834.60        80.35506
835.01        80.31818
835.42        80.37751
835.82        80.42779
836.23        80.21677
836.64         79.7395
837.04        79.13545
837.45        78.53469
837.86        78.12929
838.26        77.98534
838.67        77.99384
839.08        78.15932
839.48        78.47018
839.89        78.84547
840.29        79.29076
840.70          79.633
841.11        79.59745
841.51        79.15975
841.92        78.37114
842.33        77.52357
842.73         77.1171
843.14         77.2401
843.54          77.805
843.95        78.46488
844.35        78.69867
844.76        78.36327
845.17        77.64601
845.57        76.86481
845.98        76.50651
846.38        76.68703
846.79        77.22836
847.19        77.91541
847.60        78.27991
848.00        78.22051
848.41        77.86214
848.81        77.43127
849.22         77.1854
849.62        77.25478
850.03        77.56332
850.43        78.04201
850.84        78.47661
851.24        78.82541
851.65        78.95869
852.05        79.12721
852.46        79.55621
852.86        80.27727
853.27        81.23871
853.67         81.8323
854.07        81.26549
854.48        79.55225
854.88         76.9791
855.29        74.51006
855.69        73.53613
856.10        74.33382
856.50        76.73372
856.90        79.83907
857.31        81.58279
857.71        81.31348
858.12         79.5706
858.52        77.42001
858.92        76.27962
859.33        76.44088
859.73        77.51727
860.13        79.08702
860.54        80.25566
860.94        80.72141
861.34         80.7334
861.75          80.493
862.15        80.41002
862.55        80.56994
862.96        80.76855
863.36        81.00833
863.76        81.27864
864.17        81.54166
864.57        81.90271
864.97        82.20309
865.38        82.16013
865.78        81.79694
866.18        81.10477
866.58        80.41853
866.99        80.30945
867.39        80.96825
867.79        82.28876
868.19        83.69637
868.60        84.09575
869.00        83.21306
869.40        81.36922
869.80        79.51696
870.21        79.15942
870.61        80.73156
871.01        83.75207
871.41        87.21929
871.81        89.42493
872.22        89.85399
872.62        89.00385
873.02        87.68055
873.42        87.27192
873.82        87.99068
874.22         89.1973
874.63        90.47443
875.03        91.00142
875.43        90.39297
875.83        89.64884
876.23        88.10105
876.63        87.57963
877.03        88.15842
877.44        90.03809
877.84        101.9903
878.24        96.74124
878.64        96.55408
879.04        95.44922
879.44        92.07985
879.84        90.17718
880.24        92.73215
880.64        94.23676
881.04        95.12518
881.44        95.62711
881.84        95.23222
882.24        94.17203
882.65        93.19537
883.05         93.0637
883.45        93.92171
883.85        95.68513
884.25        97.69377
884.65        98.64577
885.05        98.17312
885.45         96.7488
885.85        95.15147
886.25        94.43925
886.65        94.82962
887.05        95.97218
887.45        97.42467
887.85        98.39165
888.25         98.5725
888.65        98.24174
889.04        97.60332
889.44        97.01452
889.84        96.59731
890.24        96.21155
890.64        95.90873
891.04        95.79713
891.44        95.86348
891.84        96.11972
892.24        96.39768
892.64        96.35034
893.04         95.9607
893.44        95.42345
893.83        94.94924
894.23        94.86662
894.63        95.22234
895.03         95.8252
895.43        96.73017
895.83        98.01198
896.23        99.53812
896.63        101.2465
897.02        102.4995
897.42        102.2803
897.82        100.5145
898.22        97.63425
898.62        94.64042
899.01        92.99371
899.41        93.03001
899.81        94.25021
900.21        96.05215
900.61        97.42878
901.00        98.02169
901.40        98.15845
901.80        97.95679
902.20        97.59624
902.59        97.19469
902.99        96.62679
903.39        96.07876
903.79        95.92087
904.18        96.22882
904.58        96.96939
904.98        97.85621
905.38        98.41807
905.77          98.508
906.17        98.22591
906.57        97.79597
906.96        97.61078
907.36        97.69415
907.76         97.9594
908.15         98.1229
908.55        97.62022
908.95        96.42425
909.34        94.70864
909.74         93.0573
910.14        92.18608
910.53        92.29771
910.93        93.24435
911.33        94.58977
911.72        95.54242
912.12        95.77312
912.52        95.47425
912.91        95.07951
913.31        95.16253
913.70        95.87852
914.10        97.08791
914.49        98.33698
914.89        98.42983
915.29        97.06103
915.68        94.72951
916.08        92.60792
916.47        91.76467
916.87        92.31002
917.26        93.86919
917.66        95.68752
918.05        96.56039
918.45        96.14554
918.84        94.88167
919.24        93.45274
919.64        92.83269
920.03        93.29446
920.42        94.48987
920.82        96.00134
921.21        97.27781
921.61        97.91478
922.00        98.12673
922.40        97.90791
922.79        97.23328
923.19         96.2252
923.58        94.84385
923.98        93.28204
924.37        92.24326
924.77        92.17098
925.16        91.33656
925.55        92.63158
925.95        93.70926
926.34        95.30426
926.74        97.08717
927.13        98.72483
927.52        99.40826
927.92        99.06956
928.31        97.95144
928.70        96.36742
929.10        94.89338
929.49         93.7058
929.89        92.70804
930.28        92.16831
930.67         92.5238
931.07        93.66429
931.46         95.5193
931.85        97.29822
932.24        97.80703
932.64        96.83205
933.03        94.59269
933.42        91.68236
933.82        89.51785
934.21        88.56389
934.60        88.48683
934.99        88.81384
935.39        89.05239
935.78        89.11708
936.17        88.92538
936.56         88.1774
936.96        88.75386
937.35        87.20452
937.74        86.52168
938.13        86.13539
938.53        86.70759
938.92        88.25043
939.31        90.74088
939.70        93.53905
940.09        94.76838
940.49        93.75951
940.88        91.26247
941.27        88.52031
941.66        87.00112
942.05        86.92644
942.44        87.82576
942.84        89.26061
943.23        90.56096
943.62        91.33018
944.01         91.7431
944.40        91.85414
944.79        91.73753
945.18        91.41263
945.57        90.75513
945.97        89.67361
946.36        88.24364
946.75        86.80177
947.14        85.63494
947.53        84.91335
947.92        84.65517
948.31         84.7998
948.70        85.34017
949.09        86.23762
949.48        87.30795
949.87        88.35175
950.26        89.26364
950.65        89.99734
951.04        90.59034
951.43        91.04926
951.82        91.32803
952.21         91.2818
952.60        90.74696
952.99        89.74696
953.38        88.37366
953.77        87.00679
954.16        86.15813
954.55         85.9267
954.94        86.26472
955.33        86.68571
955.72        86.33981
956.11        85.06529
956.50        83.08955
956.89        81.22924
957.28        80.97667
957.66        82.78014
958.05        85.91626
958.44        89.32472
958.83        91.44276
959.22        91.84156
959.61        90.88316
960.00        89.17309
960.39        87.72556
960.78        86.87951
961.16        86.40475
961.55        85.87549
961.94        84.62376
962.33        82.63475
962.72        80.38046
963.11        78.48692
963.49        77.67618
963.88        78.04322
964.27        79.38126
964.66         81.2858
965.04        82.83426
965.43        83.45223
965.82        83.37775
966.21        82.95251
966.60        82.69524
966.98        82.76933
967.37        82.95975
967.76        83.15188
968.15        83.15245
968.53        82.90643
968.92        82.48551
969.31        82.06699
969.69         81.8142
970.08        81.76936
970.47        81.92545
970.86        82.05905
971.24        81.78738
971.63        81.02472
972.02        79.86086
972.40         78.7972
972.79        78.70885
973.17        79.92434
973.56        82.08929
973.95        84.50603
974.33        85.78291
974.72        85.41502
975.11        83.86515
975.49        81.93491
975.88        80.74751
976.26        80.48676
976.65        80.86226
977.04        81.39773
977.42         81.0031
977.81        79.37904
978.19         77.0747
978.58        75.32227
978.96        75.21529
979.35        76.90244
979.74        80.15028
980.12        84.42332
980.51        87.36334
980.89        88.23564
981.28        87.48345
981.66        85.99745
982.05        84.98206
982.43        84.68774
982.82        84.76642
983.20        85.18305
983.59        85.98756
983.97        87.20293
984.35        88.87675
984.74        90.54938
985.12        91.50323
985.51        91.11449
985.89         89.5246
986.28        87.02517
986.66          84.062
987.04        81.33013
987.43        79.08092
987.81        77.44276
988.20        76.42126
988.58        75.87483
988.96        75.65946
989.35        76.24074
989.73        78.67271
990.12         82.4587
990.50        86.58284
990.88          88.923
991.27        88.33345
991.65        85.36667
992.03        80.41301
992.42        75.18555
992.80        72.84523
993.18         74.2919
993.56         77.7377
993.95        81.59315
994.33        84.52856
994.71        86.11992
995.10        87.12339
995.48        87.18767
995.86        85.51865
996.24         82.0217
996.63        76.42831
997.01        70.18191
997.39        67.60413
997.77        70.57519
998.15         78.1097
998.54        86.45676
998.92        90.44553
999.30        88.56369
999.68        82.14159
1000.06        73.04973
1000.45        66.03104
1000.83        63.24347
1001.21        63.21294
1001.59         64.9901
1001.97        67.63653
1002.35        70.83826
1002.73         75.5858
1003.12        80.70177
1003.50        82.06528
1003.88        77.89252
1004.26        70.05248
1004.64        62.59095
1005.02        59.10665
1005.40        59.90171
1005.78        64.82299
1006.16        74.27761
1006.54        83.15988
1006.92        85.63116
1007.30        83.75807
1007.69        80.93489
1008.07        79.40347
1008.45        79.17947
1008.83        79.55527
1009.21        79.79544
1009.59        74.67372
1009.97        47.25232
1010.35       -5.703517
1010.73       -12.04961
1011.11        12.44437
1011.49        33.55719
1011.86        50.27437
1012.24        60.14665
1012.62        64.63558
1013.00        65.99813
1013.38        65.16198
1013.76        64.61479
1014.14        71.62971
1014.52        91.94001
1014.90        127.3673
1015.28        168.7734
1015.66        191.1319
1016.04        178.8355
1016.41         135.183
1016.79        84.37138
1017.17        54.32008
1017.55         46.0278
1017.93        47.62482
1018.31        52.38146
1018.69        56.81679
1019.06        60.88992
1019.44        65.78254
1019.82        74.01109
1020.20        89.51591
1020.58        117.7905
1020.95        169.6885
1021.33        276.1568
1021.71       -1117.484
1022.09        18.12171
1022.46        85.56917
1022.84        110.2528
1023.22        123.9779
1023.60        139.5237
1023.97        249.3174
1024.35        72.40262
1024.73        98.01939
