SpectraSmart Spectrum 2.9.0.0
--------- Device Information -----------
Spectrum Name :  反射率_0
Saving Time :  2024/04/26 00:36:35
Spectro-Module Model Name : SE2030-DUVN
Spectro-Module Serial Number : OS361AC55029948
Wavelength Start : 200
Wavelength End : 1025
Wavelength Unit : Wavelength(nm)
Spectrum Unit : Reflectance(%)
-----------Spectrum Setting ------------
Integration Time : 20ms
Average : 10
Boxcar : 0
Background removal :  enabled
linearity correction :  enabled
SC :  disabled
Intensity correction :  disabled
DWT denoise :  enabled
savitzky-golay :  disabled
FFT :  disabled
Running average :  disabled
Kalman :  disabled
High pass :  disabled
---------------BEGIN--------------------
Wavelength(nm)             Reflectance(%)
200.29               0
200.75        90.28088
201.21        83.22366
201.67        75.15646
202.13        70.02032
202.58         68.2954
203.04        69.25257
203.50        71.57075
203.96        72.97199
204.42        72.79828
204.88        71.81699
205.34         70.9388
205.80        71.14573
206.26        72.94379
206.72        77.34748
207.18        85.64806
207.64        91.40568
208.10        83.69804
208.55        71.58337
209.01        64.66486
209.47         63.1497
209.93        64.86172
210.39         69.1692
210.85        73.66023
211.31        73.15779
211.77        66.44726
212.23         55.5429
212.69        45.52582
213.14        44.23169
213.60        52.80008
214.06        68.98434
214.52        86.88064
214.98        97.37152
215.44        98.22096
215.90        92.36968
216.36        84.11272
216.81        79.44917
217.27        79.89981
217.73         83.2143
218.19        86.53201
218.65        86.22717
219.11          81.103
219.57        70.87661
220.02        57.31155
220.48        49.56165
220.94        52.80126
221.40        64.33595
221.86        75.32678
222.32        76.69943
222.77        69.55063
223.23        59.18862
223.69        50.55097
224.15        48.66988
224.61        53.01172
225.06         60.9349
225.52        69.19033
225.98        73.67062
226.44        73.52939
226.90        70.51527
227.36        66.52641
227.81        64.05242
228.27        64.02798
228.73        65.34646
229.19        67.28854
229.65        68.86234
230.10        69.67729
230.56        70.19888
231.02        70.55692
231.48        70.87172
231.93        71.14102
232.39        71.32201
232.85         71.3426
233.31        71.20697
233.77        70.90282
234.22        70.46712
234.68        69.86697
235.14        69.07484
235.60        68.17321
236.05        67.25824
236.51        66.46695
236.97        65.88744
237.43        65.51874
237.88        65.43304
238.34        65.50404
238.80        65.77645
239.26        66.20425
239.71        66.88393
240.17        67.49524
240.63        68.09909
241.08        68.77825
241.54        69.42982
242.00        70.12501
242.46        71.00308
242.91        72.55682
243.37        75.47832
243.83        84.45642
244.28        117.3747
244.74        161.0959
245.20        144.5727
245.66        125.6811
246.11         120.212
246.57        122.7501
247.03        135.5934
247.48        169.2991
247.94        132.2756
248.40        91.11312
248.85        80.62128
249.31        78.41746
249.77        79.11674
250.22        81.66995
250.68         86.6531
251.14        93.70085
251.59        97.40308
252.05        93.17164
252.51        83.59995
252.96        74.37876
253.42        71.03918
253.88        72.86242
254.33        77.76646
254.79        83.81386
255.25        87.72528
255.70        88.89523
256.16        89.02053
256.62        88.54997
257.07        87.80885
257.53        87.18924
257.99        85.91571
258.44        84.26909
258.90        83.63723
259.35        83.16013
259.81        82.81583
260.27        81.38282
260.72        77.62424
261.18        72.43925
261.63        66.36041
262.09        61.01244
262.55        57.55585
263.00        55.84487
263.46        55.36089
263.91        55.06679
264.37        54.21527
264.83        52.59972
265.28        50.41529
265.74        48.26772
266.19        46.78142
266.65        46.21409
267.11        46.18892
267.56        46.18288
268.02        45.61991
268.47        44.36438
268.93        42.64046
269.38        40.78857
269.84        39.61061
270.30        39.31729
270.75        39.68077
271.21        40.23038
271.66        40.26065
272.12        39.60159
272.57        38.46469
273.03        37.27124
273.48         36.5594
273.94        36.46853
274.39        36.74706
274.85        37.05632
275.31        36.88383
275.76        36.12556
276.22        35.01812
276.67        33.83466
277.13        33.07365
277.58        32.77042
278.04        32.78926
278.49        32.84308
278.95        32.61948
279.40        32.01844
279.86        31.22384
280.31        30.36371
280.77         29.7511
281.22        29.40053
281.68        29.23737
282.13        29.12441
282.59        28.92616
283.04        28.59281
283.50        28.21646
283.95        27.81667
284.41        27.44875
284.86        27.12233
285.32        26.82923
285.77        26.59624
286.22        26.53401
286.68        26.62463
287.13        26.80625
287.59        26.94864
288.04        26.84094
288.50        26.47569
288.95         25.8981
289.41        25.26727
289.86        24.71322
290.32        24.33549
290.77        24.08076
291.22        23.93925
291.68        23.85322
292.13        23.80943
292.59         23.8307
293.04        23.94643
293.50        24.20366
293.95        24.58511
294.40        25.03755
294.86        25.48234
295.31        25.81078
295.77         26.0066
296.22        26.11312
296.68        26.17531
297.13        26.24002
297.58        26.35612
298.04         26.5308
298.49        26.81564
298.95        27.32492
299.40        28.04929
299.85        28.94017
300.31        29.86967
300.76        30.64405
301.21        31.18772
301.67        31.56743
302.12        31.80342
302.58        31.99463
303.03        32.15839
303.48        32.28702
303.94        32.44888
304.39        32.71175
304.84        33.08834
305.30        33.55195
305.75        33.99163
306.20        34.24487
306.66        34.30138
307.11        34.20201
307.57        34.05633
308.02        33.94856
308.47         33.9428
308.93        34.01094
309.38        34.14665
309.83         34.3749
310.29        34.66836
310.74        34.99487
311.19        35.29167
311.65        35.46096
312.10        35.47499
312.55        35.36486
313.00        35.13674
313.46        34.81873
313.91        34.43743
314.36        34.01648
314.82        33.65511
315.27         33.4813
315.72        33.52134
316.18        33.73547
316.63        34.01926
317.08        34.17018
317.53        34.12759
317.99        33.93262
318.44        33.67941
318.89         33.5266
319.35        33.50407
319.80        33.56515
320.25         33.6087
320.70        33.47723
321.16        33.13913
321.61        32.65365
322.06        32.12922
322.51        31.72273
322.97        31.46334
323.42        31.31983
323.87        31.20308
324.32        30.96758
324.78        30.58102
325.23         30.1024
325.68         29.6252
326.13        29.30163
326.59         29.1623
327.04        29.17468
327.49        29.24889
327.94         29.2416
328.39        29.10898
328.85        28.88019
329.30        28.64368
329.75        28.50924
330.20        28.51246
330.66        28.59805
331.11        28.72546
331.56         28.7849
332.01        28.73911
332.46        28.60193
332.92        28.41046
333.37        28.26881
333.82        28.19866
334.27        28.19479
334.72        28.17601
335.17        28.00751
335.63        27.66957
336.08        27.21324
336.53        26.80606
336.98        26.71611
337.43        26.98753
337.88         27.5376
338.34        28.11648
338.79         28.3614
339.24        28.15566
339.69         27.6046
340.14        26.95125
340.59        26.62619
341.05          26.738
341.50        27.14463
341.95        27.63509
342.40        27.90345
342.85        27.87257
343.30        27.65411
343.75         27.3305
344.20        27.04276
344.66         26.8495
345.11        26.66809
345.56        26.52402
346.01        26.45807
346.46        26.45924
346.91        26.54367
347.36        26.58343
347.81         26.3638
348.26        25.87541
348.72        25.21996
349.17        24.59094
349.62        24.38747
350.07        24.68941
350.52         25.3492
350.97        26.13733
351.42        26.70429
351.87        26.94219
352.32        26.94532
352.77        26.77832
353.22        26.55151
353.67         26.3169
354.13        26.04398
354.58        25.75438
355.03        25.52628
355.48        25.37696
355.93        25.31381
356.38        25.28414
356.83        25.18566
357.28        24.99408
357.73        24.73134
358.18        24.46038
358.63         24.2823
359.08        24.21801
359.53        24.23904
359.98        24.26385
360.43         24.1678
360.88        23.92884
361.33        23.58444
361.78        23.24093
362.23        23.07027
362.68        23.10102
363.13        23.26573
363.58        23.43838
364.03        23.42438
364.48        23.18019
364.93        22.77757
365.38        22.30838
365.83          21.918
366.28        21.66037
366.73        21.49587
367.18        21.40882
367.63        21.37399
368.08        21.36872
368.53        21.39685
368.98        21.43314
369.43         21.4309
369.88        21.38016
370.33        21.29421
370.78        21.17221
371.23        21.02309
371.68        20.85888
372.13        20.67149
372.58        20.52084
373.03        20.50644
373.48        20.63535
373.93        20.87271
374.38        21.09987
374.83         21.1317
375.28        20.93512
375.72        20.56201
376.17        20.14923
376.62        19.88095
377.07        19.81433
377.52        19.88813
377.97        20.04039
378.42        20.17022
378.87        20.23306
379.32        20.25531
379.77        20.23452
380.22          20.163
380.67        20.04622
381.11        19.88618
381.56         19.6936
382.01        19.50187
382.46        19.32768
382.91        19.16871
383.36        19.04331
383.81        18.97356
384.26        18.95825
384.71        18.99173
385.15        19.02256
385.60        18.98726
386.05        18.86423
386.50        18.66152
386.95        18.43629
387.40        18.29288
387.85        18.26075
388.29        18.30942
388.74        18.36897
389.19        18.31706
389.64        18.13794
390.09        17.85723
390.54         17.5845
390.98        17.50234
391.43        17.65031
391.88        17.95318
392.33        18.24482
392.78        18.28306
393.23        18.04296
393.67        17.61426
394.12        17.18596
394.57        16.95664
395.02        16.96922
395.47        17.15532
395.91        17.42284
396.36        17.58341
396.81         17.5777
397.26        17.44732
397.71         17.2689
398.15        17.13791
398.60        17.10217
399.05        17.13094
399.50        17.14648
399.95        16.99443
400.39        16.73648
400.84        16.35791
401.29         16.0036
401.74        15.89959
402.18        16.10866
402.63         16.5371
403.08        17.01701
403.53        17.28003
403.97        17.25819
404.42        17.03058
404.87        16.71261
405.32        16.50676
405.76        16.47381
406.21         16.5468
406.66        16.66612
407.11        16.75709
407.55        16.79906
408.00        16.81768
408.45        16.80765
408.90        16.74404
409.34        16.63092
409.79        16.47616
410.24        16.32877
410.68         16.2583
411.13        16.28097
411.58        16.38507
412.03        16.52435
412.47        16.61564
412.92        16.62078
413.37        16.55887
413.81        16.48419
414.26        16.49902
414.71        16.61064
415.15        16.78787
415.60        16.93623
416.05        16.92576
416.49        16.73213
416.94        16.41384
417.39         16.0648
417.83        15.84373
418.28         15.8049
418.73        15.88951
419.17         16.0444
419.62        16.18216
420.07        16.27203
420.51        16.34109
420.96        16.36721
421.41        16.31015
421.85        16.16895
422.30        15.97531
422.74        15.78113
423.19        15.70015
423.64        15.73649
424.08        15.87012
424.53        16.03226
424.98        16.13021
425.42        16.13797
425.87        16.07059
426.31        15.96115
426.76        15.90915
427.21        15.91028
427.65        15.83443
428.10        15.74063
428.54        15.82114
428.99        16.08248
429.44         16.4376
429.88         16.7399
430.33        16.81076
430.77        16.61992
431.22        16.22451
431.66        15.79618
432.11        15.66682
432.56        15.85945
433.00        16.18706
433.45        16.48896
433.89        16.70914
434.34        16.75331
434.78        16.49249
435.23        16.13708
435.67        16.15087
436.12        16.47166
436.57        16.54402
437.01         16.3295
437.46        16.17608
437.90        16.12948
438.35        16.09164
438.79        16.04907
439.24        16.02703
439.68         16.0303
440.13        15.98701
440.57        15.93571
441.02        16.14274
441.46         16.4818
441.91        16.39376
442.35        15.95394
442.80        15.70881
443.24        15.66325
443.69        15.70158
444.13        15.75933
444.58         15.6278
445.02         15.3657
445.47        15.37791
445.91        15.60534
446.36        15.63897
446.80        15.45259
447.24         15.2705
447.69        15.14762
448.13        15.06774
448.58        15.05146
449.02        15.09742
449.47        15.16297
449.91        15.17735
450.36        15.12697
450.80        15.02862
451.25        14.93004
451.69        14.89332
452.13        14.93609
452.58        15.02752
453.02        15.13202
453.47        15.19283
453.91        15.19823
454.36        15.16832
454.80        15.12125
455.24        15.08609
455.69        15.07901
456.13        15.07842
456.58        15.09726
457.02        15.13314
457.46        15.19036
457.91        15.26586
458.35        15.33434
458.79        15.34768
459.24        15.30954
459.68        15.22133
460.13         15.1395
460.57        15.11271
461.01        15.16736
461.46        15.27965
461.90        15.41069
462.34        15.48982
462.79        15.49557
463.23        15.43885
463.68        15.36995
464.12        15.37696
464.56        15.47857
465.01        15.65472
465.45        15.80069
465.89        15.81882
466.34        15.70801
466.78         15.4212
467.22        15.09943
467.67         15.1204
468.11        15.44425
468.55        15.60373
468.99        15.55187
469.44        15.52869
469.88        15.58334
470.32        15.76525
470.77        16.00138
471.21        16.05648
471.65         15.9048
472.10        15.71888
472.54         15.5656
472.98        15.50247
473.42        15.55645
473.87        15.71309
474.31        15.90962
474.75        16.04047
475.20        16.08246
475.64        16.05829
476.08        16.01068
476.52        16.00495
476.97        16.05933
477.41        16.15481
477.85        16.25549
478.29         16.3377
478.74        16.39405
479.18        16.35229
479.62        16.25108
480.06        16.42407
480.50        16.53911
480.95        16.63902
481.39        16.59191
481.83        16.53517
482.27        16.47252
482.72        16.27787
483.16        16.04506
483.60        16.10081
484.04        16.42529
484.48        16.67924
484.93        17.06232
485.37        17.38896
485.81         17.5965
486.25        18.50547
486.69        24.22852
487.14        19.50471
487.58        12.66474
488.02          15.385
488.46        17.51465
488.90        17.56821
489.34        17.51285
489.79        17.28971
490.23        18.12991
490.67        18.76654
491.11        18.90863
491.55        18.88422
491.99        18.65059
492.43        18.44976
492.88        18.36315
493.32        18.34118
493.76        18.29272
494.20        18.45986
494.64        18.79742
495.08        19.23554
495.52        19.69672
495.96        20.08123
496.41        20.30235
496.85        20.37569
497.29        20.34011
497.73        20.03771
498.17        19.74193
498.61        19.97544
499.05        20.71636
499.49        20.90589
499.93        21.02452
500.37        21.14788
500.82        21.22494
501.26          21.462
501.70        21.75328
502.14          21.916
502.58        21.92648
503.02        21.95955
503.46        22.02301
503.90        22.00768
504.34        21.93815
504.78        21.90769
505.22        21.93157
505.66        21.99377
506.10        22.08204
506.54        22.15007
506.98        22.18485
507.42        22.24026
507.86        22.35077
508.30        22.35002
508.74        22.58822
509.18        22.76624
509.62        22.94917
510.06        23.06742
510.50        23.11073
510.94        23.10152
511.38        23.06333
511.82        23.04377
512.26        23.05807
512.70         23.0842
513.14        23.12688
513.58        23.22114
514.02        23.35803
514.46        23.47516
514.90         23.5079
515.34        23.59184
515.78        23.25262
516.22        23.02858
516.66        22.88329
517.10        22.53945
517.54        22.02103
517.98        22.88276
518.42        22.79333
518.86        23.17859
519.30        23.32275
519.74        23.45971
520.18        23.56687
520.62        23.58105
521.06        23.52728
521.50        23.40001
521.93         23.2421
522.37        23.13615
522.81         23.1031
523.25        23.12605
523.69        23.17959
524.13        23.21995
524.57        23.23064
525.01        23.22134
525.45        23.19653
525.89        23.16316
526.32        23.12222
526.76        23.07255
527.20        23.00517
527.64        22.91676
528.08        22.81365
528.52        22.67679
528.96        22.52515
529.40        22.44942
529.83        22.46759
530.27        22.32622
530.71        22.42375
531.15        22.33705
531.59        22.19041
532.03        21.99331
532.46        21.81997
532.90         21.7916
533.34        21.91856
533.78        22.15148
534.22        22.39536
534.66        22.51068
535.09        22.46111
535.53        22.30286
535.97        22.08556
536.41        21.89442
536.85        21.76485
537.28        21.67458
537.72        21.63073
538.16        21.64573
538.60        21.71526
539.04        21.82301
539.47        21.93997
539.91        22.07442
540.35        22.19317
540.79        22.21402
541.22        22.17373
541.66         22.2215
542.10        22.37019
542.54        22.53945
542.97        22.70852
543.41        22.88445
543.85        23.05489
544.29        23.23381
544.72        23.39209
545.16         23.4926
545.60        23.53342
546.04        23.51955
546.47        23.52898
546.91        23.69768
547.35        24.03214
547.79        24.49144
548.22        24.94281
548.66         25.1564
549.10        25.10543
549.53        24.90404
549.97        24.69013
550.41         24.6138
550.84        24.72959
551.28        25.00452
551.72        25.38452
552.15        25.76402
552.59        26.09048
553.03        26.38325
553.46        26.62617
553.90        26.82064
554.34        26.97579
554.77        27.05855
555.21        27.07967
555.65        27.14439
556.08        27.28046
556.52        27.13598
556.96        27.35343
557.39        27.42783
557.83         27.5559
558.27        27.70999
558.70        27.88927
559.14        28.07353
559.57        28.23815
560.01         28.3949
560.45        28.51243
560.88        28.53485
561.32        28.48106
561.75        28.38227
562.19        28.29841
562.63        28.22196
563.06        28.19505
563.50         28.3427
563.93        28.60907
564.37        28.80121
564.80        28.88428
565.24        28.96326
565.68         29.0488
566.11        29.12509
566.55        29.22088
566.98        29.33158
567.42        29.47406
567.85        29.66676
568.29        29.92872
568.72        30.17145
569.16        30.43759
569.60        30.84516
570.03        31.23627
570.47        31.37792
570.90        31.42312
571.34        30.88983
571.77        31.39819
572.21        31.71367
572.64        31.76236
573.08        31.24747
573.51         30.1939
573.95         31.5619
574.38        33.81113
574.82        32.82182
575.25        32.70317
575.69        31.57187
576.12        30.89908
576.56        30.67108
576.99         31.4587
577.42        32.94803
577.86        33.00632
578.29        32.75284
578.73        34.62499
579.16        31.79878
579.60        28.94619
580.03        30.13025
580.47        32.04805
580.90        32.56972
581.33         32.2199
581.77        31.31026
582.20        34.63268
582.64        34.45417
583.07         29.2523
583.51        28.57058
583.94        27.87224
584.37        28.99582
584.81         30.1571
585.24        31.68153
585.68        32.50776
586.11        31.72029
586.54        29.55889
586.98        28.52519
587.41        28.90373
587.85        30.14464
588.28        31.19966
588.71        29.54309
589.15         28.7066
589.58        29.15001
590.01        29.36473
590.45         29.9729
590.88        30.00547
591.31        29.58747
591.75        29.35929
592.18        29.37853
592.61        29.97459
593.05        30.88801
593.48        32.19074
593.91        32.33493
594.35        29.75018
594.78         29.1693
595.21        29.18501
595.65         30.6571
596.08        31.95834
596.51        30.85855
596.94        30.07673
597.38        30.59094
597.81        32.19721
598.24        32.87269
598.68        32.34956
599.11        32.52575
599.54        34.09462
599.97        35.00613
600.41        33.25223
600.84         33.6874
601.27        34.70964
601.70        34.39533
602.14        34.67638
602.57         34.5343
603.00        35.28537
603.43        36.54349
603.87        37.80061
604.30        37.96506
604.73          37.242
605.16        37.03254
605.60        37.98472
606.03        39.11506
606.46        40.12615
606.89        40.50477
607.32        39.64994
607.76        40.01901
608.19        41.56655
608.62        41.30059
609.05        40.91657
609.48         41.4466
609.92        41.47728
610.35        42.11435
610.78        43.85647
611.21        44.19667
611.64        42.89143
612.07        43.60781
612.50        44.20173
612.94        44.80225
613.37        44.76331
613.80        45.08236
614.23        45.77145
614.66        45.90904
615.09        46.19024
615.52        46.52377
615.96        46.95141
616.39        47.30111
616.82        46.74125
617.25        46.84249
617.68        47.34237
618.11        48.01144
618.54        48.60282
618.97        48.49813
619.40        47.95999
619.84          48.113
620.27        48.93171
620.70        49.63975
621.13         50.0314
621.56        49.63914
621.99        48.74979
622.42        49.32935
622.85        51.02254
623.28        50.83528
623.71         50.3127
624.14        50.36086
624.57        50.18674
625.00        50.08638
625.43         50.0813
625.86        49.53086
626.29        49.50158
626.72        49.62735
627.15        49.32706
627.58        49.28423
628.01         49.2176
628.44        49.17535
628.87        49.06747
629.30        48.95443
629.73        48.83933
630.16        48.71185
630.59        48.18806
631.02        47.62765
631.45        47.00483
631.88        46.48285
632.31        46.09127
632.74        45.77458
633.17        45.49567
633.60        45.18634
634.03         44.8205
634.46        44.44301
634.89        44.04801
635.32        43.56979
635.75        43.04177
636.18        42.59019
636.61        42.21487
637.04        41.80598
637.47        41.35697
637.89        40.94071
638.32        40.54739
638.75        40.15112
639.18        39.75924
639.61        39.39341
640.04        39.04799
640.47        38.70753
640.90        38.37297
641.33        38.04222
641.76         37.7395
642.18        37.56228
642.61        37.51943
643.04        37.49689
643.47        37.41733
643.90        37.64213
644.33        37.37603
644.76        37.27769
645.18        37.16104
645.61        37.11811
646.04        37.16283
646.47        37.26619
646.90        37.44857
647.33        37.70985
647.75        38.05587
648.18        38.52105
648.61        38.99356
649.04        39.29136
649.47        39.39564
649.89        39.27898
650.32        39.20979
650.75        39.69027
651.18        40.70267
651.61        41.86219
652.03        42.84683
652.46        43.31257
652.89        43.51808
653.32        43.55095
653.74        43.67932
654.17        45.28357
654.60         45.8515
655.03        44.87523
655.46        45.91502
655.88        49.17869
656.31        53.82641
656.74        126.5063
657.16        81.94798
657.59         28.8415
658.02        21.73306
658.45        37.80165
658.87        48.15263
659.30        51.12667
659.73        50.80787
660.15        49.44785
660.58        51.47783
661.01        53.16589
661.44        52.01516
661.86        51.74599
662.29        51.84765
662.72        52.75164
663.14        54.24186
663.57        54.45836
664.00        53.60792
664.42         53.5905
664.85        54.48694
665.27        55.12438
665.70        55.31093
666.13        55.39739
666.55        55.36684
666.98        55.12593
667.41         54.8409
667.83        54.82347
668.26        55.13574
668.69        55.65332
669.11        56.18216
669.54        56.66074
669.96        56.49892
670.39         56.2855
670.82        56.01013
671.24        55.85703
671.67        56.00177
672.09        56.41213
672.52        57.10959
672.94        57.92286
673.37        57.79966
673.80        57.73408
674.22        57.54577
674.65        57.49208
675.07        57.59859
675.50         57.5923
675.92        57.51966
676.35        57.62138
676.77         57.9111
677.20        58.26533
677.62        58.62269
678.05         58.8535
678.47        58.91134
678.90        58.90388
679.32         58.9271
679.75        58.72267
680.17        58.98661
680.60         59.1966
681.02        59.46716
681.45        59.43977
681.87        59.16143
682.30        59.13687
682.72        59.36218
683.15        59.28825
683.57        59.06274
684.00        59.37543
684.42        60.29326
684.85        60.74767
685.27        60.70657
685.70        60.62124
686.12        60.56002
686.54        60.50896
686.97        60.50627
687.39        60.54781
687.82        60.57876
688.24        60.63815
688.66         60.7195
689.09        60.52123
689.51        60.65088
689.94        60.74677
690.36        60.98737
690.78        61.32426
691.21        61.66894
691.63        61.87459
692.06        61.90706
692.48        61.82214
692.90        61.71612
693.33        61.73072
693.75        61.90003
694.17        62.18281
694.60        62.50756
695.02         62.7225
695.44         62.7562
695.87        62.85371
696.29        63.02223
696.71        62.73956
697.14        62.27309
697.56        62.80375
697.98        63.98172
698.41        64.42393
698.83        63.42171
699.25         63.0188
699.68        63.10411
700.10         63.0494
700.52        62.88019
700.94         62.9633
701.37        63.27651
701.79        63.64426
702.21         63.9912
702.64        64.38155
703.06        64.71997
703.48        64.74716
703.90        64.61407
704.33        64.25133
704.75        63.83884
705.17        63.67395
705.59        63.82936
706.01        64.10755
706.44        64.39773
706.86        65.03284
707.28        65.07522
707.70        65.37807
708.12        65.61662
708.55        65.38304
708.97        64.81612
709.39         64.6629
709.81        64.95717
710.23        65.09176
710.66        65.05009
711.08         65.2569
711.50        65.60934
711.92        65.74815
712.34        65.63512
712.76        65.36401
713.19        65.07223
713.61        65.01247
714.03        65.22947
714.45        65.63699
714.87        66.07209
715.29        66.28201
715.71        66.20776
716.13        65.93455
716.56        65.59532
716.98         65.4323
717.40         65.5042
717.82        65.73198
718.24        66.02605
718.66        66.23687
719.08        66.31593
719.50        66.31183
719.92        66.24127
720.34        66.17619
720.76        66.14925
721.19        65.97913
721.61        65.89244
722.03        66.07459
722.45        66.15005
722.87        66.45082
723.29        66.77295
723.71        66.99685
724.13        67.08114
724.55        67.06106
724.97        67.00172
725.39        67.00411
725.81        67.09547
726.23        67.23932
726.65        67.39067
727.07        67.47836
727.49        67.48949
727.91        67.46396
728.33         67.4276
728.75          67.416
729.17        67.44161
729.59        67.48984
730.01        67.58548
730.43         67.7354
730.85        67.95042
731.27        68.30453
731.69        68.67632
732.10        68.79443
732.52        68.62064
732.94          68.288
733.36        67.99284
733.78        67.92092
734.20        68.12514
734.62         68.7859
735.04        69.72849
735.46         69.7597
735.88         69.1143
736.30        69.38822
736.72        70.52924
737.13        70.94955
737.55        70.43027
737.97        70.26637
738.39          70.519
738.81        69.89771
739.23        68.82398
739.65        69.68479
740.06         71.9453
740.48        72.18223
740.90        70.46819
741.32         69.5524
741.74        69.74841
742.16        69.84232
742.57        69.91478
742.99        70.69052
743.41        71.89654
743.83        72.60142
744.25        72.66329
744.67        72.44105
745.08        72.14431
745.50        72.00085
745.92        72.12019
746.34        72.43378
746.75        72.83183
747.17        73.09652
747.59        73.20431
748.01        73.25008
748.42        73.30595
748.84        73.53767
749.26        73.99548
749.68        74.34522
750.09        74.60548
750.51         75.4166
750.93        76.47053
751.35        76.34828
751.76        75.27531
752.18        74.93623
752.60         75.3502
753.01        75.35768
753.43        74.99644
753.85        74.99181
754.27        75.47163
754.68        76.15573
755.10         76.8775
755.52        77.26515
755.93        77.32526
756.35        77.51254
756.77        77.89358
757.18        78.09115
757.60        78.11368
758.02        78.47283
758.43        78.88252
758.85        78.53675
759.26        76.93501
759.68        76.84747
760.10        77.79866
760.51        78.31684
760.93        78.15707
761.34        76.42821
761.76        77.09659
762.18        76.50712
762.59        76.11322
763.01         75.7534
763.42        77.02719
763.84        77.73824
764.26        78.15032
764.67        78.24089
765.09        78.05515
765.50        78.11436
765.92        78.24041
766.33        77.22876
766.75        75.47389
767.16         74.9258
767.58        75.10198
768.00          76.428
768.41        78.38097
768.83        79.83592
769.24        80.13992
769.66        79.99139
770.07        78.56912
770.49        77.14334
770.90        75.84821
771.32        76.61844
771.73        78.80148
772.15        78.35457
772.56        75.75874
772.97        75.29454
773.39        76.80504
773.80        77.79546
774.22        76.74455
774.63        76.63091
775.05        77.05894
775.46        77.25556
775.88        77.13857
776.29        76.94838
776.70        76.77732
777.12        76.77444
777.53        76.98048
777.95        77.26993
778.36        77.52006
778.77        77.52071
779.19        77.28054
779.60        76.88834
780.02         76.4756
780.43        76.39976
780.84        76.79279
781.26         76.9043
781.67        76.85367
782.09        78.27088
782.50        80.41514
782.91        79.66578
783.33        76.75104
783.74        75.79697
784.15        76.98006
784.57        77.76184
784.98        77.80441
785.39        77.62601
785.81        77.28736
786.22        77.08282
786.63        77.16735
787.04        77.29967
787.46        77.54008
787.87          78.314
788.28        79.37784
788.70        79.86191
789.11        79.64073
789.52        79.24043
789.93         78.7834
790.35        78.02424
790.76        77.22333
791.17        77.07891
791.58        77.54832
792.00        78.00008
792.41        78.19025
792.82        78.16226
793.23        78.07079
793.65        77.69273
794.06          77.397
794.47        78.76412
794.88        80.93672
795.29        80.65613
795.71        78.11971
796.12        75.89301
796.53        74.66428
796.94         74.0595
797.35        74.29336
797.76        75.70655
798.18        77.61526
798.59        78.78465
799.00        78.80326
799.41        77.74922
799.82        76.50466
800.23        75.69822
800.64        75.66981
801.06        76.05325
801.47        76.70512
801.88        77.23769
802.29        77.48352
802.70        77.78181
803.11        77.79157
803.52        77.75074
803.93        77.59336
804.34        77.30623
804.75         76.9998
805.17        76.97139
805.58        77.32377
805.99        77.67591
806.40        77.91161
806.81         78.5784
807.22        79.23362
807.63        78.22588
808.04        76.09605
808.45        75.16202
808.86        75.63265
809.27        76.33749
809.68        76.94227
810.09        77.34459
810.50        77.37735
810.91        77.10527
811.32        76.68542
811.73        76.36637
812.14        76.22687
812.55        76.15476
812.96        76.18571
813.37        76.38064
813.78        76.71839
814.19        77.22284
814.60        77.64506
815.01        77.59183
815.42        77.01218
815.83         75.9865
816.24        74.92363
816.65        74.54551
817.05        75.07327
817.46        76.27116
817.87        77.62722
818.28        78.21262
818.69        77.77898
819.10        76.56269
819.51        75.16805
819.92        74.62246
820.33        75.18198
820.74        76.50375
821.14        77.98441
821.55        78.59545
821.96        78.08814
822.37        76.73671
822.78        75.12021
823.19        74.18137
823.60        74.15212
824.00        74.75439
824.41        75.61482
824.82         76.2368
825.23        76.38717
825.64        76.25321
826.04        75.96533
826.45        75.69837
826.86        75.51557
827.27        75.31081
827.68        75.11361
828.08        75.03582
828.49        75.03446
828.90        75.16639
829.31        75.30508
829.72        75.19778
830.12        74.82533
830.53        74.25114
830.94        73.73384
831.35        73.61995
831.75        74.01484
832.16        74.76517
832.57        75.67547
832.97        76.32301
833.38        76.49667
833.79        76.30972
834.20         75.9945
834.60        75.90944
835.01        76.16393
835.42        76.63181
835.82        77.09608
836.23        77.11755
836.64        76.64307
837.04        75.85069
837.45        75.02957
837.86        74.63222
838.26        74.78008
838.67        75.29512
839.08        75.99126
839.48        76.52132
839.89        76.71687
840.29         76.6963
840.70        76.49643
841.11        76.15555
841.51        75.72983
841.92        75.18295
842.33        74.65627
842.73        74.40632
843.14        74.44923
843.54        74.76133
843.95        75.13197
844.35        75.25812
844.76        75.04593
845.17        74.60833
845.57        74.09094
845.98        73.72524
846.38        73.58036
846.79        73.55892
847.19        73.64487
847.60        73.72913
848.00        73.80333
848.41        73.87229
848.81        73.94632
849.22        73.95544
849.62        73.94922
850.03        73.95605
850.43        74.03049
850.84        74.19979
851.24         74.5057
851.65        74.73152
852.05        75.07298
852.46        75.68045
852.86        76.53862
853.27        77.61209
853.67         78.2353
854.07         77.5604
854.48         75.6282
854.88        72.58717
855.29        69.84811
855.69        68.68672
856.10        69.52283
856.50        72.10658
856.90        75.56548
857.31        77.81239
857.71        78.09561
858.12        76.93674
858.52        75.17881
858.92        73.95761
859.33         73.5545
859.73        73.62146
860.13        74.06419
860.54        74.71241
860.94        75.50576
861.34        76.50695
861.75        77.47147
862.15        78.06183
862.55         78.1573
862.96        77.78818
863.36        77.19678
863.76        76.81134
864.17        76.77348
864.57         77.0227
864.97        77.41757
865.38        77.72266
865.78        77.91016
866.18        77.97598
866.58        78.01294
866.99        78.15262
867.39         78.4781
867.79        78.97566
868.19        79.35512
868.60        79.09459
869.00        78.11902
869.40          76.608
869.80        75.31036
870.21        75.37493
870.61        77.10392
871.01         80.1275
871.41        83.47642
871.81        85.48678
872.22        85.69616
872.62        84.58284
873.02          82.994
873.42        82.44201
873.82        83.11179
874.22         84.2095
874.63        85.39822
875.03        86.01778
875.43        85.67727
875.83         85.4923
876.23        84.02528
876.63        83.34106
877.03        83.33685
877.44        84.14548
877.84        104.2528
878.24        89.68858
878.64        89.61506
879.04        89.65439
879.44        85.04002
879.84         82.8167
880.24        87.49785
880.64        89.88226
881.04        90.91952
881.44        91.39112
881.84        90.69215
882.24        89.06707
882.65        87.48151
883.05        86.83321
883.45        87.29324
883.85          88.876
884.25         90.9857
884.65        92.28293
885.05        92.34405
885.45        91.59265
885.85        90.66877
886.25        90.46886
886.65        91.16938
887.05         92.4298
887.45        93.81385
887.85        94.56351
888.25        94.42341
888.65        93.70146
889.04        92.65838
889.44        91.72486
889.84        91.06396
890.24        90.54119
890.64        90.24369
891.04          90.318
891.44        90.72848
891.84        91.44773
892.24        92.18752
892.64        92.38918
893.04        91.97103
893.44        91.18918
893.83        90.34222
894.23        89.88497
894.63        89.90409
895.03         90.1656
895.43        90.75893
895.83        91.82121
896.23        93.24586
896.63        95.00449
897.02        96.36403
897.42        96.12869
897.82        94.19826
898.22        91.05293
898.62        87.87306
899.01        86.39983
899.41        86.98065
899.81        88.98632
900.21        91.57977
900.61        93.38464
901.00        93.94956
901.40        93.72495
901.80        92.98343
902.20        92.14633
902.59        91.41426
902.99        90.59681
903.39        89.87625
903.79        89.61336
904.18        89.88062
904.58        90.69643
904.98        91.72086
905.38        92.37199
905.77        92.49771
906.17        92.21818
906.57        91.86389
906.96        92.00331
907.36         92.6657
907.76        93.67447
908.15        94.61455
908.55        94.70386
908.95        93.83748
909.34        92.24651
909.74        90.54028
910.14        89.49406
910.53        89.33932
910.93        89.88583
911.33        90.79809
911.72        91.47785
912.12        91.64619
912.52        91.48716
912.91        91.21836
913.31        91.08099
913.70        91.16629
914.10        91.36117
914.49        91.49636
914.89        91.18085
915.29        90.37093
915.68        89.22388
916.08        88.29753
916.47        87.99577
916.87        88.35085
917.26        89.21705
917.66        90.10023
918.05        90.25576
918.45         89.5213
918.84        88.20319
919.24        86.87108
919.64        86.32384
920.03        86.78185
920.42        87.98931
920.82        89.58321
921.21        91.06248
921.61        92.00368
922.00        92.52119
922.40         92.5703
922.79        92.13665
923.19         91.3569
923.58        90.15805
923.98        88.60181
924.37        87.36172
924.77        86.95207
925.16        84.57336
925.55        85.55592
925.95        86.27076
926.34         88.2336
926.74        90.90491
927.13         93.5236
927.52        94.56283
927.92         93.8116
928.31        91.77267
928.70        89.15536
929.10          87.189
929.49        86.22473
929.89        85.93444
930.28        86.34923
930.67        87.51253
931.07        89.15392
931.46        91.32951
931.85        93.23973
932.24        93.67921
932.64        92.46101
933.03        89.74159
933.42        86.29709
933.82        83.92681
934.21        83.20191
934.60        83.71339
934.99        84.62743
935.39        85.06119
935.78        84.87245
936.17        83.85519
936.56        81.91546
936.96         83.0476
937.35         82.1711
937.74        83.11668
938.13        83.98804
938.53        84.86772
938.92        85.79899
939.31        86.94983
939.70         87.9811
940.09        87.89158
940.49        86.51831
940.88        84.35286
941.27        82.31122
941.66         81.4557
942.05        81.88246
942.44         83.2431
942.84         85.0684
943.23        86.57452
943.62        87.34276
944.01        87.55804
944.40        87.33067
944.79        86.84282
945.18        86.17982
945.57        85.23785
945.97        84.07986
946.36        83.00838
946.75        82.32164
947.14        82.05046
947.53        82.16702
947.92        82.58617
948.31        83.25408
948.70        84.21417
949.09        85.25901
949.48        85.85962
949.87         85.7739
950.26        85.07398
950.65        84.13663
951.04        83.58597
951.43        83.56064
951.82        83.88387
952.21        84.23026
952.60        84.06676
952.99        83.27185
953.38        82.05878
953.77        80.73489
954.16        79.71088
954.55        79.10095
954.94         78.8299
955.33        78.68243
955.72        78.29407
956.11        77.61045
956.50        76.77304
956.89        76.16631
957.28        76.45413
957.66         77.8448
958.05        79.85166
958.44        81.97239
958.83        83.48852
959.22        84.16613
959.61        84.13473
960.00        83.54272
960.39        82.65239
960.78        81.60388
961.16        80.39077
961.55        79.02544
961.94        77.59251
962.33         76.2355
962.72        75.08245
963.11        74.30948
963.49        74.05997
963.88        74.31326
964.27        75.07866
964.66        76.10268
965.04        76.83318
965.43        76.94668
965.82         76.5587
966.21        76.11272
966.60        76.26115
966.98        77.12911
967.37        78.51147
967.76         79.8974
968.15        80.30472
968.53        79.48206
968.92        77.74361
969.31        75.87106
969.69        74.87584
970.08        74.95671
970.47        75.89977
970.86        77.02734
971.24        77.12961
971.63        75.86995
972.02        73.54955
972.40        71.18523
972.79        70.59973
973.17         72.4252
973.56        76.09081
973.95        80.28734
974.33        82.50835
974.72        81.91859
975.11        79.35445
975.49        76.27723
975.88        74.61629
976.26        74.69398
976.65        76.01804
977.04         77.6679
977.42         77.5255
977.81        74.93451
978.19        70.90772
978.58        67.34866
978.96        66.05617
979.35         67.2858
979.74        70.62906
980.12        75.33664
980.51        78.61494
980.89        79.52231
981.28        78.67065
981.66        77.16983
982.05        76.48282
982.43        76.86755
982.82        77.76008
983.20        78.97057
983.59        80.34407
983.97        81.84914
984.35        83.62751
984.74        85.18788
985.12        85.71381
985.51        84.63004
985.89        82.07626
986.28        78.71171
986.66        75.54999
987.04        73.33475
987.43        72.07758
987.81        71.42651
988.20        70.79647
988.58        69.91784
988.96        68.61474
989.35        67.46883
989.73        68.55544
990.12        72.47543
990.50        77.85773
990.88         81.6592
991.27        81.91888
991.65        79.21352
992.03        74.16486
992.42        68.71581
992.80        66.38709
993.18        68.14381
993.56        71.99474
993.95        76.12585
994.33        78.99804
994.71        80.18599
995.10        80.57549
995.48         79.9796
995.86        77.83301
996.24        74.10147
996.63        68.45135
997.01        62.26506
997.39        59.78175
997.77        62.83529
998.15        70.53637
998.54        79.00852
998.92        82.87631
999.30        80.61333
999.68        73.53027
1000.06        63.87191
1000.45        57.15811
1000.83        55.59286
1001.21        57.24223
1001.59        60.49571
1001.97        63.73341
1002.35        66.52387
1002.73        69.94138
1003.12          72.866
1003.50        71.84248
1003.88        66.04119
1004.26        57.60542
1004.64        50.22044
1005.02         46.8904
1005.40        47.78194
1005.78        52.73992
1006.16        63.05205
1006.54        75.27985
1006.92        82.30512
1007.30        84.10274
1007.69        83.06237
1008.07        81.22498
1008.45        78.49053
1008.83        72.38942
1009.21        56.73706
1009.59        15.25805
1009.97       -74.48173
1010.35       -162.3514
1010.73       -110.8309
1011.11       -39.60935
1011.49        1.914724
1011.86        28.82919
1012.24        43.57583
1012.62        50.57903
1013.00        53.40792
1013.38        53.29946
1013.76        52.06276
1014.14        55.13966
1014.52        66.67465
1014.90        87.45189
1015.28        111.9218
1015.66        124.4492
1016.04        115.4808
1016.41        88.09007
1016.79        57.16731
1017.17        38.45665
1017.55        32.79816
1017.93        33.14634
1018.31        35.72185
1018.69        38.88477
1019.06        42.48009
1019.44        46.77831
1019.82        53.11982
1020.20        62.06144
1020.58        73.60328
1020.95        90.16057
1021.33          105.47
1021.71         153.575
1022.09        133.1375
1022.46        140.1246
1022.84        146.9906
1023.22        156.5306
1023.60        178.7912
1023.97        388.4575
1024.35        35.65811
1024.73        75.15473
