SpectraSmart Spectrum 2.9.0.0
--------- Device Information -----------
Spectrum Name :  反射率_0
Saving Time :  2024/04/25 23:58:36
Spectro-Module Model Name : SE2030-DUVN
Spectro-Module Serial Number : OS361AC55029948
Wavelength Start : 200
Wavelength End : 1025
Wavelength Unit : Wavelength(nm)
Spectrum Unit : Reflectance(%)
-----------Spectrum Setting ------------
Integration Time : 20ms
Average : 10
Boxcar : 0
Background removal :  enabled
linearity correction :  enabled
SC :  disabled
Intensity correction :  disabled
DWT denoise :  enabled
savitzky-golay :  disabled
FFT :  disabled
Running average :  disabled
Kalman :  disabled
High pass :  disabled
---------------BEGIN--------------------
Wavelength(nm)             Reflectance(%)
200.29               0
200.75        66.93972
201.21        59.50613
201.67        52.22916
202.13        47.90856
202.58        46.70211
203.04        48.18636
203.50        51.47649
203.96        54.74216
204.42        56.98104
204.88        58.35938
205.34        59.31419
205.80        60.59413
206.26        62.81102
206.72        67.03078
207.18        74.04574
207.64        77.22644
208.10        68.07285
208.55        56.45652
209.01        50.57178
209.47        50.30308
209.93        53.55498
210.39        59.83059
210.85        66.63676
211.31        68.13655
211.77        62.60925
212.23        52.22536
212.69        41.91008
213.14        39.34544
213.60        45.68264
214.06        58.56853
214.52        72.89954
214.98        80.84441
215.44        80.37324
215.90        74.10935
216.36        65.36708
216.81        58.70369
217.27        55.69831
217.73        55.01302
218.19        54.49402
218.65        51.17768
219.11        43.83533
219.57         31.6724
220.02        16.82445
220.48        10.04591
220.94        16.77862
221.40         33.5822
221.86        48.95145
222.32        51.46286
222.77        42.80384
223.23        29.24767
223.69        17.73767
224.15         15.2847
224.61        21.14611
225.06        31.84812
225.52        42.52337
225.98        46.80915
226.44        43.66216
226.90        35.88612
227.36         27.0988
227.81         22.1931
228.27        22.48897
228.73        26.00946
229.19        30.83484
229.65        34.17974
230.10        35.29741
230.56        35.25042
231.02         34.7858
231.48        34.64182
231.93        34.94968
232.39        35.33472
232.85        35.62254
233.31         35.6613
233.77        35.40351
234.22        34.98374
234.68        34.47474
235.14        33.89605
235.60        33.34158
236.05        32.84003
236.51        32.53584
236.97        32.59717
237.43        33.09554
237.88        34.13672
238.34        35.59641
238.80        37.00216
239.26        37.95176
239.71        38.39555
240.17        38.49107
240.63        39.12785
241.08        40.61379
241.54        42.67608
242.00        44.64754
242.46        45.57258
242.91        45.10719
243.37        42.23223
243.83        35.52642
244.28        34.42665
244.74         72.8427
245.20        100.0515
245.66        101.3446
246.11        100.4861
246.57        100.2494
247.03        99.20419
247.48        83.20554
247.94        43.89212
248.40        49.42681
248.85         56.6421
249.31        61.11016
249.77        64.46122
250.22        67.99751
250.68        73.10002
251.14        79.75386
251.59         83.3429
252.05        79.86694
252.51        71.53916
252.96        62.65385
253.42        57.42107
253.88        55.34953
254.33        54.95123
254.79        56.45256
255.25        59.53903
255.70        63.29348
256.16        67.45501
256.62        70.09783
257.07        69.26176
257.53        65.79051
257.99        60.49865
258.44         55.4783
258.90        53.89911
259.35        54.80627
259.81        56.73855
260.27        57.59243
260.72        55.38386
261.18        50.88383
261.63        45.12617
262.09          39.836
262.55        36.39584
263.00        34.78464
263.46        34.36055
263.91        34.17759
264.37        33.42516
264.83         31.9565
265.28         29.9829
265.74        28.13843
266.19        27.14929
266.65        27.15584
267.11        27.72066
267.56        28.22541
268.02        27.92474
268.47        26.73447
268.93        24.92483
269.38        22.91903
269.84        21.66961
270.30        21.43346
270.75        21.93976
271.21        22.69122
271.66        22.95123
272.12        22.51753
272.57        21.62417
273.03         20.6393
273.48        20.04115
273.94        19.95665
274.39         20.1761
274.85        20.41668
275.31        20.28105
275.76        19.69333
276.22        18.83575
276.67        17.94963
277.13        17.44386
277.58        17.34794
278.04        17.52485
278.49        17.72135
278.95        17.62249
279.40        17.15847
279.86        16.49716
280.31        15.77938
280.77        15.30087
281.22        15.09408
281.68        15.07169
282.13        15.13564
282.59        15.16618
283.04        15.12792
283.50        15.08513
283.95        15.02633
284.41          14.935
284.86        14.81271
285.32        14.65657
285.77        14.53648
286.22        14.61477
286.68        14.87976
287.13        15.26031
287.59        15.58741
288.04        15.61222
288.50        15.31912
288.95        14.79758
289.41        14.22981
289.86        13.79903
290.32        13.60809
290.77        13.58809
291.22        13.72891
291.68        13.97861
292.13        14.31263
292.59        14.73762
293.04        15.22633
293.50         15.7295
293.95        16.21642
294.40        16.66484
294.86        17.05814
295.31        17.39372
295.77        17.68283
296.22        17.93662
296.68        18.17484
297.13        18.40049
297.58        18.63891
298.04        18.90662
298.49        19.23934
298.95        19.72026
299.40         20.3442
299.85        21.07563
300.31        21.82106
300.76        22.44744
301.21        22.90272
301.67        23.24228
302.12        23.48634
302.58        23.71226
303.03        23.93405
303.48        24.14066
303.94        24.38932
304.39        24.73742
304.84        25.18929
305.30        25.71676
305.75        26.20778
306.20        26.49531
306.66        26.56759
307.11        26.46951
307.57        26.32016
308.02        26.23337
308.47        26.27018
308.93        26.39047
309.38        26.56909
309.83        26.79414
310.29        27.03207
310.74         27.2733
311.19        27.46935
311.65        27.54322
312.10        27.48224
312.55        27.31449
313.00        27.06295
313.46        26.78093
313.91        26.49204
314.36        26.20239
314.82         25.9789
315.27        25.90744
315.72        25.99723
316.18         26.2193
316.63        26.46733
317.08        26.54172
317.53         26.3924
317.99        26.06432
318.44        25.68168
318.89        25.44851
319.35        25.40602
319.80        25.49563
320.25        25.59198
320.70        25.48928
321.16        25.14162
321.61        24.62543
322.06        24.06048
322.51        23.62124
322.97        23.34559
323.42        23.18783
323.87        23.07124
324.32        22.87322
324.78        22.56054
325.23        22.18097
325.68        21.79096
326.13        21.47873
326.59        21.26407
327.04        21.13073
327.49        21.03308
327.94        20.90134
328.39        20.71594
328.85        20.49056
329.30        20.28576
329.75        20.17463
330.20        20.17539
330.66        20.24492
331.11        20.34188
331.56         20.3574
332.01        20.25625
332.46        20.05181
332.92        19.78883
333.37         19.5697
333.82        19.42776
334.27        19.35619
334.72        19.29035
335.17        19.12046
335.63        18.82532
336.08         18.4398
336.53        18.09178
336.98         17.9824
337.43        18.14329
337.88        18.51655
338.34        18.89013
338.79        18.95861
339.24        18.63102
339.69        17.99634
340.14         17.3054
340.59        16.99796
341.05        17.17041
341.50        17.67616
341.95        18.25905
342.40        18.54464
342.85        18.44309
343.30        18.08296
343.75          17.589
344.20        17.18067
344.66         16.9423
345.11        16.77283
345.56        16.67088
346.01        16.63466
346.46        16.63671
346.91        16.70124
347.36        16.71158
347.81        16.46883
348.26        15.96629
348.72        15.30198
349.17        14.64366
349.62         14.3552
350.07        14.51812
350.52         15.0043
350.97        15.63743
351.42        16.14516
351.87        16.43306
352.32        16.57148
352.77        16.57009
353.22        16.45047
353.67         16.2412
354.13        15.93536
354.58        15.59808
355.03        15.37525
355.48         15.3005
355.93        15.35615
356.38        15.45567
356.83        15.44525
357.28        15.28845
357.73        15.02835
358.18         14.7525
358.63        14.59847
359.08        14.59677
359.53        14.70313
359.98         14.8245
360.43        14.82026
360.88        14.66113
361.33        14.39017
361.78        14.10693
362.23        13.97213
362.68        14.01262
363.13        14.16072
363.58         14.3078
364.03         14.2874
364.48         14.0638
364.93        13.70778
365.38        13.28796
365.83        12.91014
366.28        12.62268
366.73        12.39773
367.18        12.26158
367.63        12.25672
368.08        12.36952
368.53         12.5764
368.98        12.79508
369.43        12.89265
369.88        12.84102
370.33        12.68216
370.78        12.45935
371.23        12.25593
371.68        12.10796
372.13        11.98414
372.58         11.9257
373.03        11.99845
373.48        12.19519
373.93        12.49542
374.38        12.77418
374.83        12.83573
375.28        12.64787
375.72        12.25844
376.17        11.83078
376.62         11.5932
377.07         11.6101
377.52        11.81074
377.97        12.08932
378.42        12.27289
378.87        12.30652
379.32        12.24349
379.77        12.13807
380.22        12.06565
380.67        12.04695
381.11        12.05506
381.56        12.05212
382.01        11.99185
382.46        11.86396
382.91         11.6857
383.36        11.50843
383.81        11.40714
384.26        11.39808
384.71        11.46459
385.15        11.52965
385.60         11.4845
386.05        11.30709
386.50        11.02202
386.95        10.73564
387.40        10.63031
387.85        10.73917
388.29        10.99506
388.74        11.24853
389.19        11.30444
389.64        11.13949
390.09        10.81192
390.54        10.46483
390.98        10.33824
391.43        10.49228
391.88        10.83083
392.33        11.18799
392.78        11.32228
393.23        11.19711
393.67        10.90199
394.12        10.58645
394.57        10.41368
395.02        10.42102
395.47        10.54891
395.91        10.73164
396.36        10.83974
396.81        10.83057
397.26        10.73633
397.71        10.60451
398.15        10.49057
398.60        10.42929
399.05        10.40666
399.50        10.37831
399.95         10.2539
400.39        10.07073
400.84        9.819878
401.29        9.599308
401.74        9.565211
402.18        9.757442
402.63        10.10593
403.08        10.48064
403.53        10.67445
403.97         10.6357
404.42         10.4259
404.87        10.14106
405.32        9.952462
405.76        9.912187
406.21        9.963959
406.66         10.0545
407.11        10.11147
407.55         10.1162
408.00         10.0967
408.45        10.05534
408.90        9.986352
409.34        9.898455
409.79        9.790386
410.24        9.701545
410.68        9.690215
411.13        9.765412
411.58         9.91765
412.03        10.08939
412.47        10.17717
412.92        10.14341
413.37        10.01061
413.81        9.854637
414.26        9.807087
414.71        9.885882
415.15        10.05794
415.60        10.21293
416.05        10.19346
416.49        9.967942
416.94        9.601851
417.39        9.214355
417.83        9.006651
418.28        9.038339
418.73        9.233582
419.17        9.493802
419.62        9.660902
420.07        9.695415
420.51        9.645604
420.96        9.541594
421.41         9.43034
421.85        9.333412
422.30        9.245388
422.74        9.173996
423.19        9.159739
423.64        9.195582
424.08        9.280887
424.53        9.375689
424.98        9.427468
425.42        9.422933
425.87        9.370666
426.31         9.28705
426.76        9.232393
427.21        9.204412
427.65         9.12765
428.10          9.0532
428.54        9.112523
428.99        9.310616
429.44        9.589389
429.88        9.839058
430.33        9.913438
430.77        9.789893
431.22        9.512611
431.66        9.208556
432.11        9.110128
432.56        9.238558
433.00        9.478541
433.45        9.708305
433.89        9.847097
434.34        9.823844
434.78        9.579659
435.23        9.280855
435.67        9.241301
436.12        9.432703
436.57        9.523952
437.01        9.451571
437.46        9.348715
437.90        9.228235
438.35        9.059519
438.79        8.886746
439.24        8.804873
439.68         8.83064
440.13        8.891918
440.57          8.9645
441.02        9.129346
441.46        9.294847
441.91        9.158681
442.35        8.790019
442.80        8.557964
443.24        8.454424
443.69        8.346701
444.13        8.221793
444.58        8.072719
445.02        7.938372
445.47        7.984762
445.91        8.153315
446.36         8.19955
446.80        8.094556
447.24        7.962233
447.69        7.850038
448.13        7.775299
448.58        7.759145
449.02        7.794116
449.47        7.843885
449.91        7.849397
450.36        7.800125
450.80        7.709875
451.25        7.629306
451.69        7.626916
452.13        7.715434
452.58        7.859014
453.02        8.003146
453.47        8.055599
453.91        8.002237
454.36        7.876056
454.80        7.722002
455.24        7.618955
455.69         7.59621
456.13         7.62119
456.58        7.686503
457.02        7.768876
457.46        7.860416
457.91        7.965261
458.35        8.058945
458.79        8.088903
459.24         8.05651
459.68        7.963569
460.13        7.871489
460.57         7.84862
461.01        7.920762
461.46        8.058882
461.90         8.21315
462.34        8.287507
462.79        8.261361
463.23         8.15624
463.68        8.040357
464.12        8.023602
464.56        8.134009
465.01        8.333117
465.45        8.525993
465.89        8.603217
466.34        8.554515
466.78        8.374614
467.22        8.165374
467.67        8.171591
468.11        8.381532
468.55        8.526306
468.99        8.561625
469.44        8.590498
469.88        8.633716
470.32        8.732388
470.77        8.845948
471.21        8.847237
471.65        8.726331
472.10        8.580279
472.54        8.465258
472.98        8.452728
473.42        8.560866
473.87        8.766384
474.31        8.998324
474.75          9.1353
475.20        9.152493
475.64         9.08134
476.08        8.982349
476.52        8.950566
476.97        9.010226
477.41        9.135214
477.85        9.277611
478.29        9.378415
478.74          9.4213
479.18         9.37816
479.62        9.294198
480.06        9.397105
480.50        9.501994
480.95        9.614343
481.39        9.637367
481.83        9.622278
482.27        9.570277
482.72        9.426366
483.16        9.250889
483.60        9.269621
484.04        9.488888
484.48        9.631498
484.93        9.851337
485.37        10.24586
485.81        10.67016
486.25        11.20102
486.69        14.46996
487.14        11.38863
487.58        7.770164
488.02        9.495878
488.46        10.74045
488.90        10.72904
489.34        10.79085
489.79        10.81177
490.23        11.49547
490.67        11.93331
491.11          11.928
491.55        11.81149
491.99        11.59027
492.43        11.40422
492.88        11.32525
493.32        11.33449
493.76        11.37481
494.20         11.5803
494.64        11.91346
495.08        12.32813
495.52        12.75813
495.96        13.11916
496.41        13.34876
496.85        13.45238
497.29        13.45972
497.73        13.29452
498.17        13.13668
498.61        13.29975
499.05        13.78378
499.49        13.93822
499.93        14.08805
500.37        14.25766
500.82        14.39417
501.26        14.62101
501.70        14.86049
502.14        14.99306
502.58        15.01187
503.02        15.05411
503.46        15.12811
503.90        15.14817
504.34         15.1286
504.78        15.13056
505.22        15.16308
505.66        15.22108
506.10        15.27865
506.54        15.28847
506.98        15.24798
507.42        15.17828
507.86        15.13773
508.30         15.2156
508.74        15.42194
509.18        15.71698
509.62        16.03282
510.06        16.25735
510.50        16.35799
510.94        16.37433
511.38        16.33212
511.82        16.27456
512.26        16.22487
512.70        16.16451
513.14        16.13307
513.58        16.19684
514.02         16.3504
514.46        16.57045
514.90        16.77348
515.34        16.78638
515.78        16.55236
516.22        16.28949
516.66        16.10334
517.10        15.68962
517.54        15.08389
517.98        15.97035
518.42        15.81847
518.86        16.21034
519.30         16.3676
519.74        16.53979
520.18        16.68386
520.62        16.69782
521.06        16.60317
521.50        16.40761
521.93        16.17359
522.37        16.01826
522.81        15.97276
523.25        16.00722
523.69        16.09417
524.13        16.18702
524.57        16.26189
525.01        16.32755
525.45        16.36528
525.89        16.34478
526.32        16.26065
526.76        16.12091
527.20        15.94857
527.64        15.79069
528.08        15.66596
528.52        15.55175
528.96        15.44299
529.40        15.36989
529.83        15.33937
530.27        15.19188
530.71        15.21367
531.15        15.13778
531.59        15.05134
532.03        14.94657
532.46        14.86524
532.90        14.88038
533.34         14.9909
533.78        15.16854
534.22        15.33486
534.66        15.37477
535.09        15.26424
535.53        15.04717
535.97        14.79436
536.41        14.62169
536.85        14.56489
537.28         14.5958
537.72        14.67185
538.16        14.72147
538.60         14.7257
539.04        14.69838
539.47         14.6778
539.91        14.75521
540.35        14.92526
540.79        15.10388
541.22        15.25687
541.66        15.39372
542.10        15.50169
542.54        15.55247
542.97        15.58562
543.41        15.69104
543.85        15.87958
544.29        16.13542
544.72         16.3874
545.16        16.53067
545.60        16.54955
546.04         16.4769
546.47        16.42035
546.91         16.5584
547.35         16.9104
547.79        17.41326
548.22        17.92589
548.66        18.20981
549.10        18.22664
549.53        18.08378
549.97        17.90435
550.41        17.82841
550.84         17.9097
551.28        18.11691
551.72        18.41809
552.15        18.75058
552.59        19.07317
553.03        19.39504
553.46        19.68658
553.90         19.9188
554.34        20.09321
554.77        20.19065
555.21        20.22751
555.65        20.29563
556.08        20.42003
556.52        20.33414
556.96        20.51748
557.39         20.5912
557.83         20.7024
558.27        20.83151
558.70        20.98062
559.14        21.13507
559.57        21.27819
560.01        21.42002
560.45         21.5314
560.88        21.56775
561.32        21.54588
561.75        21.47077
562.19        21.40119
562.63          21.397
563.06        21.46903
563.50        21.60262
563.93        21.76837
564.37        21.92735
564.80        22.05808
565.24        22.18185
565.68        22.29163
566.11        22.37842
566.55        22.46259
566.98        22.53817
567.42        22.64283
567.85        22.83064
568.29        23.11912
568.72        23.41743
569.16        23.71315
569.60        24.08451
570.03        24.41117
570.47        24.44565
570.90        24.31384
571.34        24.08927
571.77        24.32335
572.21        24.64546
572.64        24.66286
573.08        24.40361
573.51        23.82154
573.95        24.92579
574.38        26.45773
574.82        26.05009
575.25        25.74903
575.69        24.86848
576.12        24.44869
576.56        24.40283
576.99        25.01157
577.42        26.10117
577.86        26.18997
578.29        25.88217
578.73        27.25585
579.16        25.02262
579.60        22.82015
580.03        23.80163
580.47        25.37818
580.90        25.57126
581.33        25.04349
581.77        24.81612
582.20        26.99531
582.64        26.89763
583.07        22.66523
583.51        22.05681
583.94        21.48649
584.37         22.2282
584.81        23.12781
585.24        24.28809
585.68        24.97468
586.11        24.32969
586.54        22.68101
586.98        22.02036
587.41         22.1776
587.85         23.0991
588.28        23.82465
588.71        22.82452
589.15        22.01056
589.58        22.35335
590.01        22.65177
590.45        23.06085
590.88        23.06192
591.31        22.74822
591.75        22.63421
592.18        22.68087
592.61        23.15328
593.05        23.53565
593.48        24.61416
593.91         24.6941
594.35         22.8396
594.78        22.52258
595.21        22.66323
595.65        23.82546
596.08        24.75462
596.51        23.91375
596.94        23.40504
597.38        23.83206
597.81        25.02501
598.24         25.5806
598.68        25.23507
599.11        25.46259
599.54        26.72327
599.97        27.76681
600.41        26.31717
600.84        26.79604
601.27        27.75014
601.70         27.6258
602.14        28.02155
602.57        27.98344
603.00        28.65465
603.43          29.865
603.87        31.15032
604.30        31.52462
604.73        31.14354
605.16        30.67122
605.60        31.57597
606.03        32.52589
606.46         33.5852
606.89        33.88562
607.32        33.34084
607.76        33.94167
608.19         35.2795
608.62        35.16251
609.05        34.85968
609.48        35.48518
609.92        35.86328
610.35        35.97475
610.78        37.80809
611.21        38.10651
611.64        37.08141
612.07        37.74984
612.50        38.25537
612.94          38.801
613.37        38.81552
613.80        39.07974
614.23        39.63125
614.66        39.85675
615.09        40.31499
615.52        40.65713
615.96        40.93727
616.39        41.24939
616.82         40.8883
617.25         41.1032
617.68        41.65189
618.11        42.35014
618.54        42.94056
618.97        42.84991
619.40        42.36475
619.84        42.33513
620.27        43.24854
620.70        43.95398
621.13        44.38866
621.56        44.09056
621.99        43.34282
622.42        43.92134
622.85        45.48629
623.28         45.4093
623.71        45.11909
624.14        44.73034
624.57         44.7545
625.00        44.37488
625.43        44.52012
625.86         43.9906
626.29        43.85458
626.72        44.23213
627.15        43.78785
627.58         43.7641
628.01        43.63445
628.44        43.61633
628.87        43.38559
629.30        43.18755
629.73        42.85551
630.16        43.03288
630.59        42.29989
631.02        41.89672
631.45         41.4398
631.88        40.97218
632.31        40.49867
632.74        40.03201
633.17        39.58697
633.60        39.14856
634.03        38.71898
634.46        38.30289
634.89        37.88513
635.32        37.43991
635.75        36.96397
636.18        36.46674
636.61        35.96537
637.04        35.48424
637.47        35.02618
637.89        34.58415
638.32        34.14518
638.75        33.71217
639.18        33.29174
639.61        32.89711
640.04        32.52483
640.47        32.16035
640.90         31.8047
641.33        31.46122
641.76        31.14736
642.18        30.93894
642.61        30.84552
643.04        30.77391
643.47        30.67646
643.90        30.87484
644.33        30.71698
644.76        30.73095
645.18        30.73637
645.61        30.76565
646.04        30.82292
646.47        30.90399
646.90         31.0407
647.33        31.27324
647.75        31.61685
648.18        32.04012
648.61        32.47883
649.04        32.90825
649.47        33.26853
649.89        33.35817
650.32        33.36706
650.75        33.79378
651.18        34.66701
651.61        35.63943
652.03        36.49881
652.46          37.183
652.89        37.82832
653.32        38.03749
653.74        38.04048
654.17         39.5783
654.60        40.38358
655.03        39.59174
655.46        40.88446
655.88        44.02843
656.31        47.63291
656.74        110.0254
657.16        71.59699
657.59        25.14913
658.02        19.24405
658.45        34.01749
658.87        43.73291
659.30        46.26225
659.73        46.41601
660.15        44.76407
660.58        47.01144
661.01        48.50034
661.44        47.37431
661.86        47.18272
662.29        47.43563
662.72        48.28766
663.14        49.55219
663.57         49.8236
664.00        49.26537
664.42        49.34597
664.85        50.13333
665.27        50.73614
665.70        51.00237
666.13        50.99611
666.55        51.10087
666.98        50.89073
667.41        50.64257
667.83        50.71191
668.26        51.12596
668.69        51.60985
669.11        51.98518
669.54        52.35665
669.96        52.18385
670.39        51.90141
670.82        51.54122
671.24        51.38034
671.67        51.55293
672.09        52.09078
672.52        52.74358
672.94        53.38522
673.37         53.0557
673.80        53.02099
674.22         53.0963
674.65        53.17523
675.07        53.26241
675.50        53.31597
675.92        53.36412
676.35        53.50215
676.77        53.73552
677.20         53.9809
677.62        54.20451
678.05        54.35521
678.47        54.41009
678.90        54.39902
679.32        54.37207
679.75        54.30202
680.17        54.41967
680.60        54.55242
681.02        54.70472
681.45        54.70057
681.87        54.55554
682.30         54.4421
682.72        54.40568
683.15        54.42089
683.57        54.56282
684.00        54.80391
684.42        55.23583
684.85        55.75648
685.27        55.60641
685.70        55.57069
686.12        55.49159
686.54        55.45678
686.97         55.5039
687.39         55.6993
687.82        55.96156
688.24        56.10601
688.66        56.08936
689.09        56.00312
689.51        55.92278
689.94        55.94042
690.36        56.09206
690.78        56.29261
691.21        56.49898
691.63          56.761
692.06        57.00196
692.48        56.99455
692.90        56.81465
693.33        56.79434
693.75        56.96384
694.17        57.14805
694.60        57.31868
695.02        57.45919
695.44        57.51524
695.87        57.71867
696.29        58.03857
696.71        57.76158
697.14        57.14209
697.56         57.6575
697.98        59.01642
698.41        59.04079
698.83        58.31082
699.25        57.83432
699.68        57.88953
700.10        57.84453
700.52        57.73441
700.94        57.88882
701.37        58.25127
701.79        58.64574
702.21        58.98928
702.64        59.32332
703.06        59.57008
703.48        59.60187
703.90        59.41966
704.33        59.06679
704.75        58.65396
705.17        58.44095
705.59        58.49981
706.01        58.66609
706.44        58.85682
706.86        59.43483
707.28        59.55641
707.70        59.87783
708.12        60.10973
708.55        60.12906
708.97        59.94148
709.39        59.69381
709.81        59.49527
710.23        59.41691
710.66        59.50512
711.08        59.80838
711.50        60.17678
711.92        60.34614
712.34        60.26092
712.76        59.98443
713.19        59.68145
713.61        59.64338
714.03        59.92067
714.45        60.42288
714.87        60.92905
715.29        61.09305
715.71        60.84628
716.13        60.30562
716.56         59.7069
716.98        59.45387
717.40        59.64161
717.82          60.146
718.24        60.75925
718.66        61.12834
719.08        61.14901
719.50        60.93327
719.92        60.61358
720.34        60.41471
720.76        60.40748
721.19        60.41648
721.61        60.58536
722.03        60.72936
722.45        60.86897
722.87        61.02177
723.29        61.17043
723.71        61.27019
724.13        61.31154
724.55        61.30293
724.97        61.26116
725.39        61.22455
725.81        61.20818
726.23        61.20202
726.65        61.22204
727.07        61.28957
727.49        61.40564
727.91        61.57172
728.33        61.74083
728.75        61.83082
729.17         61.8217
729.59        61.73004
730.01        61.63009
730.43        61.63576
730.85        61.77651
731.27        62.04074
731.69        62.32919
732.10        62.46175
732.52          62.394
732.94         62.2121
733.36        62.05751
733.78        62.02217
734.20        62.14243
734.62        62.69855
735.04        63.46864
735.46        63.39033
735.88        62.72654
736.30        63.02947
736.72        64.24719
737.13        64.96456
737.55        64.81797
737.97        64.55499
738.39        64.29791
738.81        63.40082
739.23        62.33131
739.65        63.03022
740.06        65.02853
740.48        65.31119
740.90        63.93423
741.32        63.39983
741.74        63.91528
742.16        64.18587
742.57         64.2353
742.99        64.78419
743.41        65.65487
743.83        66.12501
744.25        66.10837
744.67         65.8852
745.08        65.64074
745.50        65.57274
745.92        65.77194
746.34        66.20212
746.75        66.70259
747.17        66.96939
747.59        66.95232
748.01         66.7415
748.42        66.54268
748.84        66.66902
749.26        67.18774
749.68        67.97314
750.09        68.79266
750.51        69.26519
750.93        69.30695
751.35        68.99063
751.76        68.51028
752.18        68.31411
752.60        68.40672
753.01        68.42242
753.43          68.394
753.85        68.47221
754.27        68.99037
754.68        69.65322
755.10        70.18323
755.52        70.62408
755.93        70.82224
756.35        70.73129
756.77        70.56628
757.18         70.4968
757.60        70.56481
758.02        71.29574
758.43        72.21726
758.85        71.34734
759.26        69.31617
759.68        69.00602
760.10        70.34172
760.51        71.26938
760.93        71.35667
761.34        70.18249
761.76         69.6661
762.18        68.99254
762.59         68.9384
763.01        68.93243
763.42        69.76529
763.84        70.55965
764.26        71.30369
764.67        71.43736
765.09        71.04196
765.50        70.91523
765.92        70.97546
766.33        70.17661
766.75        68.85478
767.16        68.34233
767.58        68.81533
768.00        69.86873
768.41        71.27248
768.83        72.49049
769.24        72.98781
769.66        72.51645
770.07        71.41403
770.49        69.82333
770.90        68.31109
771.32        69.06085
771.73        71.42616
772.15        71.18069
772.56        68.70988
772.97        68.19282
773.39        69.51514
773.80        70.53471
774.22        69.55093
774.63        69.55184
775.05        70.05183
775.46         70.3094
775.88        70.23362
776.29        70.05603
776.70        69.88474
777.12        69.88625
777.53        70.10291
777.95         70.4103
778.36        70.67656
778.77        70.64961
779.19        70.32242
779.60         69.8866
780.02        69.47751
780.43        69.21622
780.84        69.34119
781.26        69.66924
781.67        70.16634
782.09        71.61802
782.50        73.35914
782.91        72.18819
783.33        69.73376
783.74        68.78189
784.15        69.78117
784.57        70.51997
784.98        70.65033
785.39        70.55827
785.81         70.2352
786.22        69.83246
786.63        69.59483
787.04        69.62473
787.46        69.98767
787.87        70.84586
788.28         71.8979
788.70        72.39142
789.11        72.19262
789.52        71.65228
789.93        71.01333
790.35        70.45154
790.76        70.12257
791.17        70.23888
791.58        70.69518
792.00        70.93329
792.41        70.83761
792.82        70.92713
793.23         71.2383
793.65        70.79197
794.06        69.99747
794.47         71.0575
794.88        73.21926
795.29        73.06662
795.71        70.77537
796.12        68.86401
796.53        67.93074
796.94        67.60648
797.35        67.99471
797.76        69.13198
798.18        70.47523
798.59        71.32696
799.00        71.36649
799.41        70.59711
799.82        69.42313
800.23        68.78304
800.64        68.67024
801.06         68.9165
801.47        69.37181
801.88        69.80003
802.29        70.08359
802.70        70.33128
803.11        70.50256
803.52        70.49265
803.93        70.31268
804.34        69.95852
804.75        69.58009
805.17        69.51266
805.58        69.85674
805.99        70.27979
806.40        70.61536
806.81        71.16701
807.22        71.56264
807.63        70.56396
808.04        68.67608
808.45         67.8212
808.86        68.18958
809.27        68.84011
809.68         69.4444
810.09        69.79428
810.50        69.72713
810.91        69.34584
811.32        68.83825
811.73        68.49998
812.14        68.41931
812.55        68.46198
812.96        68.64093
813.37        68.97385
813.78        69.41437
814.19        69.99529
814.60        70.44931
815.01           70.36
815.42        69.68229
815.83        68.50192
816.24        67.28552
816.65        66.85863
817.05        67.46347
817.46        68.84134
817.87        70.40629
818.28        71.10308
818.69        70.64591
819.10        69.31063
819.51        67.74703
819.92        67.05555
820.33        67.52303
820.74        68.80064
821.14        70.28893
821.55        70.92424
821.96        70.46709
822.37        69.29089
822.78        67.90558
823.19        67.05248
823.60        66.94206
824.00        67.38155
824.41        68.05886
824.82        68.54877
825.23        68.65846
825.64        68.54232
826.04        68.33316
826.45         68.2075
826.86         68.2103
827.27         68.2359
827.68        68.22573
828.08        68.13257
828.49        67.89427
828.90        67.61533
829.31        67.30482
829.72        66.96487
830.12         66.6617
830.53        66.38007
830.94        66.27985
831.35        66.57132
831.75        67.30245
832.16        68.34508
832.57        69.46996
832.97        70.18867
833.38        70.27722
833.79        69.86004
834.20        69.20564
834.60        68.73296
835.01        68.58663
835.42        68.65215
835.82        68.77284
836.23        68.60816
836.64        68.12558
837.04        67.47965
837.45        66.88337
837.86        66.66072
838.26        66.88767
838.67        67.41039
839.08        68.06712
839.48        68.56667
839.89         68.7656
840.29         68.7594
840.70        68.56982
841.11        68.22294
841.51        67.77353
841.92         67.1972
842.33        66.65716
842.73        66.43468
843.14        66.55719
843.54        66.99917
843.95        67.52068
844.35        67.76196
844.76          67.616
845.17        67.20018
845.57        66.71531
845.98        66.48203
846.38        66.57557
846.79        66.86091
847.19         67.2248
847.60        67.39634
848.00        67.32716
848.41         67.0946
848.81        66.79257
849.22        66.47075
849.62        66.21262
850.03         66.0062
850.43         65.9312
850.84        66.07748
851.24        66.48376
851.65        66.96076
852.05        67.55048
852.46        68.15112
852.86        68.70117
853.27        69.23698
853.67        69.36224
854.07        68.59072
854.48        66.99763
854.88        64.79178
855.29         62.7091
855.69        61.80956
856.10        62.29691
856.50        64.03528
856.90        66.42661
857.31        68.03027
857.71        68.34962
858.12        67.69789
858.52        66.62368
858.92        65.86075
859.33        65.59723
859.73        65.60436
860.13        65.84493
860.54          66.259
860.94        66.84158
861.34        67.62172
861.75        68.39326
862.15         68.8914
862.55        69.01321
862.96        68.80123
863.36        68.45138
863.76        68.30175
864.17        68.44804
864.57        68.83043
864.97        69.31818
865.38        69.70378
865.78        69.96751
866.18        70.09433
866.58        70.14479
866.99        70.20955
867.39        70.35625
867.79        70.58239
868.19        70.68063
868.60        70.27818
869.00        69.33475
869.40        68.01971
869.80        66.94827
870.21        67.04585
870.61        68.56364
871.01        71.19128
871.41        74.14458
871.81        76.07201
872.22        76.58659
872.62        76.04029
873.02        75.02533
873.42        74.76899
873.82        75.29667
874.22        75.66843
874.63        75.81137
875.03        75.75313
875.43        75.39276
875.83         76.1478
876.23        74.78185
876.63        73.75597
877.03        72.54533
877.44        71.15724
877.84        109.0469
878.24        76.02566
878.64        77.82733
879.04         81.2384
879.44        76.06718
879.84        73.70658
880.24        80.44052
880.64        82.81836
881.04        82.34994
881.44        81.63139
881.84        80.71484
882.24        79.46969
882.65        78.53403
883.05        78.21393
883.45        78.56066
883.85        79.91086
884.25        81.76254
884.65        82.79179
885.05        82.63034
885.45         81.6723
885.85        80.54758
886.25         80.1473
886.65        80.65472
887.05        81.77291
887.45        83.06837
887.85        83.78349
888.25        83.66151
888.65        82.95808
889.04        82.01897
889.44        81.41506
889.84        81.27796
890.24        81.39819
890.64        81.57307
891.04        81.51148
891.44        81.13166
891.84        80.57468
892.24         79.9217
892.64        79.29141
893.04         78.8081
893.44         78.4954
893.83        78.40454
894.23        78.61634
894.63        79.10249
895.03        79.75763
895.43        80.59358
895.83        81.59247
896.23        82.65672
896.63        83.78645
897.02        84.52449
897.42        84.18026
897.82        82.73379
898.22         80.4644
898.62        78.27785
899.01        77.49886
899.41        78.35262
899.81        80.37538
900.21        82.71407
900.61        83.97231
901.00        83.77859
901.40        82.59169
901.80        81.00701
902.20        79.94749
902.59        79.69788
902.99        79.97194
903.39        80.51401
903.79        80.89693
904.18        80.97729
904.58        80.98393
904.98        81.04258
905.38        81.32104
905.77        81.82439
906.17        82.38448
906.57        82.93079
906.96        83.45177
907.36        83.83157
907.76        84.09194
908.15        84.09074
908.55        83.47608
908.95        82.30005
909.34         80.7142
909.74        79.11961
910.14        77.95632
910.53        77.37582
910.93         77.2785
911.33        77.68043
911.72        78.57821
912.12        79.73232
912.52         81.0264
912.91         82.1033
913.31        82.50269
913.70        82.22005
914.10        81.28892
914.49        79.92481
914.89        78.84843
915.29        78.45982
915.68        78.52314
916.08        78.94458
916.47        79.43143
916.87        79.91394
917.26        80.51299
917.66        80.96056
918.05        80.87315
918.45        80.20845
918.84        79.11546
919.24        78.05403
919.64        77.68886
920.03        78.18012
920.42         79.3288
920.82        80.77756
921.21        82.00372
921.61        82.62106
922.00        82.78577
922.40        82.47867
922.79        81.75671
923.19        80.80257
923.58         79.3751
923.98        77.54592
924.37        76.51243
924.77        76.89095
925.16         73.8202
925.55        76.02517
925.95        76.73324
926.34        78.46461
926.74        80.67248
927.13        82.84786
927.52         83.7946
927.92        83.32264
928.31        81.83561
928.70        79.81491
929.10         78.1287
929.49        77.02614
929.89        76.31087
930.28         76.1241
930.67        76.69888
931.07        77.87196
931.46        79.67177
931.85        81.34065
932.24        81.73142
932.64        80.65421
933.03        78.22137
933.42        75.16973
933.82        73.16698
934.21        72.68974
934.60        73.32909
934.99        74.14358
935.39        74.28182
935.78        73.62769
936.17        71.55584
936.56        67.88854
936.96        69.80286
937.35         68.2738
937.74        70.30232
938.13        72.18797
938.53        73.74078
938.92        75.04296
939.31        76.37241
939.70        77.59397
940.09        77.97551
940.49        77.35117
940.88        76.02977
941.27        74.59958
941.66        73.77606
942.05        73.64974
942.44        73.97669
942.84        74.62847
943.23        75.42968
943.62        76.16962
944.01        76.89966
944.40        77.31163
944.79        76.91084
945.18        75.57564
945.57        73.29017
945.97        70.59947
946.36        68.88208
946.75        68.80058
947.14        69.88397
947.53        71.28911
947.92        72.12993
948.31        72.30614
948.70        72.08076
949.09        71.68844
949.48        71.61677
949.87        72.03455
950.26        72.68573
950.65        73.34125
951.04         73.7156
951.43        73.74244
951.82        73.57536
952.21        73.23404
952.60        72.75715
952.99        72.19629
953.38        71.48215
953.77        70.87039
954.16        70.74096
954.55        71.11373
954.94          71.945
955.33        72.68025
955.72        72.35974
956.11         70.8182
956.50        68.33344
956.89        65.81757
957.28        64.97484
957.66        66.35915
958.05        69.20644
958.44        72.53693
958.83         74.8716
959.22        75.76524
959.61        75.60627
960.00        74.67775
960.39        73.45535
960.78        72.17998
961.16        70.70628
961.55        69.17643
961.94        67.92497
962.33        67.08556
962.72        66.69088
963.11        66.59724
963.49        66.48978
963.88        66.25834
964.27        66.00554
964.66        65.71918
965.04        65.45095
965.43        65.20805
965.82         64.9823
966.21        64.95892
966.60        65.43037
966.98        66.41756
967.37         67.7825
967.76         69.1798
968.15        69.88637
968.53        69.68073
968.92          68.771
969.31        67.56371
969.69        66.58335
970.08        65.98225
970.47        65.65995
970.86        65.50121
971.24        65.29386
971.63        64.99879
972.02        64.69392
972.40        64.57113
972.79        64.94872
973.17         65.9439
973.56        67.32507
973.95        68.70562
974.33        69.36559
974.72         69.0041
975.11        67.84985
975.49        66.44972
975.88        65.57455
976.26        65.32952
976.65        65.56862
977.04        65.82323
977.42        65.05287
977.81        63.08487
978.19         60.4427
978.58        58.41121
978.96         58.1691
979.35        59.87054
979.74        63.30599
980.12        67.82492
980.51        70.88887
980.89        71.65182
981.28        70.60191
981.66        68.85073
982.05        67.84186
982.43        67.85867
982.82        68.41564
983.20        69.26041
983.59        70.06643
983.97        70.76892
984.35        71.48923
984.74         72.0359
985.12        72.22688
985.51        71.80029
985.89        70.67159
986.28        68.96168
986.66        66.70284
987.04        64.38046
987.43        62.31878
987.81        60.53799
988.20        58.77405
988.58        56.71011
988.96        53.80656
989.35        50.62743
989.73        49.79551
990.12        53.01281
990.50        59.09485
990.88        64.13924
991.27        65.11042
991.65        62.61309
992.03        57.45227
992.42        52.05295
992.80        50.69513
993.18        54.29064
993.56        60.29835
993.95         66.2502
994.33         70.0044
994.71        71.13808
995.10        70.80616
995.48        69.27496
995.86        66.66278
996.24        63.12762
996.63        58.21484
997.01        52.95773
997.39        50.80571
997.77        53.23001
998.15        59.65558
998.54        66.63123
998.92        69.32465
999.30         66.3671
999.68        58.87258
1000.06        49.21019
1000.45         43.1034
1000.83        42.59816
1001.21        45.56953
1001.59        49.90028
1001.97        53.42769
1002.35        55.62609
1002.73        57.50037
1003.12        58.11485
1003.50        54.99894
1003.88        48.23268
1004.26        39.89434
1004.64        32.87751
1005.02        29.09085
1005.40        28.38408
1005.78        30.47085
1006.16        37.05815
1006.54        48.01564
1006.92        57.58549
1007.30        63.06627
1007.69        64.84647
1008.07        64.45248
1008.45        61.98159
1008.83        55.25711
1009.21        36.50948
1009.59       -16.95774
1009.97       -140.7106
1010.35       -278.2874
1010.73       -216.6068
1011.11       -107.3928
1011.49       -37.56927
1011.86         8.35013
1012.24        33.38631
1012.62        43.66685
1013.00        44.97375
1013.38        39.42276
1013.76        28.94873
1014.14        22.06578
1014.52         26.4039
1014.90        43.96294
1015.28        68.20393
1015.66        76.53761
1016.04         57.1355
1016.41        18.88123
1016.79       -14.65307
1017.17       -22.85464
1017.55       -12.76386
1017.93        1.708874
1018.31        14.48063
1018.69        23.33896
1019.06        29.30703
1019.44        33.85489
1019.82        38.16302
1020.20        42.49928
1020.58        45.56818
1020.95        44.24368
1021.33        12.27027
1021.71        824.4111
1022.09        192.7564
1022.46         167.212
1022.84        165.3736
1023.22        176.8981
1023.60        216.1046
1023.97        618.7738
1024.35       -67.01743
1024.73        6.476053
