SpectraSmart Spectrum 2.9.0.0
--------- Device Information -----------
Spectrum Name :  反射率_0
Saving Time :  2024/04/26 00:45:39
Spectro-Module Model Name : SE2030-DUVN
Spectro-Module Serial Number : OS361AC55029948
Wavelength Start : 200
Wavelength End : 1025
Wavelength Unit : Wavelength(nm)
Spectrum Unit : Reflectance(%)
-----------Spectrum Setting ------------
Integration Time : 20ms
Average : 10
Boxcar : 0
Background removal :  enabled
linearity correction :  enabled
SC :  disabled
Intensity correction :  disabled
DWT denoise :  enabled
savitzky-golay :  disabled
FFT :  disabled
Running average :  disabled
Kalman :  disabled
High pass :  disabled
---------------BEGIN--------------------
Wavelength(nm)             Reflectance(%)
200.29               0
200.75        90.66582
201.21        86.28468
201.67        79.72452
202.13        74.90052
202.58        72.61586
203.04        72.12331
203.50        72.59624
203.96        72.87734
204.42         72.5915
204.88        72.10363
205.34        72.01649
205.80        73.05551
206.26        75.77316
206.72        81.69743
207.18        92.16367
207.64        97.48105
208.10        84.63612
208.55        67.91574
209.01        58.90738
209.47        56.96775
209.93        59.16525
210.39        64.54058
210.85        70.90237
211.31        73.18015
211.77        69.74644
212.23        62.49183
212.69        55.33508
213.14        54.44335
213.60        60.72054
214.06        72.20729
214.52         84.9513
214.98         92.9833
215.44          94.616
215.90        91.76364
216.36        86.72183
216.81        82.56653
217.27        80.57693
217.73        79.81634
218.19        78.94515
218.65        76.08993
219.11        70.33821
219.57        60.92492
220.02        49.11488
220.48        42.40574
220.94        44.94572
221.40        54.96784
221.86        64.48772
222.32        65.17766
222.77        58.18288
223.23        48.23906
223.69        40.35744
224.15        39.74156
224.61        45.73431
225.06        55.61885
225.52        65.67496
225.98        71.05997
226.44        70.83395
226.90        67.00234
227.36          62.036
227.81          59.264
228.27        59.77022
228.73        62.18504
229.19        65.28581
229.65        67.33057
230.10        67.86539
230.56        67.71626
231.02        67.45474
231.48        67.69118
231.93         68.4453
232.39        69.44017
232.85        70.32513
233.31        70.70448
233.77        70.42674
234.22        69.59952
234.68         68.3325
235.14        66.88823
235.60        65.50005
236.05        64.27665
236.51        63.13103
236.97        61.74544
237.43        59.99726
237.88        57.92608
238.34        55.92772
238.80        55.46889
239.26         57.2077
239.71        60.89581
240.17        65.07761
240.63         67.6422
241.08        67.95649
241.54        66.51134
242.00        64.09538
242.46         61.5626
242.91        58.88044
243.37        53.98521
243.83        44.07687
244.28        33.73861
244.74        60.37246
245.20        94.68667
245.66        102.8795
246.11        105.3039
246.57        107.8345
247.03         111.589
247.48        112.3849
247.94        84.26797
248.40          76.919
248.85        77.55422
249.31        79.06497
249.77        80.62277
250.22        82.53572
250.68        85.54414
251.14        89.21187
251.59        89.65176
252.05        84.44299
252.51        76.06779
252.96        68.37286
253.42        64.84208
253.88        64.70908
254.33        66.60763
254.79        70.08338
255.25         73.8019
255.70        76.94727
256.16        79.90784
256.62        81.55684
257.07        80.75829
257.53        78.22778
257.99        74.18372
258.44        70.20737
258.90        68.99605
259.35        69.57679
259.81        70.98965
260.27        71.21538
260.72         68.3129
261.18         63.2191
261.63        56.90249
262.09        51.32756
262.55        48.07878
263.00        46.98516
263.46        47.24162
263.91        47.62716
264.37        47.16246
264.83        45.68222
265.28        43.50947
265.74         41.3512
266.19        39.99658
266.65        39.69161
267.11        39.96968
267.56         40.2746
268.02        39.98753
268.47        38.98777
268.93        37.53304
269.38        35.91735
269.84        34.84475
270.30        34.51166
270.75        34.71672
271.21        35.12508
271.66        35.24567
272.12        34.93364
272.57        34.32832
273.03        33.67841
273.48        33.26418
273.94         33.1769
274.39        33.26789
274.85        33.34116
275.31        33.09948
275.76        32.48877
276.22        31.66008
276.67        30.80883
277.13        30.31705
277.58        30.18375
278.04        30.30322
278.49        30.41474
278.95        30.22838
279.40        29.66337
279.86        28.90432
280.31        28.06892
280.77        27.45193
281.22        27.07942
281.68         26.8852
282.13        26.79217
282.59        26.74281
283.04        26.68498
283.50        26.66449
283.95         26.6068
284.41        26.42344
284.86        26.09206
285.32        25.64725
285.77        25.18917
286.22        24.93996
286.68        24.91652
287.13        25.03526
287.59        25.13383
288.04        24.95245
288.50        24.47996
288.95        23.79573
289.41        23.09337
289.86        22.55291
290.32        22.27279
290.77        22.16479
291.22        22.18692
291.68        22.23893
292.13        22.28822
292.59        22.36707
293.04        22.48481
293.50        22.65881
293.95        22.87888
294.40        23.10685
294.86        23.32252
295.31        23.50792
295.77        23.66604
296.22        23.81833
296.68        23.95841
297.13        24.04477
297.58        24.10146
298.04        24.15997
298.49        24.30815
298.95        24.71585
299.40        25.38742
299.85        26.25257
300.31        27.15903
300.76        27.87772
301.21        28.32941
301.67        28.60292
302.12        28.74031
302.58        28.86306
303.03        28.99666
303.48        29.11768
303.94         29.2957
304.39        29.60412
304.84         30.0482
305.30        30.59866
305.75        31.11244
306.20        31.37564
306.66        31.37042
307.11         31.1529
307.57        30.88013
308.02        30.71488
308.47        30.73063
308.93        30.87324
309.38          31.085
309.83        31.30569
310.29        31.49438
310.74        31.65896
311.19        31.78411
311.65        31.84248
312.10        31.82831
312.55         31.7479
313.00         31.5974
313.46        31.38693
313.91         31.1263
314.36        30.83986
314.82        30.59955
315.27         30.4949
315.72        30.54589
316.18        30.72143
316.63        30.94562
317.08        31.06847
317.53         31.0446
317.99        30.90164
318.44        30.71645
318.89        30.61758
319.35         30.6275
319.80        30.71225
320.25        30.77758
320.70         30.6741
321.16         30.3753
321.61        29.93742
322.06        29.47484
322.51        29.15598
322.97         29.0127
323.42        29.00985
323.87        29.04879
324.32        28.96494
324.78        28.71525
325.23        28.35654
325.68        27.98409
326.13        27.75583
326.59        27.70543
327.04        27.79958
327.49        27.94352
327.94        27.98628
328.39        27.88592
328.85        27.67708
329.30         27.4666
329.75        27.39571
330.20        27.50339
330.66        27.72073
331.11        27.98127
331.56        28.13442
332.01         28.1336
332.46        28.00891
332.92        27.80649
333.37        27.64747
333.82        27.56479
334.27        27.54389
334.72        27.53068
335.17        27.43478
335.63        27.23956
336.08        26.98609
336.53         26.7767
336.98        26.77357
337.43         27.0028
337.88        27.41288
338.34        27.83664
338.79        28.05074
339.24        27.97539
339.69        27.67537
340.14        27.31774
340.59        27.19701
341.05        27.37478
341.50        27.74763
341.95        28.15795
342.40        28.37901
342.85        28.35889
343.30        28.18873
343.75        27.92552
344.20        27.66912
344.66        27.46935
345.11        27.26214
345.56        27.10796
346.01        27.09693
346.46        27.22087
346.91        27.46912
347.36        27.66817
347.81        27.53551
348.26         27.0457
348.72        26.32492
349.17        25.59557
349.62         25.3042
350.07        25.55372
350.52        26.18943
350.97        26.98609
351.42         27.5988
351.87        27.91622
352.32        28.03007
352.77        27.99216
353.22        27.89028
353.67        27.76419
354.13         27.5805
354.58        27.35563
355.03        27.16415
355.48        27.02565
355.93        26.95288
356.38        26.89936
356.83        26.77308
357.28        26.55769
357.73        26.27648
358.18        26.00659
358.63        25.86869
359.08        25.88227
359.53        26.00829
359.98        26.13729
360.43        26.10214
360.88        25.86874
361.33        25.48323
361.78        25.07006
362.23         24.8334
362.68        24.81369
363.13        24.93883
363.58        25.07451
364.03        25.01029
364.48         24.7041
364.93        24.24126
365.38        23.72893
365.83        23.33536
366.28        23.11532
366.73        23.00966
367.18        22.99538
367.63        23.03555
368.08        23.09734
368.53        23.19216
368.98        23.25886
369.43        23.19656
369.88        22.99569
370.33        22.68577
370.78        22.35108
371.23        22.14295
371.68         22.1033
372.13         22.1841
372.58        22.33825
373.03        22.47838
373.48        22.56296
373.93         22.6185
374.38        22.61857
374.83        22.52109
375.28        22.33238
375.72        22.05448
376.17        21.78399
376.62        21.64302
377.07        21.65909
377.52        21.78902
377.97        21.96535
378.42        22.07406
378.87        22.07664
379.32        22.00876
379.77        21.88395
380.22        21.72013
380.67        21.53338
381.11        21.32131
381.56        21.11121
382.01        20.96074
382.46        20.88224
382.91         20.8594
383.36        20.86616
383.81        20.85334
384.26        20.80482
384.71        20.73928
385.15        20.64148
385.60        20.50451
386.05        20.32385
386.50        20.09236
386.95        19.86709
387.40        19.75074
387.85        19.76359
388.29        19.87088
388.74        19.98678
389.19        19.96218
389.64        19.78004
390.09        19.47496
390.54        19.16785
390.98        19.06287
391.43        19.20894
391.88        19.52429
392.33        19.84657
392.78        19.93841
393.23        19.76952
393.67        19.42272
394.12        19.07268
394.57        18.89487
395.02         18.9286
395.47        19.10962
395.91        19.35872
396.36        19.50837
396.81        19.50859
397.26        19.39886
397.71         19.2419
398.15        19.11058
398.60        19.05272
399.05        19.04386
399.50        19.03123
399.95         18.8898
400.39        18.69263
400.84        18.40935
401.29        18.14871
401.74        18.06775
402.18        18.21216
402.63         18.5074
403.08        18.84097
403.53        19.02997
403.97        19.02597
404.42        18.88393
404.87        18.66924
405.32        18.49885
405.76        18.41251
406.21        18.37623
406.66        18.37753
407.11        18.40669
407.55        18.45945
408.00        18.54307
408.45        18.62354
408.90        18.62132
409.34        18.52129
409.79        18.34764
410.24        18.18074
410.68        18.13597
411.13        18.23709
411.58        18.45307
412.03        18.70436
412.47        18.85026
412.92        18.83455
413.37        18.70044
413.81         18.5303
414.26        18.46897
414.71        18.53869
415.15        18.69649
415.60        18.84819
416.05        18.86393
416.49        18.71463
416.94        18.45886
417.39        18.17346
417.83        17.98542
418.28        17.94193
418.73        17.99299
419.17        18.10323
419.62        18.21578
420.07         18.3077
420.51        18.39802
420.96        18.46058
421.41        18.44619
421.85        18.34843
422.30        18.20517
422.74        18.06013
423.19        18.02154
423.64        18.09225
424.08        18.25001
424.53         18.4394
424.98        18.59438
425.42        18.69273
425.87        18.73959
426.31        18.73162
426.76        18.72056
427.21        18.68817
427.65        18.49684
428.10        18.26797
428.54        18.31423
428.99          18.663
429.44        19.18655
429.88        19.65182
430.33        19.76004
430.77        19.46246
431.22        18.86105
431.66        18.21765
432.11        18.00975
432.56        18.28539
433.00        18.77773
433.45        19.25221
433.89        19.62634
434.34        19.72202
434.78         19.2419
435.23        18.55347
435.67        18.49232
436.12        19.00905
436.57        19.32528
437.01         19.3089
437.46        19.27576
437.90        19.24034
438.35        19.11774
438.79          18.938
439.24        18.79878
439.68        18.73551
440.13        18.65052
440.57        18.58791
441.02        18.86829
441.46         19.3421
441.91        19.31927
442.35        18.88338
442.80        18.73582
443.24        18.85044
443.69        18.94842
444.13         18.9528
444.58        18.74201
445.02        18.40005
445.47        18.33863
445.91         18.5118
446.36        18.51118
446.80        18.31792
447.24        18.17659
447.69        18.12714
448.13        18.10921
448.58        18.13224
449.02         18.2054
449.47        18.28722
449.91        18.30867
450.36        18.25876
450.80        18.15235
451.25        18.03878
451.69        17.98403
452.13        18.00761
452.58        18.07745
453.02        18.16435
453.47        18.22229
453.91        18.23983
454.36        18.23785
454.80        18.21651
455.24        18.17178
455.69        18.11999
456.13        18.05432
456.58        18.02306
457.02        18.07217
457.46        18.21278
457.91        18.41746
458.35        18.63204
458.79        18.76551
459.24        18.80509
459.68        18.76306
460.13         18.6925
460.57          18.633
461.01        18.62005
461.46        18.63639
461.90        18.67417
462.34        18.71455
462.79        18.74572
463.23        18.76741
463.68        18.80198
464.12        18.88665
464.56        19.02217
465.01        19.20842
465.45        19.34635
465.89        19.36173
466.34        19.26077
466.78        18.96272
467.22        18.62621
467.67        18.69695
468.11        19.11843
468.55        19.32299
468.99        19.24416
469.44        19.16528
469.88        19.15271
470.32        19.27601
470.77        19.47772
471.21        19.52277
471.65        19.39062
472.10        19.26916
472.54        19.21276
472.98        19.24139
473.42        19.36933
473.87        19.59359
474.31        19.83474
474.75        19.96485
475.20        19.96295
475.64         19.8573
476.08        19.72581
476.52        19.68846
476.97        19.77535
477.41         19.9538
477.85        20.15303
478.29        20.29658
478.74        20.36322
479.18        20.27931
479.62        20.11453
480.06        20.31332
480.50        20.47489
480.95        20.64327
481.39         20.6425
481.83         20.6261
482.27        20.59095
482.72        20.37511
483.16        20.09271
483.60        20.17076
484.04        20.64156
484.48        20.91757
484.93        21.18335
485.37        21.62696
485.81        22.30507
486.25         22.0446
486.69        30.55355
487.14        24.26892
487.58        15.58182
488.02        18.99138
488.46        21.65985
488.90        21.54228
489.34        21.89147
489.79        21.59361
490.23        22.48522
490.67        23.03627
491.11        22.99453
491.55        22.91407
491.99        22.72852
492.43        22.53351
492.88        22.41264
493.32        22.47219
493.76        22.54914
494.20         22.7604
494.64         23.0311
495.08        23.33465
495.52        23.65602
495.96        23.98642
496.41        24.24882
496.85        24.44958
497.29         24.5709
497.73        24.25069
498.17        23.82242
498.61        24.09699
499.05        25.04257
499.49         25.2319
499.93         25.2449
500.37        25.25982
500.82        25.24586
501.26         25.4515
501.70        25.76045
502.14        25.96385
502.58        26.00497
503.02        26.04019
503.46        26.06779
503.90        25.96867
504.34         25.8122
504.78        25.76848
505.22        25.85559
505.66        26.06086
506.10        26.31881
506.54        26.40777
506.98        26.27322
507.42        26.40003
507.86         26.1174
508.30        26.16123
508.74        26.33282
509.18        26.59917
509.62        26.88272
510.06        27.07326
510.50        27.14483
510.94        27.13542
511.38        27.07653
511.82         27.0146
512.26        26.97231
512.70        26.92904
513.14        26.91665
513.58        26.99037
514.02        27.14311
514.46        27.35421
514.90        27.54909
515.34        27.57424
515.78        27.37955
516.22        27.15525
516.66        26.99422
517.10        26.63371
517.54        26.10658
517.98        26.87976
518.42        26.75269
518.86         27.1038
519.30        27.25628
519.74          27.426
520.18        27.57606
520.62        27.61889
521.06        27.57106
521.50         27.4366
521.93        27.26364
522.37        27.14334
522.81        27.10218
523.25        27.11992
523.69        27.17816
524.13        27.24469
524.57        27.30344
525.01        27.36086
525.45        27.40718
525.89        27.42531
526.32        27.40922
526.76        27.36288
527.20        27.29027
527.64         27.2104
528.08        27.13668
528.52        27.04113
528.96        26.92892
529.40        26.88184
529.83        26.91655
530.27        26.73721
530.71        26.84583
531.15        26.77489
531.59        26.67751
532.03        26.54928
532.46        26.44527
532.90        26.45201
533.34        26.57204
533.78        26.77218
534.22        26.96903
534.66        27.04087
535.09        26.95823
535.53         26.7712
535.97        26.54177
536.41        26.37543
536.85        26.30808
537.28        26.31484
537.72        26.36658
538.16        26.41702
538.60        26.45238
539.04         26.4698
539.47        26.49162
539.91        26.61804
540.35        26.82394
540.79        26.97944
541.22        27.07013
541.66        27.18519
542.10        27.31771
542.54        27.40186
542.97         27.4551
543.41        27.55127
543.85        27.69552
544.29        27.88271
544.72        28.06079
545.16        28.15949
545.60        28.16788
546.04        28.10522
546.47        28.06699
546.91        28.21503
547.35        28.56013
547.79        29.05086
548.22        29.53694
548.66        29.76113
549.10        29.69197
549.53        29.45972
549.97        29.21236
550.41        29.10649
550.84        29.20052
551.28        29.45772
551.72        29.82636
552.15          30.202
552.59        30.53056
553.03        30.83686
553.46        31.08885
553.90         31.2597
554.34        31.35428
554.77        31.38175
555.21        31.29272
555.65         31.3399
556.08        31.52642
556.52         31.3863
556.96         31.6392
557.39         31.7073
557.83        31.81157
558.27        31.90486
558.70        32.01136
559.14        32.16161
559.57        32.34069
560.01        32.54903
560.45        32.72611
560.88        32.77934
561.32          32.724
561.75        32.57743
562.19         32.4389
562.63        32.41464
563.06        32.52276
563.50        32.73334
563.93        32.98661
564.37        33.20393
564.80        33.34622
565.24        33.45093
565.68        33.52274
566.11        33.57113
566.55        33.63166
566.98        33.69455
567.42        33.79512
567.85        33.98114
568.29        34.27739
568.72        34.57187
569.16        34.89589
569.60        35.35791
570.03        35.78358
570.47        35.88836
570.90        35.82202
571.34        35.16888
571.77        35.85566
572.21        35.88051
572.64        35.80627
573.08        35.68889
573.51        34.14056
573.95        35.70499
574.38        38.11853
574.82        37.30942
575.25        36.97531
575.69        35.63918
576.12        35.04455
576.56         34.8624
576.99        35.49839
577.42        37.29732
577.86        37.29134
578.29        36.95922
578.73        39.34613
579.16        36.13754
579.60        32.78318
580.03        34.06899
580.47        36.58814
580.90        37.10104
581.33        36.36964
581.77        36.18819
582.20        39.67447
582.64        39.52784
583.07        33.63319
583.51        32.73922
583.94        31.76621
584.37        32.93385
584.81        34.57086
585.24        36.33231
585.68        37.10387
586.11        36.40854
586.54        33.99854
586.98        33.11638
587.41        33.31318
587.85        34.76312
588.28        35.88201
588.71        34.34951
589.15        33.11097
589.58        33.55357
590.01        33.94038
590.45        34.50441
590.88        34.85488
591.31         34.3844
591.75        33.99376
592.18        34.04296
592.61        34.99553
593.05        35.44829
593.48        37.04498
593.91        37.48227
594.35        34.49792
594.78        33.84983
595.21         33.7086
595.65        35.38568
596.08        36.97832
596.51        35.68869
596.94        34.78275
597.38        35.25284
597.81        36.81829
598.24        37.86677
598.68        37.34125
599.11         36.8464
599.54        38.67585
599.97        39.93176
600.41        37.66763
600.84        38.12241
601.27        39.12486
601.70        38.88156
602.14        38.99526
602.57        38.78198
603.00        39.55782
603.43        40.94272
603.87        42.33024
604.30        42.33517
604.73         41.2537
605.16        40.89511
605.60        41.77145
606.03        42.98432
606.46        44.17168
606.89         44.0645
607.32         43.2584
607.76        43.47488
608.19        45.18496
608.62        44.90219
609.05        44.47525
609.48        45.02743
609.92        45.05007
610.35        45.51646
610.78         47.4067
611.21        47.92281
611.64        46.18908
612.07        46.84272
612.50        47.37399
612.94        47.95597
613.37        47.90053
613.80         48.2483
614.23        48.99718
614.66        49.22481
615.09        49.60688
615.52        49.79547
615.96        49.92093
616.39        50.14008
616.82        49.59946
617.25        49.86042
617.68        50.55235
618.11        51.16689
618.54         51.4938
618.97        51.29451
619.40        50.83967
619.84        51.04337
620.27           51.84
620.70        52.46272
621.13        52.74023
621.56        52.32631
621.99        51.53807
622.42        52.27139
622.85        54.10389
623.28        54.14776
623.71        53.47275
624.14        53.47357
624.57        53.53548
625.00          52.895
625.43        53.23558
625.86        52.61423
626.29        52.62714
626.72        52.76666
627.15        52.47786
627.58        52.47415
628.01         52.4681
628.44        52.38264
628.87        52.23253
629.30        52.23394
629.73        52.34218
630.16        52.17739
630.59        51.72748
631.02        51.17478
631.45        50.61502
631.88        50.12978
632.31        49.75394
632.74        49.46507
633.17        49.21951
633.60        48.93685
634.03        48.59271
634.46        48.23017
634.89        47.85661
635.32         47.4497
635.75        47.03393
636.18         46.6727
636.61        46.36567
637.04        46.04917
637.47        45.71482
637.89        45.40893
638.32        45.10065
638.75        44.74786
639.18        44.35454
639.61          43.947
640.04        43.55572
640.47        43.22284
640.90        42.96074
641.33        42.75167
641.76        42.57821
642.18        42.47365
642.61         42.4295
643.04        42.34143
643.47        42.16687
643.90        42.38428
644.33        42.11707
644.76        42.08382
645.18        42.04403
645.61        42.04964
646.04        42.10113
646.47        42.18072
646.90         42.3264
647.33        42.56856
647.75        42.91952
648.18        43.38488
648.61        43.83287
649.04        44.09357
649.47        44.13019
649.89        43.83222
650.32        43.51055
650.75        43.84544
651.18        44.81398
651.61        45.83225
652.03        46.59652
652.46          46.992
652.89        47.26533
653.32        47.20835
653.74        47.14869
654.17        48.62465
654.60         49.5642
655.03        48.17709
655.46        49.40187
655.88        52.56464
656.31        56.85929
656.74        135.1892
657.16        88.61889
657.59        30.73355
658.02        22.87379
658.45        39.25666
658.87        50.99126
659.30        53.45758
659.73        53.20623
660.15        51.83473
660.58        53.77008
661.01        55.38087
661.44        53.78684
661.86        53.39962
662.29        53.59254
662.72        54.41265
663.14        55.68269
663.57        55.96414
664.00        55.40329
664.42        55.49446
664.85         56.2931
665.27        56.79138
665.70        56.85319
666.13        56.86481
666.55        56.82999
666.98        56.63408
667.41        56.41147
667.83        56.42882
668.26        56.73956
668.69        57.23925
669.11        57.74269
669.54         58.2257
669.96        58.08185
670.39        57.84843
670.82         57.5412
671.24        57.44744
671.67        57.67331
672.09        58.16256
672.52        58.67331
672.94        59.19729
673.37        58.71542
673.80        58.63783
674.22        58.74239
674.65        58.83886
675.07        58.92275
675.50        58.99781
675.92        59.10079
676.35        59.32036
676.77        59.65724
677.20        60.01643
677.62        60.34846
678.05        60.56554
678.47        60.62489
678.90        60.63289
679.32        60.66687
679.75        60.55129
680.17        60.51118
680.60         61.0747
681.02        60.98616
681.45        61.18211
681.87        61.25985
682.30        61.37172
682.72        61.51271
683.15        61.48718
683.57        61.43839
684.00        61.76116
684.42        62.52481
684.85        62.87244
685.27        62.78778
685.70        62.66374
686.12        62.58207
686.54        62.51132
686.97        62.51407
687.39        62.74074
687.82        63.07705
688.24        63.26413
688.66        63.24772
689.09        63.11682
689.51        63.00206
689.94         63.1408
690.36        63.53405
690.78        63.91893
691.21        64.20989
691.63        64.45568
692.06        64.62856
692.48        64.67137
692.90        64.64616
693.33        64.69129
693.75         64.8318
694.17        65.02273
694.60        65.25366
695.02        65.45374
695.44        65.56203
695.87        65.87565
696.29        66.33239
696.71         66.0297
697.14        65.27022
697.56        65.84029
697.98        67.42177
698.41         67.4761
698.83        66.67038
699.25        66.19429
699.68        66.35142
700.10        66.37424
700.52        66.29073
700.94        66.49033
701.37        66.92043
701.79        67.39427
702.21         67.8244
702.64        68.25587
703.06         68.5857
703.48          68.649
703.90        68.44419
704.33        68.02349
704.75        67.54346
705.17        67.34673
705.59        67.52071
706.01        67.86288
706.44        68.22591
706.86        68.93928
707.28        69.00855
707.70        69.24107
708.12        69.36623
708.55        69.30637
708.97        69.10564
709.39        68.97604
709.81          68.984
710.23        69.04111
710.66        69.16348
711.08        69.47816
711.50        69.85089
711.92        70.01991
712.34        69.94559
712.76        69.67707
713.19        69.37836
713.61        69.39059
714.03        69.77146
714.45        70.25095
714.87        70.90289
715.29        71.13524
715.71        70.96169
716.13         70.4924
716.56        69.94555
716.98        69.69604
717.40         69.8345
717.82        70.25152
718.24        70.77605
718.66        71.11774
719.08        71.18899
719.50        71.08205
719.92        70.89699
720.34        70.80975
720.76        70.87635
721.19        70.92014
721.61        71.12778
722.03        71.30824
722.45        71.50103
722.87        71.71889
723.29        71.94813
723.71        72.15099
724.13         72.3099
724.55        72.42853
724.97        72.54359
725.39        72.61759
725.81        72.63558
726.23         72.7956
726.65        73.12704
727.07        72.62381
727.49        72.96163
727.91        72.82777
728.33        72.74965
728.75        72.73125
729.17        72.79767
729.59        72.90854
730.01        73.06242
730.43        73.29433
730.85          73.594
731.27        73.97516
731.69         74.3362
732.10        74.49217
732.52        74.40631
732.94        74.16819
733.36        73.95448
733.78        73.90886
734.20        74.07825
734.62        74.74638
735.04        75.64639
735.46        75.58796
735.88        74.81044
736.30        75.01187
736.72        76.19091
737.13        76.72176
737.55        76.34267
737.97        76.49568
738.39        77.12195
738.81        76.32102
739.23        74.69337
739.65        75.68732
740.06        78.68281
740.48        79.13557
740.90        77.09044
741.32        76.03239
741.74        76.33484
742.16        76.49273
742.57        76.59365
742.99        77.46237
743.41        78.77849
743.83        79.54681
744.25        79.57957
744.67        79.13242
745.08        78.51475
745.50        78.23698
745.92        78.45892
746.34         78.9996
746.75        79.64948
747.17        80.06481
747.59        80.17391
748.01        80.09588
748.42        80.01964
748.84         80.2502
749.26        80.86065
749.68        81.61582
750.09        82.36572
750.51        83.06853
750.93        83.52634
751.35        83.30594
751.76        82.65791
752.18        82.13748
752.60        82.58498
753.01        82.54861
753.43        82.30535
753.85        82.42989
754.27        82.96095
754.68        83.70562
755.10        84.45738
755.52        84.95081
755.93        85.13045
756.35         85.2031
756.77        85.33305
757.18        85.45332
757.60        85.64745
758.02         86.3525
758.43        86.95039
758.85        86.50807
759.26        84.37556
759.68        82.99727
760.10        85.37653
760.51          86.867
760.93        86.09886
761.34        84.64936
761.76         84.2033
762.18        83.50552
762.59        83.35305
763.01        83.52271
763.42        84.50803
763.84        85.34503
764.26         86.0259
764.67        86.46369
765.09         86.5842
765.50           86.68
765.92         86.6044
766.33        85.26538
766.75        83.24632
767.16        82.62836
767.58        83.61987
768.00          85.017
768.41        86.51041
768.83        88.30891
769.24        89.58771
769.66        88.80074
770.07        86.60948
770.49        84.54212
770.90         83.2494
771.32         84.4538
771.73        87.28455
772.15        86.97716
772.56        83.97681
772.97        83.20293
773.39        84.71466
773.80        85.62846
774.22        85.56634
774.63        85.61381
775.05        85.74785
775.46        85.92297
775.88        86.07011
776.29        85.90292
776.70        85.50151
777.12        85.30666
777.53        85.38738
777.95        85.54967
778.36        85.67298
778.77        85.54825
779.19         85.1984
779.60        84.72754
780.02        84.31351
780.43        84.38572
780.84        85.08126
781.26        85.55732
781.67        85.84941
782.09        87.57497
782.50        89.88383
782.91        88.85948
783.33        85.40192
783.74        84.21062
784.15        85.52827
784.57         86.4482
784.98        86.55193
785.39        86.53442
785.81        86.34283
786.22        85.84631
786.63        85.37407
787.04        85.36699
787.46        85.89011
787.87        86.86841
788.28        87.95979
788.70        88.50559
789.11        88.36156
789.52        87.76984
789.93        87.03213
790.35        86.55508
790.76        86.46168
791.17        86.67719
791.58        87.08196
792.00        87.37307
792.41        87.44992
792.82        87.56214
793.23        87.80323
793.65        87.57774
794.06        87.19604
794.47        88.37154
794.88        90.28852
795.29        89.94313
795.71        87.15694
796.12        84.93633
796.53        83.80818
796.94        83.23564
797.35         83.4043
797.76        84.79271
798.18        86.72188
798.59         87.8409
799.00         87.7244
799.41        86.68671
799.82        85.28442
800.23        84.47657
800.64         84.5069
801.06        84.98126
801.47         85.7306
801.88        86.36189
802.29        86.70909
802.70        86.93642
803.11        87.02803
803.52        86.92695
803.93        86.67002
804.34        86.21946
804.75        85.78352
805.17        85.80713
805.58        86.40945
805.99        87.19897
806.40        87.86573
806.81        88.55846
807.22        88.81316
807.63        87.26072
808.04        84.67066
808.45        83.55359
808.86        84.19366
809.27        85.42565
809.68         86.7117
810.09        87.51277
810.50        87.52132
810.91        86.92295
811.32        86.06879
811.73        85.47674
812.14         85.2996
812.55        85.46879
812.96         85.8746
813.37        85.96009
813.78        85.80076
814.19        86.34576
814.60        87.24462
815.01        87.22494
815.42        86.21152
815.83        84.75919
816.24        83.43177
816.65        82.99899
817.05         83.7383
817.46        85.39673
817.87        87.29467
818.28        88.20932
818.69        87.80033
819.10        86.35961
819.51        84.63029
819.92        83.88257
820.33        84.44463
820.74        85.92425
821.14         87.5949
821.55        88.17825
821.96        87.40781
822.37        85.74078
822.78        83.87318
823.19        82.82136
823.60        82.85285
824.00        83.70826
824.41        84.88855
824.82        85.65552
825.23        85.70896
825.64        85.32021
826.04        84.75586
826.45        84.39919
826.86        84.36241
827.27        84.46764
827.68        84.65747
828.08         84.9054
828.49        85.09909
828.90        85.33615
829.31        85.50797
829.72        85.39258
830.12        84.99364
830.53        84.36913
830.94        83.78786
831.35        83.61491
831.75        83.96709
832.16        84.68439
832.57         85.6058
832.97        86.36023
833.38        86.72055
833.79        86.77357
834.20        86.66004
834.60        86.60449
835.01        86.69674
835.42        86.85499
835.82        86.94827
836.23        86.68197
836.64        86.06584
837.04        85.24683
837.45        84.48515
837.86        84.18387
838.26        84.43845
838.67        85.06982
839.08        85.88216
839.48         86.5039
839.89        86.74575
840.29        86.72645
840.70        86.46251
841.11        85.96422
841.51         85.2998
841.92        84.45554
842.33        83.65506
842.73          83.285
843.14        83.39352
843.54        83.93297
843.95        84.60733
844.35        84.97026
844.76        84.87597
845.17        84.45867
845.57        83.92585
845.98        83.61941
846.38        83.62719
846.79        83.81052
847.19        84.07009
847.60        84.13925
848.00        83.99107
848.41        83.70538
848.81        83.41296
849.22        83.21633
849.62        83.21189
850.03        83.37347
850.43        83.71409
850.84         84.1452
851.24        84.66809
851.65        85.08404
852.05        85.57607
852.46        86.25806
852.86         87.1151
853.27        88.12677
853.67        88.68284
854.07        87.99277
854.48        86.09894
854.88        83.30003
855.29        80.61558
855.69        79.51756
856.10        80.29379
856.50        82.75701
856.90        85.99187
857.31        87.87417
857.71        87.71828
858.12         86.0779
858.52        83.95562
858.92        82.68977
859.33        82.57566
859.73        83.25523
860.13        84.43372
860.54        85.49723
860.94         86.2339
861.34        86.76171
861.75        87.13589
862.15        87.53413
862.55        87.94847
862.96        88.25532
863.36        88.35549
863.76         88.0716
864.17         87.4249
864.57        86.61244
864.97        85.87311
865.38        85.52892
865.78        85.70215
866.18        86.21317
866.58        86.98237
866.99        87.84467
867.39         88.7626
867.79        89.79971
868.19        90.63178
868.60         90.6657
869.00         89.8183
869.40        88.21282
869.80        86.68556
870.21        86.56923
870.61         88.2287
871.01        91.28603
871.41        94.68113
871.81        96.57526
872.22        96.46928
872.62         94.9268
873.02        92.98145
873.42        92.30901
873.82        93.22759
874.22        95.16335
874.63        97.47841
875.03         98.7365
875.43        98.25456
875.83        96.81416
876.23        95.10261
876.63        94.58635
877.03        95.62193
877.44        98.43211
877.84        99.08074
878.24        104.8252
878.64         103.697
879.04        100.8731
879.44        98.45644
879.84        97.46526
880.24        99.04997
880.64        101.2131
881.04        104.1139
881.44        105.8744
881.84        105.1347
882.24        102.6412
882.65        99.96333
883.05        98.99526
883.45        100.0529
883.85        102.6805
884.25        105.7902
884.65        107.3521
885.05        106.7416
885.45        104.7225
885.85        102.4226
886.25        101.3528
886.65        101.8324
887.05        103.3256
887.45        105.2648
887.85        106.6463
888.25         107.073
888.65        106.9179
889.04        106.3459
889.44         105.648
889.84        104.9608
890.24        104.1315
890.64        103.4079
891.04        103.2101
891.44        103.5697
891.84        104.4374
892.24        105.3422
892.64        105.3907
893.04        104.4703
893.44        102.9921
893.83         101.577
894.23        101.1375
894.63         101.832
895.03        103.2984
895.43        105.3092
895.83        107.4101
896.23        109.2592
896.63        110.9228
897.02        111.9367
897.42        111.5831
897.82        109.8837
898.22        107.1474
898.62        104.2738
899.01        102.5895
899.41        102.4166
899.81        103.3377
900.21        104.8202
900.61        105.9497
901.00        106.3939
901.40        106.4365
901.80        106.1839
902.20        105.7998
902.59        105.3932
902.99        104.8664
903.39        104.3375
903.79        104.0561
904.18        104.0932
904.58         104.447
904.98        105.0238
905.38         105.648
905.77        106.2022
906.17        106.6804
906.57        107.0341
906.96         107.259
907.36        107.2962
907.76        107.1542
908.15        106.7905
908.55        106.0376
908.95        104.9776
909.34        103.6897
909.74        102.4939
910.14        101.6831
910.53        101.3812
910.93        101.5718
911.33         102.168
911.72        102.9835
912.12        103.7956
912.52        104.5087
912.91        105.1505
913.31        105.8545
913.70        106.7025
914.10        107.6727
914.49        108.4257
914.89        108.0257
915.29        106.3563
915.68        103.7912
916.08        101.5401
916.47        100.6659
916.87        101.2596
917.26        102.9963
917.66        104.9157
918.05        105.4479
918.45        104.2206
918.84         101.788
919.24        99.26311
919.64        98.28432
920.03        99.25797
920.42        101.6699
920.82         104.617
921.21        106.6328
921.61        107.0474
922.00        106.3865
922.40        105.1448
922.79        103.9449
923.19        103.0328
923.58        102.2496
923.98        101.6217
924.37        101.1115
924.77        100.8483
925.16        101.0404
925.55        101.4999
925.95        102.5925
926.34        104.1499
926.74        105.8399
927.13        107.3396
927.52        107.9409
927.92         107.611
928.31        106.5729
928.70        105.0619
929.10        103.4969
929.49        102.0424
929.89        100.6627
930.28        99.77479
930.67        100.0598
931.07        101.4586
931.46        103.8007
931.85        106.1646
932.24        107.1678
932.64        106.5255
933.03        104.5307
933.42        101.7376
933.82        99.50304
934.21         98.3216
934.60        97.90704
934.99        97.98569
935.39        98.16524
935.78        98.36395
936.17        98.79911
936.56        99.27226
936.96        99.25705
937.35        98.45316
937.74         97.2797
938.13        96.43575
938.53        96.67526
938.92        97.99583
939.31        100.2913
939.70        102.8782
940.09         103.931
940.49        102.8046
940.88         100.248
941.27        97.47331
941.66        95.88642
942.05         95.6988
942.44        96.47365
942.84        97.75311
943.23        98.86359
943.62        99.42687
944.01        99.62069
944.40        99.61839
944.79        99.68089
945.18         99.8869
945.57        100.1298
945.97        100.0995
946.36        99.34608
946.75         97.9482
947.14        96.34656
947.53        95.12813
947.92        94.77313
948.31        95.26496
948.70         96.4939
949.09        98.12912
949.48        99.33403
949.87        99.68053
950.26        99.29044
950.65        98.60621
951.04        98.37156
951.43        98.74752
951.82        99.48279
952.21        100.0871
952.60         99.8035
952.99        98.50604
953.38        96.53384
953.77        94.48901
954.16        93.19282
954.55        92.84933
954.94        93.28881
955.33        94.02562
955.72        94.24052
956.11        93.72557
956.50         92.6794
956.89        91.74921
957.28        92.08774
957.66        94.02112
958.05         96.9084
958.44          99.786
958.83        101.2616
959.22        101.0014
959.61        99.34071
960.00        97.06012
960.39         95.4436
960.78        94.87954
961.16        95.10887
961.55        95.40389
961.94        94.54698
962.33        92.37291
962.72        89.49438
963.11        86.89765
963.49        85.81774
963.88        86.45842
964.27        88.50449
964.66        91.23904
965.04        93.07274
965.43        93.20858
965.82        92.14597
966.21        90.71815
966.60        90.06007
966.98        90.40943
967.37        91.33614
967.76        92.36314
968.15        92.61914
968.53        91.86346
968.92         90.4812
969.31        88.96601
969.69        87.87363
970.08        87.36845
970.47        87.31425
970.86        87.50524
971.24        87.61457
971.63         87.5042
972.02        87.23219
972.40        87.12655
972.79        87.69839
973.17        89.15218
973.56        91.18179
973.95        93.08515
974.33        93.55264
974.72        92.25594
975.11        89.73307
975.49        87.09349
975.88        85.82851
976.26         86.1548
976.65        87.75259
977.04        89.85609
977.42        90.51081
977.81        88.96964
978.19        86.00524
978.58         83.3483
978.96        82.73424
979.35        84.42716
979.74        87.99333
980.12        92.72201
980.51        95.81399
980.89         96.3922
981.28        95.14479
981.66        93.08208
982.05        91.52473
982.43        90.75867
982.82        90.39276
983.20        90.49301
983.59        91.29642
983.97        92.86419
984.35        95.26351
984.74        97.81609
985.12        99.29437
985.51        98.78962
985.89         96.5192
986.28        93.16514
986.66        89.90697
987.04        87.58846
987.43        86.21799
987.81        85.47673
988.20        84.90096
988.58        84.27195
988.96        83.46379
989.35        83.11337
989.73        85.38548
990.12         90.3495
990.50        96.39052
990.88        100.2004
991.27        99.82941
991.65        95.86928
992.03        89.00472
992.42        81.55207
992.80        77.94357
993.18        79.46021
993.56        83.80415
993.95        88.70959
994.33        92.03817
994.71        93.30759
995.10        93.57508
995.48        92.86259
995.86        90.95889
996.24        87.94315
996.63        83.38972
997.01        78.50046
997.39        76.87476
997.77        79.96467
998.15        86.92056
998.54         94.3409
998.92         97.5842
999.30        95.32098
999.68        88.77975
1000.06        79.71094
1000.45        72.65991
1000.83        69.70182
1001.21        69.38757
1001.59        70.99071
1001.97        73.82087
1002.35        77.61416
1002.73        83.47243
1003.12        89.71069
1003.50        90.87421
1003.88        84.75338
1004.26        73.95501
1004.64        64.09854
1005.02        60.19219
1005.40         62.7515
1005.78        71.95289
1006.16        88.01536
1006.54        101.1617
1006.92        102.3484
1007.30        96.56789
1007.69        90.37634
1008.07        87.64157
1008.45        88.50222
1008.83        92.65196
1009.21        103.1619
1009.59        124.5746
1009.97        150.8131
1010.35        148.0605
1010.73        106.0119
1011.11        81.69241
1011.49        73.42635
1011.86        71.88853
1012.24        71.78306
1012.62        71.82182
1013.00         71.8444
1013.38        71.58979
1013.76        72.77367
1014.14        80.29044
1014.52        97.65632
1014.90        126.0939
1015.28        157.3395
1015.66        170.3111
1016.04        153.0395
1016.41        110.2271
1016.79        64.79742
1017.17        41.04869
1017.55        37.57387
1017.93        42.32688
1018.31         49.5186
1018.69        56.78088
1019.06        64.68523
1019.44        75.43391
1019.82          91.749
1020.20        113.9405
1020.58        141.3468
1020.95        174.3213
1021.33        224.1359
1021.71       -558.1677
1022.09        62.35176
1022.46        95.37268
1022.84        106.2732
1023.22        113.1244
1023.60        123.2405
1023.97        200.8355
1024.35        74.25305
1024.73        91.95705
