SpectraSmart Spectrum 2.9.0.0
--------- Device Information -----------
Spectrum Name :  反射率_0
Saving Time :  2024/04/26 00:46:02
Spectro-Module Model Name : SE2030-DUVN
Spectro-Module Serial Number : OS361AC55029948
Wavelength Start : 200
Wavelength End : 1025
Wavelength Unit : Wavelength(nm)
Spectrum Unit : Reflectance(%)
-----------Spectrum Setting ------------
Integration Time : 20ms
Average : 10
Boxcar : 0
Background removal :  enabled
linearity correction :  enabled
SC :  disabled
Intensity correction :  disabled
DWT denoise :  enabled
savitzky-golay :  disabled
FFT :  disabled
Running average :  disabled
Kalman :  disabled
High pass :  disabled
---------------BEGIN--------------------
Wavelength(nm)             Reflectance(%)
200.29               0
200.75        90.30856
201.21        83.38501
201.67        75.59991
202.13        70.52905
202.58        68.64174
203.04        69.42408
203.50        71.79056
203.96         73.7719
204.42          74.626
204.88        74.78987
205.34        75.09995
205.80        76.74365
206.26        80.65384
206.72        88.95255
207.18        104.5825
207.64        117.4221
208.10        107.2743
208.55        88.01984
209.01        76.51627
209.47        73.83096
209.93        76.46642
210.39        82.64502
210.85        89.80289
211.31        92.06624
211.77         87.4614
212.23        78.47671
212.69        68.79076
213.14        64.00682
213.60        65.20631
214.06        70.87345
214.52         78.7832
214.98        85.44837
215.44        89.39965
215.90        91.39099
216.36        91.89627
216.81         91.3333
217.27        90.43311
217.73        89.16275
218.19        87.15821
218.65        83.81149
219.11        78.62239
219.57        70.60197
220.02        60.97009
220.48        56.41856
220.94        60.22121
221.40        70.56844
221.86        79.80607
222.32        80.08749
222.77        72.66531
223.23        62.30324
223.69        53.74496
224.15        51.93254
224.61        56.27745
225.06        64.19009
225.52        72.40469
225.98        76.73641
226.44        76.33851
226.90        72.99875
227.36        68.61526
227.81        65.68242
228.27        65.17238
228.73        66.00479
229.19        67.61582
229.65         69.2163
230.10         70.4041
230.56        71.54163
231.02        72.54036
231.48        73.28723
231.93        73.76844
232.39        73.99917
232.85        74.09088
233.31        74.34116
233.77        74.77715
234.22        75.35426
234.68         75.7317
235.14        75.28966
235.60        73.94893
236.05        72.01218
236.51        70.02158
236.97         68.6218
237.43        67.93497
237.88        67.90083
238.34        68.25272
238.80        68.64673
239.26        68.84032
239.71        69.14996
240.17        69.28123
240.63        69.32709
241.08        69.46321
241.54        69.52939
242.00        69.91723
242.46        71.34718
242.91        74.82925
243.37        82.69866
243.83        105.0435
244.28        169.3101
244.74        226.6776
245.20        175.7892
245.66        138.2235
246.11        127.6118
246.57        131.2808
247.03        153.1963
247.48        222.4328
247.94        192.9731
248.40        119.7262
248.85        96.43146
249.31        89.43601
249.77         88.5979
250.22        91.13752
250.68         97.0086
251.14         105.281
251.59        108.4381
252.05        100.7465
252.51        86.57146
252.96        73.74792
253.42        69.09764
253.88        71.51669
254.33        78.08311
254.79        86.22669
255.25        91.78481
255.70         93.6861
256.16        93.89127
256.62        92.62887
257.07        89.95996
257.53        86.64622
257.99        82.36523
258.44        78.15067
258.90        76.20565
259.35        75.65861
259.81        75.97124
260.27        75.45992
260.72        72.46591
261.18        67.81302
261.63         62.1688
262.09        57.24604
262.55        54.32549
263.00        53.20626
263.46        53.24348
263.91        53.33278
264.37        52.65409
264.83        51.03588
265.28        48.75434
265.74        46.45012
266.19        44.80661
266.65         44.1227
267.11        44.01817
267.56         44.0269
268.02        43.63584
268.47        42.71016
268.93        41.45525
269.38         40.1156
269.84        39.30236
270.30        39.15477
270.75        39.47846
271.21        39.90956
271.66        39.91769
272.12        39.37506
272.57        38.44827
273.03        37.45555
273.48        36.77935
273.94        36.54598
274.39        36.57664
274.85         36.6694
275.31        36.50691
275.76        36.00437
276.22        35.30404
276.67        34.54386
277.13        34.03043
277.58        33.75644
278.04        33.66296
278.49        33.53117
278.95        33.14212
279.40        32.43365
279.86        31.57229
280.31        30.69354
280.77        30.12461
281.22        29.87418
281.68        29.85803
282.13        29.92519
282.59        29.91978
283.04        29.77458
283.50        29.57546
283.95        29.30742
284.41        28.98168
284.86        28.60125
285.32        28.17179
285.77        27.76411
286.22         27.5598
286.68        27.55826
287.13        27.68242
287.59        27.77099
288.04        27.55882
288.50        27.03713
288.95        26.28361
289.41        25.49069
289.86        24.83394
290.32        24.42122
290.77        24.17254
291.22        24.07055
291.68        24.04856
292.13        24.07914
292.59        24.18465
293.04        24.35339
293.50        24.56924
293.95         24.8091
294.40        25.04062
294.86        25.25037
295.31        25.43178
295.77        25.59126
296.22        25.74459
296.68        25.87977
297.13        25.94868
297.58        25.97481
298.04        25.99438
298.49         26.1053
298.95         26.4915
299.40        27.16076
299.85        28.04156
300.31        28.96827
300.76        29.69055
301.21         30.1232
301.67        30.35665
302.12        30.45154
302.58        30.56097
303.03        30.71029
303.48        30.86647
303.94        31.06288
304.39        31.31675
304.84        31.62904
305.30          31.994
305.75        32.32023
306.20        32.47381
306.66        32.45591
307.11        32.29876
307.57        32.11444
308.02        31.99574
308.47        31.99994
308.93        32.09219
309.38          32.249
309.83        32.46496
310.29         32.7085
310.74        32.96425
311.19        33.17823
311.65        33.26628
312.10        33.21183
312.55        33.04316
313.00        32.79187
313.46        32.52618
313.91        32.27134
314.36        32.03009
314.82        31.85246
315.27        31.79358
315.72        31.86329
316.18        32.04526
316.63         32.2628
317.08         32.3629
317.53        32.30519
317.99        32.11687
318.44        31.89862
318.89        31.81819
319.35          31.904
319.80        32.11242
320.25        32.31397
320.70        32.29705
321.16        32.01698
321.61         31.5444
322.06        31.02552
322.51        30.68223
322.97        30.55678
323.42        30.59378
323.87        30.66926
324.32        30.57599
324.78        30.26107
325.23        29.80667
325.68        29.32142
326.13        28.98108
326.59        28.83385
327.04        28.84485
327.49        28.94614
327.94         29.0311
328.39        29.06038
328.85        29.05049
329.30        29.05957
329.75         29.1398
330.20         29.3004
330.66         29.4934
331.11        29.68002
331.56        29.75941
332.01        29.70692
332.46        29.53943
332.92        29.31486
333.37         29.1787
333.82         29.1644
334.27        29.25521
334.72        29.36474
335.17        29.34167
335.63        29.15026
336.08        28.84496
336.53        28.55117
336.98        28.47293
337.43        28.65311
337.88        29.03303
338.34        29.44132
338.79         29.6486
339.24        29.57171
339.69        29.27789
340.14        28.94228
340.59        28.86789
341.05         29.1142
341.50        29.57247
341.95        30.05629
342.40        30.30084
342.85        30.25015
343.30        30.00285
343.75        29.66012
344.20        29.39863
344.66        29.28321
345.11        29.22505
345.56        29.22285
346.01        29.27118
346.46        29.34781
346.91        29.47994
347.36         29.5507
347.81        29.36721
348.26        28.92319
348.72        28.30384
349.17        27.70235
349.62        27.51844
350.07        27.82958
350.52        28.49685
350.97        29.26923
351.42        29.76011
351.87        29.86761
352.32        29.70812
352.77         29.4046
353.22        29.15812
353.67        29.03649
354.13        28.97412
354.58        28.93626
355.03         28.9124
355.48        28.88739
355.93        28.88751
356.38        28.87232
356.83        28.76257
357.28        28.54816
357.73        28.24726
358.18        27.93198
358.63        27.72075
359.08        27.64093
359.53        27.66315
359.98        27.71129
360.43         27.6646
360.88        27.49483
361.33        27.23329
361.78        26.95925
362.23        26.80197
362.68        26.78321
363.13        26.85164
363.58        26.91049
364.03        26.81162
364.48         26.5275
364.93        26.11972
365.38        25.67244
365.83        25.31749
366.28        25.09907
366.73        24.97674
367.18        24.93066
367.63        24.92669
368.08        24.93986
368.53        24.97932
368.98        25.00802
369.43        24.96421
369.88        24.83978
370.33        24.64903
370.78        24.43568
371.23        24.28208
371.68        24.21174
372.13        24.19753
372.58        24.22197
373.03        24.25139
373.48        24.26666
373.93         24.2805
374.38        24.26471
374.83        24.17358
375.28        24.00517
375.72          23.761
376.17        23.52067
376.62        23.37617
377.07        23.34891
377.52        23.40638
377.97        23.49224
378.42        23.51326
378.87        23.44376
379.32        23.31778
379.77        23.16203
380.22        23.01237
380.67        22.88305
381.11        22.76413
381.56        22.65882
382.01        22.58264
382.46         22.5361
382.91        22.51426
383.36        22.50385
383.81        22.48023
384.26        22.43453
384.71        22.37258
385.15        22.28352
385.60        22.16986
386.05        22.02446
386.50        21.84182
386.95        21.65119
387.40        21.50749
387.85        21.43014
388.29        21.40674
388.74        21.40182
389.19        21.32379
389.64        21.16179
390.09        20.93105
390.54          20.717
390.98         20.6628
391.43        20.79922
391.88        21.06293
392.33        21.32006
392.78        21.37482
393.23        21.20658
393.67        20.88353
394.12        20.56164
394.57         20.3877
395.02        20.39638
395.47        20.53189
395.91        20.73809
396.36        20.88513
396.81        20.93091
397.26        20.89879
397.71        20.81778
398.15        20.71065
398.60        20.61987
399.05        20.54121
399.50        20.45085
399.95        20.25878
400.39        20.05296
400.84        19.78715
401.29        19.55921
401.74        19.50306
402.18        19.65715
402.63        19.95548
403.08        20.29367
403.53        20.50103
403.97        20.53065
404.42        20.42706
404.87        20.25124
405.32        20.11337
405.76          20.049
406.21        20.03027
406.66        20.03462
407.11        20.03829
407.55        20.03643
408.00        20.03429
408.45        20.02835
408.90        19.99606
409.34        19.93593
409.79        19.85838
410.24        19.78638
410.68         19.7519
411.13        19.76576
411.58        19.81736
412.03        19.89446
412.47        19.97807
412.92        20.04266
413.37        20.09295
413.81         20.1263
414.26        20.15894
414.71        20.18473
415.15        20.20105
415.60        20.18684
416.05         20.1289
416.49        20.02883
416.94         19.9077
417.39        19.78217
417.83        19.67951
418.28        19.61803
418.73        19.58162
419.17         19.5848
419.62        19.64294
420.07        19.74998
420.51        19.90118
420.96        20.03381
421.41        20.04115
421.85        19.90218
422.30        19.67823
422.74        19.44783
423.19        19.36692
423.64         19.4459
424.08        19.64907
424.53         19.8891
424.98        20.04696
425.42        20.08722
425.87        20.03129
426.31        19.91731
426.76        19.86133
427.21        19.85879
427.65        19.74855
428.10        19.61407
428.54        19.71417
428.99         20.0603
429.44        20.53819
429.88        20.94681
430.33        21.03997
430.77         20.7744
431.22        20.22991
431.66        19.64006
432.11        19.44287
432.56        19.67334
433.00        20.09709
433.45        20.49827
433.89        20.77091
434.34        20.79308
434.78        20.42023
435.23        19.94962
435.67        20.00565
436.12        20.51927
436.57        20.78452
437.01        20.70459
437.46        20.63947
437.90        20.62405
438.35        20.55248
438.79        20.43983
439.24        20.36848
439.68        20.36229
440.13        20.31791
440.57        20.27098
441.02         20.5451
441.46        20.97495
441.91        20.84675
442.35        20.27434
442.80        19.98682
443.24        19.98566
443.69        20.07602
444.13        20.16334
444.58        19.99473
445.02        19.64603
445.47        19.62031
445.91        19.86881
446.36        19.92394
446.80        19.76067
447.24        19.64601
447.69        19.61833
448.13        19.60909
448.58        19.62863
449.02        19.68664
449.47        19.74986
449.91        19.76311
450.36        19.71799
450.80        19.62635
451.25        19.52456
451.69          19.457
452.13        19.44045
452.58        19.45102
453.02        19.47694
453.47        19.49937
453.91        19.51281
454.36        19.53107
454.80        19.53877
455.24        19.50496
455.69        19.43995
456.13        19.34565
456.58        19.28695
457.02        19.33203
457.46        19.49664
457.91        19.74419
458.35        20.00537
458.79         20.1677
459.24        20.21212
459.68        20.15518
460.13        20.06148
460.57        19.98645
461.01         19.9696
461.46        19.98968
461.90        20.02624
462.34        20.04193
462.79         20.0225
463.23        19.97646
463.68        19.94605
464.12        20.00352
464.56        20.15718
465.01        20.39394
465.45         20.5926
465.89        20.65289
466.34        20.57472
466.78        20.27775
467.22        19.92905
467.67        20.00167
468.11        20.43592
468.55         20.6238
468.99        20.50677
469.44        20.40841
469.88        20.40228
470.32        20.55629
470.77        20.79694
471.21        20.85019
471.65        20.69028
472.10        20.52931
472.54        20.43206
472.98        20.42981
473.42        20.54283
473.87        20.76154
474.31        21.01352
474.75         21.1826
475.20        21.24409
475.64        21.22044
476.08        21.16025
476.52        21.13784
476.97        21.17743
477.41        21.26123
477.85        21.35509
478.29        21.44672
478.74        21.53135
479.18        21.50927
479.62        21.41981
480.06        21.68448
480.50        21.86043
480.95        22.00803
481.39        21.95801
481.83        21.90278
482.27        21.84599
482.72        21.60625
483.16        21.29741
483.60        21.35403
484.04        21.79662
484.48        22.05678
484.93        22.34652
485.37        22.79569
485.81         23.4892
486.25        23.55743
486.69        32.00998
487.14        25.79253
487.58        16.59689
488.02         20.2213
488.46        22.52798
488.90        22.55387
489.34        22.56901
489.79         22.3938
490.23         23.5196
490.67        24.16633
491.11        24.05641
491.55        23.99306
491.99        23.92315
492.43        23.78268
492.88        23.65279
493.32        23.72441
493.76        23.82191
494.20        24.02129
494.64        24.23927
495.08        24.49694
495.52        24.79373
495.96        25.03996
496.41        25.20115
496.85        25.52122
497.29        25.90156
497.73        25.56883
498.17        24.89046
498.61        25.04327
499.05        26.02939
499.49        26.20857
499.93        26.19413
500.37        26.27324
500.82        26.37125
501.26        26.63146
501.70        26.91595
502.14        27.03723
502.58        26.97894
503.02        26.97141
503.46        27.02876
503.90        27.00345
504.34        26.92342
504.78        26.90491
505.22        26.96011
505.66        27.06714
506.10        27.19169
506.54        27.25668
506.98        27.24423
507.42         27.2464
507.86        27.19016
508.30        27.23981
508.74        27.37164
509.18        27.55903
509.62        27.75806
510.06        27.90007
510.50        27.96729
510.94        27.98741
511.38          27.977
511.82        27.96064
512.26         27.9526
512.70        27.94071
513.14        27.95188
513.58        28.03209
514.02        28.17386
514.46        28.35524
514.90        28.51776
515.34        28.53591
515.78        28.36457
516.22         28.1857
516.66        28.06835
517.10        27.71567
517.54        27.15282
517.98        27.84013
518.42        27.63567
518.86        27.94339
519.30        28.10493
519.74        28.31959
520.18        28.52771
520.62        28.60614
521.06        28.55983
521.50        28.40248
521.93        28.19653
522.37        28.05603
522.81        28.01435
523.25        28.04459
523.69        28.11515
524.13        28.17431
524.57        28.20363
525.01        28.21773
525.45        28.22511
525.89        28.23723
526.32        28.25217
526.76        28.26084
527.20        28.24611
527.64        28.19515
528.08        28.11256
528.52        27.98003
528.96        27.81276
529.40        27.71066
529.83        27.69953
530.27        27.47456
530.71        27.55675
531.15        27.47244
531.59        27.38061
532.03        27.27658
532.46        27.21523
532.90        27.27948
533.34         27.4665
533.78        27.73905
534.22        28.00394
534.66        28.12764
535.09        28.07757
535.53        27.90513
535.97        27.67913
536.41        27.51755
536.85        27.45989
537.28        27.47903
537.72        27.53912
538.16        27.58344
538.60        27.59624
539.04        27.57745
539.47        27.56047
539.91        27.66323
540.35        27.86305
540.79        28.02466
541.22        28.11956
541.66        28.21905
542.10        28.31303
542.54        28.33852
542.97        28.33929
543.41        28.43142
543.85          28.625
544.29         28.9004
544.72        29.16592
545.16        29.29048
545.60        29.25154
546.04        29.08817
546.47        28.93836
546.91         29.0327
547.35        29.39872
547.79        29.96016
548.22        30.53038
548.66        30.80557
549.10        30.73415
549.53        30.44103
549.97        30.11057
550.41        29.97324
550.84        30.09966
551.28        30.42307
551.72        30.85563
552.15        31.24166
552.59        31.51584
553.03        31.71885
553.46        31.85753
553.90        31.97086
554.34        32.07608
554.77        32.12161
555.21        32.11061
555.65        32.15372
556.08        32.27822
556.52        32.07444
556.96        32.29531
557.39        32.33106
557.83         32.4155
558.27        32.52064
558.70        32.66553
559.14        32.86133
559.57        33.08412
560.01        33.33418
560.45        33.55268
560.88        33.63779
561.32        33.59932
561.75         33.4882
562.19        33.38085
562.63        33.26845
563.06        33.20942
563.50        33.36963
563.93        33.68003
564.37        33.88753
564.80        33.95271
565.24        34.02135
565.68        34.09752
566.11        34.15511
566.55        34.23067
566.98        34.27995
567.42        34.35338
567.85        34.61922
568.29        35.05297
568.72        35.32244
569.16        35.50143
569.60        35.90194
570.03        36.33202
570.47        36.50975
570.90        36.50898
571.34        35.70517
571.77        36.38309
572.21        36.68758
572.64        36.59407
573.08        36.15949
573.51        34.60809
573.95        36.12019
574.38         38.6592
574.82        37.95209
575.25        37.66957
575.69        36.48161
576.12         35.6231
576.56        35.25724
576.99        36.26825
577.42        38.28899
577.86        38.14178
578.29        37.75029
578.73         39.9749
579.16        36.70961
579.60        33.40985
580.03        34.81359
580.47        37.14467
580.90        37.75747
581.33        37.25259
581.77         36.5704
582.20        40.67901
582.64        40.22332
583.07        34.23428
583.51        33.32257
583.94        32.48831
584.37        33.65213
584.81        35.09566
585.24        37.01109
585.68        38.18355
586.11        37.32866
586.54        34.72594
586.98        33.58846
587.41        34.03141
587.85        35.60181
588.28        36.65872
588.71        35.02797
589.15        33.89003
589.58        34.34837
590.01        34.75423
590.45         35.3682
590.88        35.63385
591.31        35.13702
591.75        34.75188
592.18        34.78358
592.61        35.70038
593.05         36.1109
593.48          38.007
593.91        38.12815
594.35         35.1814
594.78        34.56614
595.21        34.61574
595.65        36.26925
596.08        37.60227
596.51        36.21472
596.94        35.32227
597.38        35.80267
597.81          37.366
598.24        38.35595
598.68        37.67267
599.11        37.51418
599.54        39.49519
599.97        40.46901
600.41        38.15627
600.84        38.50152
601.27        39.55482
601.70        39.32634
602.14        39.41641
602.57        39.21637
603.00        40.04783
603.43        41.34474
603.87        42.45946
604.30        42.67586
604.73        41.75011
605.16        41.18972
605.60         41.9605
606.03        43.13821
606.46        44.41511
606.89        44.65657
607.32        43.47802
607.76        43.33156
608.19        45.39137
608.62         45.1869
609.05        44.76783
609.48        45.22234
609.92        45.13033
610.35        45.37372
610.78        47.08562
611.21         48.2476
611.64        46.06279
612.07        46.76921
612.50        47.29924
612.94        47.81729
613.37        47.60217
613.80        47.97704
614.23        48.61533
614.66        48.59266
615.09        48.88616
615.52        49.14853
615.96        49.53104
616.39        49.85938
616.82        49.26431
617.25        49.30143
617.68        49.94014
618.11        50.51238
618.54        50.88635
618.97        50.80372
619.40        50.46623
619.84        50.50233
620.27          50.937
620.70        51.52585
621.13        52.08659
621.56        51.79504
621.99         50.8855
622.42        51.50022
622.85        53.23749
623.28        52.96262
623.71        52.65392
624.14        52.81039
624.57        52.62955
625.00        52.21827
625.43        52.54309
625.86        52.04818
626.29        52.13142
626.72         52.2079
627.15        52.02915
627.58        52.00168
628.01        51.93019
628.44        51.87927
628.87        51.86841
629.30        51.56419
629.73        51.68671
630.16        51.45681
630.59        51.09512
631.02        50.67488
631.45        50.24648
631.88        49.83963
632.31        49.46613
632.74        49.12496
633.17        48.81369
633.60        48.52819
634.03        48.26299
634.46        48.02159
634.89         47.7766
635.32        47.48151
635.75        47.12912
636.18        46.73266
636.61        46.32681
637.04        45.96711
637.47        45.66444
637.89        45.40515
638.32        45.15432
638.75        44.88485
639.18        44.59035
639.61        44.28962
640.04        43.98888
640.47        43.69153
640.90        43.40473
641.33        43.12499
641.76        42.85815
642.18        42.67868
642.61        42.59382
643.04        42.48863
643.47        42.32171
643.90         42.5731
644.33        42.35547
644.76        42.38981
645.18        42.41074
645.61        42.42903
646.04        42.43798
646.47        42.43442
646.90        42.48127
647.33        42.64767
647.75        42.95713
648.18        43.41381
648.61        43.88488
649.04        44.15765
649.47        44.20266
649.89        44.00422
650.32        43.81808
650.75        44.14149
651.18         44.9587
651.61        45.81806
652.03         46.4673
652.46         46.8158
652.89        47.07785
653.32        46.97691
653.74        46.87463
654.17         48.1613
654.60        49.18387
655.03        47.98732
655.46        49.03706
655.88        52.36686
656.31        56.58621
656.74        135.5978
657.16        88.20748
657.59        30.82535
658.02          22.647
658.45        38.89568
658.87        49.92352
659.30        53.16134
659.73         52.6086
660.15        50.45354
660.58        52.55858
661.01        54.12374
661.44        52.96617
661.86        52.86704
662.29        53.17691
662.72        53.90326
663.14        54.90586
663.57        55.05661
664.00        54.53619
664.42        54.58308
664.85        55.26652
665.27        55.79205
665.70        55.98521
666.13        56.04156
666.55        55.94178
666.98        55.62675
667.41        55.28349
667.83        55.25597
668.26        55.61604
668.69        56.23319
669.11        56.85241
669.54        57.34333
669.96        57.08878
670.39        56.63727
670.82        56.10028
671.24        55.95273
671.67        56.30974
672.09        56.97255
672.52        57.63194
672.94        58.25004
673.37         57.7948
673.80          57.638
674.22        57.60853
674.65        57.62365
675.07        57.70621
675.50        57.82771
675.92        57.99125
676.35        58.23386
676.77        58.54538
677.20        58.85421
677.62        59.13534
678.05        59.34948
678.47        59.47697
678.90        59.53928
679.32          59.578
679.75        59.55395
680.17        59.71694
680.60        59.86068
681.02        60.00798
681.45        60.03714
681.87        59.94201
682.30        59.82344
682.72        59.75337
683.15        59.71417
683.57        59.81851
684.00        60.25709
684.42        61.07384
684.85        61.52064
685.27        61.57146
685.70        61.50976
686.12        61.40739
686.54          61.356
686.97         61.3993
687.39        61.44358
687.82        61.47142
688.24        61.70659
688.66        62.03095
689.09        61.99235
689.51          61.696
689.94        61.68719
690.36        61.99705
690.78          62.369
691.21        62.72165
691.63        62.88415
692.06        62.79239
692.48        63.16795
692.90        62.87837
693.33        62.99013
693.75        63.16994
694.17        63.42117
694.60        63.70071
695.02        63.90905
695.44        63.99323
695.87        64.22602
696.29        64.59038
696.71         64.3115
697.14        63.67948
697.56        64.33644
697.98        65.94807
698.41        66.04283
698.83        65.24125
699.25        64.74899
699.68        64.89714
700.10        64.78198
700.52         64.3939
700.94        65.03939
701.37        65.05421
701.79        65.56112
702.21        65.99149
702.64        66.42929
703.06         66.7633
703.48        66.84357
703.90        66.68262
704.33        66.31728
704.75        65.88614
705.17        65.70054
705.59        65.84317
706.01        66.11908
706.44        66.42531
706.86        67.15133
707.28        67.33607
707.70        67.73858
708.12        68.02881
708.55        68.03426
708.97        67.77892
709.39        67.49772
709.81        67.31255
710.23        67.23938
710.66        67.32646
711.08        67.66819
711.50          68.095
711.92        68.28584
712.34        68.18004
712.76        67.86353
713.19        67.51962
713.61        67.47409
714.03        67.78514
714.45        68.34404
714.87        68.93013
715.29            69.2
715.71        69.07591
716.13        68.67232
716.56        68.18578
716.98        67.96008
717.40        68.08186
717.82        68.44663
718.24        68.90245
718.66        69.19921
719.08        69.26952
719.50        69.16521
719.92        68.96712
720.34        68.91719
720.76        69.08658
721.19        68.90919
721.61        69.25751
722.03        69.38783
722.45        69.54545
722.87        69.72292
723.29        69.92265
723.71        70.11979
724.13        70.29384
724.55        70.45557
724.97        70.61832
725.39        70.70699
725.81        70.70148
726.23        70.80894
726.65        71.09383
727.07        70.61501
727.49        71.04351
727.91        71.05591
728.33        71.13138
728.75        71.20063
729.17        71.26555
729.59        71.30666
730.01        71.35581
730.43        71.49949
730.85        71.74935
731.27         72.1143
731.69        72.47648
732.10        72.62244
732.52        72.50599
732.94        72.22294
733.36        71.98607
733.78         71.9675
734.20        72.20785
734.62        73.05678
735.04        74.17351
735.46        74.02588
735.88        72.94347
736.30        73.15921
736.72         74.6217
737.13        75.17726
737.55        74.54639
737.97        74.43077
738.39        74.85827
738.81        74.10369
739.23        72.69952
739.65         73.6596
740.06        76.39355
740.48        76.81841
740.90        74.98347
741.32        74.07143
741.74        74.40833
742.16         74.5648
742.57        74.62038
742.99        75.36703
743.41        76.54713
743.83         77.2866
744.25        77.42314
744.67         77.1787
745.08        76.79581
745.50        76.67036
745.92        76.92371
746.34        77.40675
746.75        77.95066
747.17        78.26043
747.59        78.28542
748.01        78.18459
748.42        78.12144
748.84        78.23943
749.26        78.66478
749.68        79.44743
750.09        80.39697
750.51        81.21352
750.93        81.67395
751.35        81.37244
751.76        80.54321
752.18         80.1888
752.60        80.33614
753.01        80.20592
753.43        79.85747
753.85        79.95097
754.27        80.53353
754.68         81.3494
755.10        82.18363
755.52        82.85158
755.93        83.23034
756.35        83.26246
756.77         83.1463
757.18        83.18304
757.60        83.45721
758.02        84.15892
758.43        84.70609
758.85        84.60281
759.26        81.95371
759.68        81.49265
760.10        82.50951
760.51        83.55168
760.93        83.64061
761.34        82.97408
761.76        82.32912
762.18         81.5573
762.59        81.18753
763.01        81.49653
763.42         82.4437
763.84        83.19147
764.26        83.59313
764.67        83.79233
765.09         83.7976
765.50        83.92263
765.92        83.97944
766.33        82.84235
766.75        81.04213
767.16        80.34064
767.58        80.97544
768.00        82.53463
768.41         84.6741
768.83        85.84299
769.24        86.30418
769.66        85.78033
770.07        84.85725
770.49        83.00662
770.90        80.94699
771.32        81.79172
771.73        84.77103
772.15        84.48137
772.56        81.35706
772.97        80.63958
773.39        82.30808
773.80        83.06548
774.22        82.60469
774.63         82.5176
775.05        82.79671
775.46         83.0229
775.88        83.12572
776.29        83.05733
776.70        82.89083
777.12         82.9267
777.53        83.21049
777.95        83.57931
778.36        83.88354
778.77        83.85463
779.19        83.48995
779.60        82.93755
780.02        82.40903
780.43        82.23843
780.84        82.62277
781.26         83.1178
781.67        83.65769
782.09        85.10515
782.50        86.73582
782.91        85.62931
783.33        82.65711
783.74        81.64552
784.15        82.79057
784.57        83.88052
784.98        84.43294
785.39        84.17037
785.81        83.48828
786.22        83.18992
786.63        83.51293
787.04         83.7686
787.46        83.97682
787.87        84.65565
788.28        85.59287
788.70        86.04711
789.11        85.90038
789.52        85.52474
789.93         85.0779
790.35        84.45881
790.76        83.87924
791.17         83.9808
791.58        84.62639
792.00          84.842
792.41        84.50475
792.82        84.41158
793.23        84.54441
793.65        84.19079
794.06        83.66357
794.47        84.96667
794.88        87.27102
795.29        87.07278
795.71        84.57803
796.12        82.60468
796.53        81.73479
796.94        81.07874
797.35        80.88618
797.76        82.10659
798.18         84.1236
798.59        85.27782
799.00        85.15011
799.41        84.28763
799.82        83.17223
800.23        82.50755
800.64        82.50539
801.06         82.8536
801.47        83.42389
801.88        83.90557
802.29        84.15943
802.70         84.2925
803.11        84.32531
803.52        84.26762
803.93        84.16911
804.34        84.00686
804.75        83.82273
805.17        83.85467
805.58        84.19675
805.99         84.2921
806.40        84.16171
806.81        85.05507
807.22        86.35913
807.63        85.33144
808.04        82.60236
808.45        81.49324
808.86        82.24923
809.27        83.13251
809.68        83.73016
810.09        84.08892
810.50        84.03371
810.91        83.59883
811.32         83.0119
811.73        82.63616
812.14        82.57557
812.55        82.68444
812.96        82.96371
813.37        83.39404
813.78        83.90987
814.19        84.55968
814.60        85.05022
815.01        84.92156
815.42        84.13183
815.83         82.7823
816.24        81.39664
816.65         80.9057
817.05        81.58172
817.46        83.11784
817.87        84.88675
818.28        85.75287
818.69        85.40366
819.10         84.1374
819.51        82.58377
819.92        81.86983
820.33        82.30309
820.74        83.36389
821.14         84.5439
821.55        85.33398
821.96        85.33276
822.37         83.9743
822.78        81.89857
823.19        80.82143
823.60        81.00705
824.00         81.7278
824.41        82.55894
824.82        83.18511
825.23        83.37148
825.64        83.24667
826.04         82.9693
826.45        82.76342
826.86        82.69726
827.27        82.66457
827.68        82.64117
828.08        82.64273
828.49        82.59732
828.90        82.59237
829.31         82.5839
829.72        82.46593
830.12        82.25613
830.53        81.96741
830.94        81.75901
831.35        81.83877
831.75        82.28331
832.16        82.96825
832.57        83.76366
832.97        84.36965
833.38        84.60181
833.79        84.53314
834.20        84.32143
834.60        84.21416
835.01        84.30284
835.42        84.50826
835.82        84.68217
836.23        84.49377
836.64        83.93067
837.04        83.13431
837.45        82.36468
837.86        82.02671
838.26        82.22389
838.67         82.7973
839.08        83.53819
839.48        84.05597
839.89        84.17587
840.29        84.02131
840.70        83.70047
841.11        83.36484
841.51        83.08102
841.92        82.76973
842.33        82.48228
842.73        82.32391
843.14        82.27633
843.54        82.38486
843.95        82.49902
844.35        82.42339
844.76        82.11368
845.17        81.64885
845.57         81.2045
845.98        81.06657
846.38        81.28751
846.79         81.7407
847.19        82.29461
847.60        82.61105
848.00         82.6265
848.41         82.4226
848.81         82.1161
849.22         81.8058
849.62        81.60255
850.03        81.48484
850.43        81.54873
850.84        81.86081
851.24        82.46773
851.65        83.14914
852.05        83.97283
852.46        84.85074
852.86        85.71021
853.27        86.58019
853.67        86.95627
854.07        86.21201
854.48        84.42287
854.88        81.83334
855.29        79.36539
855.69        78.34971
856.10         79.0405
856.50        81.28261
856.90        84.25732
857.31        86.04588
857.71        86.02731
858.12        84.67751
858.52        82.85298
858.92        81.70702
859.33        81.49191
859.73        81.88212
860.13        82.66873
860.54        83.42348
860.94        84.02537
861.34        84.58961
861.75        85.05255
862.15        85.38443
862.55        85.54704
862.96         85.4818
863.36        85.32873
863.76         85.3111
864.17        85.48706
864.57        85.85493
864.97        86.28541
865.38        86.55939
865.78        86.67332
866.18        86.61755
866.58        86.53514
866.99        86.64862
867.39        87.08003
867.79        87.80293
868.19        88.49434
868.60        88.54762
869.00         87.8522
869.40        86.57707
869.80        85.46141
870.21        85.65065
870.61        87.45265
871.01        90.49052
871.41        93.77693
871.81        95.63441
872.22        95.59538
872.62        94.15848
873.02        92.27337
873.42        91.49618
873.82        92.12209
874.22        93.60425
874.63        95.35782
875.03        96.14249
875.43        95.41511
875.83        94.06588
876.23        92.32703
876.63        91.87279
877.03        92.98901
877.44        95.96626
877.84        99.73966
878.24        103.2996
878.64         102.287
879.04        99.54514
879.44        96.50123
879.84        94.97171
880.24        96.87051
880.64        98.90375
881.04        101.2754
881.44         102.661
881.84        101.9078
882.24        99.68375
882.65         97.3927
883.05        96.66681
883.45        97.78122
883.85        100.3504
884.25        103.4068
884.65        105.1108
885.05        104.8621
885.45        103.3343
885.85        101.4299
886.25        100.3612
886.65        100.4119
887.05        101.1369
887.45        102.2236
887.85        103.1325
888.25        103.6114
888.65        103.9096
889.04        103.9269
889.44        103.5203
889.84        102.7318
890.24        101.5685
890.64        100.4845
891.04        100.2088
891.44        100.8447
891.84         102.207
892.24        103.7085
892.64         104.261
893.04        103.6397
893.44        102.2944
893.83        100.8338
894.23        100.1443
894.63        100.4093
895.03        101.2946
895.43        102.6456
895.83        104.1585
896.23        105.5888
896.63        107.0128
897.02        108.0241
897.42        107.9662
897.82         106.813
898.22        104.7875
898.62        102.6323
899.01         101.459
899.41        101.5274
899.81         102.479
900.21         103.782
900.61        104.5429
901.00        104.4895
901.40        103.9281
901.80        103.1376
902.20        102.5387
902.59        102.2897
902.99        102.2427
903.39        102.3148
903.79        102.3917
904.18        102.4182
904.58        102.4532
904.98         102.578
905.38        102.9082
905.77        103.3943
906.17        103.9512
906.57        104.3479
906.96        104.2995
907.36        103.7341
907.76        102.8083
908.15         101.741
908.55        100.7837
908.95         100.116
909.34        99.64898
909.74        99.49104
910.14        99.60885
910.53        99.98591
910.93        100.6741
911.33        101.5116
911.72        102.2034
912.12        102.5705
912.52        102.5942
912.91        102.5244
913.31        102.7497
913.70        103.3778
914.10        104.3363
914.49          105.22
914.89        104.9189
915.29        103.2336
915.68        100.6317
916.08        98.30876
916.47        97.31194
916.87        97.74029
917.26        99.24754
917.66        101.0039
918.05        101.6758
918.45        100.9185
918.84        99.20273
919.24        97.39698
919.64        96.76785
920.03        97.63272
920.42        99.55441
920.82        101.8563
921.21        103.5085
921.61        103.9726
922.00        103.6379
922.40        102.7572
922.79        101.6253
923.19        100.4351
923.58        99.10889
923.98        97.82025
924.37        97.01192
924.77        96.99983
925.16        97.11845
925.55        98.35641
925.95        99.81467
926.34        101.6123
926.74        103.4324
927.13        105.0143
927.52        105.7339
927.92        105.5676
928.31        104.7039
928.70        103.2942
929.10        101.6374
929.49        99.88623
929.89        98.06334
930.28        96.71914
930.67        96.74615
931.07        98.15312
931.46        100.7305
931.85        103.4373
932.24        104.6973
932.64        104.1791
933.03         102.217
933.42         99.4724
933.82        97.48933
934.21        96.76449
934.60        96.87767
934.99         97.4175
935.39        97.87558
935.78        98.17067
936.17        98.58405
936.56        98.90018
936.96        98.70746
937.35        97.62575
937.74        96.20152
938.13        95.21026
938.53        95.53514
938.92        97.15256
939.31        99.97446
939.70        103.0534
940.09        103.9335
940.49        101.8546
940.88        97.90024
941.27         93.8641
941.66        91.81287
942.05        92.00305
942.44        93.76244
942.84        96.33721
943.23        98.47216
943.62        99.54527
944.01        99.89717
944.40        99.77225
944.79        99.55882
945.18        99.39211
945.57         99.0368
945.97        98.35061
946.36        97.32664
946.75        96.17014
947.14        95.19685
947.53        94.57714
947.92        94.32689
948.31        94.40871
948.70         94.8142
949.09        95.51961
949.48         96.4047
949.87        97.30558
950.26         98.0997
950.65        98.74255
951.04        99.26044
951.43        99.63707
951.82        99.83125
952.21        99.64007
952.60        98.80077
952.99         97.3521
953.38        95.45856
953.77        93.59598
954.16        92.41438
954.55        92.04683
954.94        92.39088
955.33        92.95643
955.72        92.89026
956.11        91.99003
956.50        90.46304
956.89        88.99397
957.28        88.83127
957.66         90.3798
958.05        93.02793
958.44         95.8664
958.83         97.5585
959.22        97.75739
959.61        96.75744
960.00        95.25076
960.39        94.37495
960.78        94.45541
961.16        95.25122
961.55         95.9932
961.94        95.41014
962.33        93.32332
962.72        90.32862
963.11        87.54931
963.49         86.4257
963.88        87.19743
964.27        89.53438
964.66         92.5318
965.04        94.20048
965.43        93.67665
965.82        91.67045
966.21        89.35938
966.60        88.28055
966.98        88.72395
967.37         90.1318
967.76        91.85699
968.15        92.68054
968.53        92.20414
968.92         90.9058
969.31        89.34042
969.69         88.1611
970.08         87.5703
970.47        87.37326
970.86        87.40479
971.24        87.43134
971.63        87.33914
972.02         87.2013
972.40         87.2532
972.79          87.807
973.17        89.02719
973.56        90.67103
973.95        92.20552
974.33        92.63365
974.72         91.6713
975.11        89.67616
975.49        87.59571
975.88        86.75291
976.26        87.33393
976.65        89.10497
977.04        91.18864
977.42        91.41865
977.81         89.0705
978.19        85.03915
978.58        81.44521
978.96        80.45747
979.35         82.3726
979.74        86.70386
980.12        92.40303
980.51        95.84746
980.89        95.89027
981.28        93.55686
981.66        90.38843
982.05        88.35585
982.43        87.82735
982.82        88.14053
983.20        89.12469
983.59        90.70516
983.97        92.84832
984.35        95.72609
984.74        98.68726
985.12        100.5024
985.51        100.2485
985.89        98.11971
986.28        94.72041
986.66        91.18993
987.04         88.4363
987.43        86.52267
987.81        85.40599
988.20        84.95053
988.58          85.033
988.96        85.71062
989.35        87.40082
989.73        90.71175
990.12        94.48534
990.50        97.76735
990.88        98.96883
991.27        97.47472
991.65        93.76932
992.03        88.12204
992.42        82.17178
992.80        79.05014
993.18        79.77493
993.56         82.6972
993.95        86.23351
994.33        89.00426
994.71        90.56585
995.10        91.62273
995.48        91.91608
995.86        90.82873
996.24        88.31982
996.63        84.16681
997.01        79.55428
997.39         77.9881
997.77        80.92956
998.15        87.45493
998.54        94.56818
998.92        98.32088
999.30        97.49814
999.68        93.21473
1000.06        86.57286
1000.45        80.58231
1000.83        76.90403
1001.21        74.81361
1001.59        74.42361
1001.97        75.92103
1002.35        79.14225
1002.73        84.76048
1003.12        91.31385
1003.50        93.76142
1003.88        89.61959
1004.26        81.17214
1004.64        72.80693
1005.02        68.32502
1005.40        67.98038
1005.78         71.2338
1006.16        78.72232
1006.54        87.19827
1006.92        91.47853
1007.30        92.23876
1007.69         91.6356
1008.07         91.4565
1008.45        92.20003
1008.83         93.6935
1009.21        96.22823
1009.59        98.29299
1009.97        89.75896
1010.35        59.40816
1010.73        46.44332
1011.11        56.38291
1011.49        68.13783
1011.86        78.77664
1012.24        84.92531
1012.62        86.39874
1013.00         84.5952
1013.38        79.58412
1013.76        73.99177
1014.14        77.56748
1014.52        98.79973
1014.90        141.4713
1015.28        194.0149
1015.66        221.6645
1016.04        203.4668
1016.41         144.941
1016.79        80.71797
1017.17        49.51042
1017.55        48.08656
1017.93        57.87841
1018.31        68.70774
1018.69        74.95504
1019.06        76.97758
1019.44        76.41131
1019.82        74.98923
1020.20        78.27621
1020.58        94.60615
1020.95        135.8879
1021.33        230.6268
1021.71        -920.423
1022.09        28.67603
1022.46          87.312
1022.84        108.9984
1023.22        120.2522
1023.60        130.8091
1023.97         198.034
1024.35        92.67192
1024.73        111.1026
