SpectraSmart Spectrum 2.9.0.0
--------- Device Information -----------
Spectrum Name :  反射率_0
Saving Time :  2024/04/26 00:31:20
Spectro-Module Model Name : SE2030-DUVN
Spectro-Module Serial Number : OS361AC55029948
Wavelength Start : 200
Wavelength End : 1025
Wavelength Unit : Wavelength(nm)
Spectrum Unit : Reflectance(%)
-----------Spectrum Setting ------------
Integration Time : 20ms
Average : 10
Boxcar : 0
Background removal :  enabled
linearity correction :  enabled
SC :  disabled
Intensity correction :  disabled
DWT denoise :  enabled
savitzky-golay :  disabled
FFT :  disabled
Running average :  disabled
Kalman :  disabled
High pass :  disabled
---------------BEGIN--------------------
Wavelength(nm)             Reflectance(%)
200.29               0
200.75        97.29129
201.21         94.2215
201.67        89.15347
202.13        84.85271
202.58        81.97714
203.04        80.13348
203.50        79.24219
203.96        79.38915
204.42         80.2681
204.88        81.57978
205.34        83.08947
205.80        84.71938
206.26        86.85848
206.72        90.75842
207.18         96.9193
207.64        98.58624
208.10        88.62163
208.55        76.86233
209.01        71.42757
209.47        71.94257
209.93        76.30592
210.39        84.13504
210.85        92.76548
211.31        95.65533
211.77         90.7252
212.23        80.36108
212.69        69.88052
213.14        67.60677
213.60        74.84378
214.06        88.95999
214.52        104.5959
214.98        113.5247
215.44        113.6894
215.90        108.0894
216.36        100.0165
216.81        93.89918
217.27        91.46904
217.73        91.28556
218.19        91.85467
218.65        91.36663
219.11        89.11982
219.57        84.85337
220.02        80.06793
220.48        80.35392
220.94        87.42502
221.40        98.73709
221.86         106.587
222.32        103.8997
222.77        92.78488
223.23        78.60546
223.69        67.08661
224.15        64.11346
224.61        68.93328
225.06        78.56184
225.52        88.82473
225.98        94.14404
226.44        93.46912
226.90        88.98772
227.36        83.66256
227.81        81.53504
228.27        83.69444
228.73        88.32405
229.19        93.40524
229.65        96.08176
230.10        95.79701
230.56        94.07655
231.02        92.10042
231.48        91.16971
231.93        91.38676
232.39        92.27784
232.85        93.32455
233.31        93.92431
233.77        93.86653
234.22         93.3962
234.68        92.60884
235.14        91.73522
235.60        90.95087
236.05        90.23512
236.51        89.55091
236.97        88.77062
237.43        87.79068
237.88        86.65007
238.34         85.3597
238.80        84.68812
239.26        84.98771
239.71        86.39086
240.17        87.77483
240.63         87.7705
241.08        86.18589
241.54        83.46099
242.00        80.74807
242.46        79.45682
242.91        80.47308
243.37         84.8371
243.83        100.0923
244.28        150.8984
244.74         208.195
245.20        176.5263
245.66        147.9281
246.11        141.0524
246.57        147.8748
247.03        175.3351
247.48        255.9536
247.94        212.3884
248.40        125.6477
248.85        99.19913
249.31        91.67839
249.77        91.39476
250.22         95.2828
250.68        103.4998
251.14        115.6528
251.59        123.3943
252.05        118.7225
252.51        105.7985
252.96         92.2342
253.42         85.2223
253.88         84.2554
254.33        86.61506
254.79        91.71993
255.25        98.04343
255.70        104.0031
256.16        109.7986
256.62        113.6107
257.07        113.5541
257.53        110.7592
257.99        105.9031
258.44        100.7934
258.90        98.65961
259.35        98.48032
259.81        99.27189
260.27        99.17506
260.72        96.41116
261.18        91.88631
261.63        86.26196
262.09        81.09446
262.55        77.29211
263.00        74.79597
263.46        73.33164
263.91        72.12624
264.37        70.85842
264.83        69.24094
265.28        67.30325
265.74        65.38483
266.19         63.6393
266.65        62.37627
267.11        61.45465
267.56        60.60588
268.02        59.57541
268.47        58.20792
268.93         56.6162
269.38        55.02376
269.84        54.03347
270.30        53.77976
270.75        54.08791
271.21        54.52408
271.66        54.42693
272.12         53.6542
272.57        52.38702
273.03        51.05365
273.48        50.19306
273.94        49.96096
274.39        50.10279
274.85        50.30504
275.31        50.06283
275.76           49.26
276.22        48.12999
276.67        46.90479
277.13        46.06039
277.58        45.60658
278.04        45.43417
278.49        45.25294
278.95        44.78539
279.40        43.92672
279.86        42.88192
280.31           41.77
280.77        40.91862
281.22        40.34415
281.68        39.99466
282.13        39.74125
282.59        39.48695
283.04        39.16283
283.50        38.84345
283.95        38.50409
284.41        38.15809
284.86        37.78346
285.32        37.37879
285.77        36.96249
286.22        36.65199
286.68        36.44432
287.13        36.28666
287.59        36.06992
288.04        35.59264
288.50        34.87741
288.95        33.97837
289.41        33.09513
289.86        32.39444
290.32        31.97978
290.77        31.76447
291.22        31.70142
291.68        31.67504
292.13        31.64354
292.59        31.64016
293.04        31.68223
293.50        31.81007
293.95        32.00997
294.40        32.23108
294.86        32.42871
295.31        32.54499
295.77        32.57333
296.22        32.54153
296.68         32.4626
297.13        32.32969
297.58        32.17869
298.04        32.03828
298.49        31.98001
298.95        32.14877
299.40        32.54598
299.85        33.11942
300.31        33.74512
300.76        34.23628
301.21        34.52355
301.67        34.67929
302.12        34.72161
302.58        34.74652
303.03        34.76347
303.48        34.76365
303.94         34.8063
304.39        34.94491
304.84         35.1909
305.30        35.52018
305.75        35.83165
306.20        35.98276
306.66        35.96619
307.11        35.81198
307.57        35.62027
308.02        35.45787
308.47        35.38405
308.93        35.37719
309.38        35.42854
309.83        35.56094
310.29         35.7519
310.74        35.97216
311.19        36.17459
311.65        36.28442
312.10        36.27694
312.55        36.17604
313.00        35.97175
313.46        35.66512
313.91        35.27325
314.36        34.82532
314.82        34.42918
315.27        34.22568
315.72        34.24651
316.18        34.45024
316.63        34.72587
317.08        34.86198
317.53        34.79568
317.99        34.56737
318.44         34.2896
318.89        34.14877
319.35        34.17806
319.80        34.32716
320.25         34.4542
320.70        34.33199
321.16        33.91998
321.61         33.3032
322.06        32.65594
322.51        32.23861
322.97        32.09838
323.42         32.1648
323.87        32.28853
324.32        32.21897
324.78         31.8856
325.23        31.38052
325.68        30.81507
326.13        30.37248
326.59        30.10744
327.04        29.98405
327.49        29.94866
327.94        29.91983
328.39        29.86593
328.85        29.80147
329.30        29.77467
329.75         29.8152
330.20        29.92545
330.66        30.06365
331.11        30.19662
331.56        30.23186
332.01        30.14666
332.46        29.95335
332.92        29.70699
333.37        29.55062
333.82        29.51759
334.27        29.59468
334.72        29.69731
335.17        29.67669
335.63        29.49567
336.08        29.20175
336.53        28.92054
336.98        28.85876
337.43        29.05436
337.88        29.44442
338.34        29.83834
338.79        29.97602
339.24        29.77111
339.69        29.30468
340.14        28.78048
340.59        28.55453
341.05        28.70582
341.50        29.11177
341.95        29.57726
342.40        29.81773
342.85         29.7687
343.30        29.54181
343.75        29.21317
344.20        28.91806
344.66         28.7166
345.11        28.52225
345.56        28.39709
346.01        28.43673
346.46        28.62512
346.91         28.9519
347.36         29.2028
347.81        29.02924
348.26        28.40182
348.72        27.47231
349.17        26.53048
349.62        26.13591
350.07        26.41656
350.52        27.17568
350.97        28.13121
351.42        28.85019
351.87        29.19141
352.32        29.27266
352.77        29.15231
353.22        28.92835
353.67        28.65681
354.13        28.30781
354.58        27.92652
355.03        27.63547
355.48        27.46561
355.93         27.4171
356.38        27.42824
356.83        27.37788
357.28        27.23196
357.73         27.0145
358.18        26.78299
358.63        26.62993
359.08        26.57383
359.53        26.58682
359.98        26.58795
360.43        26.45609
360.88        26.17331
361.33        25.77873
361.78        25.39008
362.23        25.19649
362.68        25.22981
363.13         25.4187
363.58        25.62362
364.03        25.62663
364.48        25.37961
364.93        24.96226
365.38        24.47515
365.83        24.07988
366.28        23.83193
366.73        23.67783
367.18        23.60184
367.63        23.57991
368.08        23.58546
368.53        23.62723
368.98        23.65353
369.43        23.57438
369.88        23.38114
370.33        23.10629
370.78        22.80793
371.23        22.59291
371.68         22.4957
372.13        22.47674
372.58          22.539
373.03        22.68104
373.48        22.87441
373.93         23.1123
374.38        23.29502
374.83        23.27043
375.28         23.0206
375.72        22.58169
376.17        22.10951
376.62        21.82405
377.07        21.78466
377.52        21.92324
377.97        22.13796
378.42        22.25806
378.87        22.23177
379.32        22.11905
379.77        21.95842
380.22        21.80161
380.67        21.66817
381.11        21.53438
381.56        21.40788
382.01        21.31709
382.46        21.26374
382.91        21.24432
383.36        21.23066
383.81        21.17041
384.26        21.05574
384.71        20.90939
385.15        20.74738
385.60        20.60859
386.05        20.49348
386.50        20.38064
386.95        20.28621
387.40        20.23996
387.85        20.24191
388.29           20.28
388.74        20.30567
389.19        20.21634
389.64          20.004
390.09        19.68977
390.54        19.37719
390.98        19.24304
391.43        19.33335
391.88        19.58198
392.33        19.84929
392.78        19.92734
393.23        19.78886
393.67        19.50213
394.12        19.22061
394.57        19.09327
395.02        19.15229
395.47        19.33765
395.91        19.58027
396.36        19.73066
396.81        19.74302
397.26        19.65138
397.71        19.50294
398.15        19.34754
398.60        19.23606
399.05        19.16043
399.50         19.0923
399.95        18.93842
400.39        18.77789
400.84        18.56911
401.29        18.40816
401.74        18.42599
402.18        18.65317
402.63        19.01698
403.08        19.40083
403.53        19.61969
403.97        19.62616
404.42        19.47251
404.87         19.2315
405.32        19.03502
405.76         18.9294
406.21        18.88259
406.66        18.87662
407.11        18.89125
407.55        18.91966
408.00         18.9695
408.45        19.01884
408.90        19.00985
409.34        18.93126
409.79        18.80074
410.24        18.67206
410.68        18.62253
411.13        18.67171
411.58        18.80031
412.03        18.96307
412.47        19.08107
412.92        19.11393
413.37        19.08318
413.81        19.03377
414.26        19.05398
414.71        19.15042
415.15        19.29615
415.60        19.41499
416.05        19.40693
416.49        19.25218
416.94        18.99716
417.39        18.71287
417.83        18.51814
418.28        18.45788
418.73        18.49058
419.17        18.57951
419.62        18.66244
420.07        18.71796
420.51        18.76638
420.96        18.79316
421.41        18.77124
421.85        18.69316
422.30        18.58145
422.74        18.46413
423.19        18.42768
423.64        18.47051
424.08        18.58415
424.53        18.70503
424.98        18.75716
425.42        18.72732
425.87        18.62507
426.31        18.49948
426.76        18.48041
427.21         18.5605
427.65        18.58129
428.10        18.57828
428.54        18.72466
428.99        19.01693
429.44        19.36538
429.88        19.62004
430.33        19.62597
430.77        19.35389
431.22        18.82688
431.66        18.26688
432.11        18.11707
432.56        18.40653
433.00        18.89748
433.45        19.36396
433.89        19.66735
434.34        19.67619
434.78        19.26598
435.23        18.73644
435.67        18.69656
436.12        19.08636
436.57        19.24193
437.01        19.09622
437.46        19.01505
437.90        19.03422
438.35        19.04783
438.79        19.03545
439.24        19.01888
439.68        19.00781
440.13        18.92068
440.57        18.81687
441.02        19.03831
441.46        19.44435
441.91        19.36233
442.35        18.87885
442.80        18.64754
443.24        18.66509
443.69         18.7606
444.13        18.85121
444.58        18.70302
445.02        18.38583
445.47        18.37075
445.91        18.59262
446.36        18.58273
446.80        18.31804
447.24        18.06222
447.69        17.88774
448.13        17.78759
448.58        17.78671
449.02        17.88278
449.47        18.00922
449.91        18.05487
450.36        17.99725
450.80        17.86221
451.25        17.72441
451.69        17.68913
452.13        17.78035
452.58        17.94864
453.02         18.1296
453.47         18.2256
453.91        18.21592
454.36         18.1393
454.80        18.02987
455.24        17.94147
455.69         17.9041
456.13        17.88783
456.58        17.91587
457.02        17.99723
457.46        18.13322
457.91        18.31378
458.35        18.48509
458.79        18.55557
459.24        18.51982
459.68        18.38996
460.13        18.24635
460.57        18.17227
461.01        18.20606
461.46        18.31553
461.90        18.45223
462.34        18.53199
462.79        18.52979
463.23          18.467
463.68        18.39951
464.12        18.42524
464.56        18.56368
465.01        18.78951
465.45        18.99068
465.89        19.07486
466.34        19.03857
466.78        18.80954
467.22          18.527
467.67        18.60417
468.11        18.98154
468.55        19.10178
468.99        18.93541
469.44        18.82218
469.88        18.83796
470.32         19.0301
470.77        19.31338
471.21        19.40545
471.65        19.26954
472.10        19.11172
472.54        18.99006
472.98        18.93101
473.42        18.96041
473.87        19.07583
474.31        19.22718
474.75        19.33197
475.20        19.37433
475.64        19.36814
476.08        19.35232
476.52         19.3857
476.97        19.48138
477.41        19.61913
477.85        19.75403
478.29        19.85484
478.74        19.91213
479.18        19.83894
479.62        19.68085
480.06        19.84108
480.50        19.92202
480.95        19.97862
481.39        19.86852
481.83        19.78571
482.27        19.73609
482.72        19.54107
483.16         19.2943
483.60        19.40812
484.04        19.88574
484.48        20.14919
484.93         20.3961
485.37        20.86526
485.81        21.41067
486.25        21.50373
486.69        27.79198
487.14        22.42028
487.58        14.61567
488.02        18.09947
488.46        20.55562
488.90         20.5698
489.34        20.83145
489.79        20.60438
490.23        21.50028
490.67        21.97222
491.11        21.80619
491.55         21.7239
491.99        21.65269
492.43        21.50321
492.88        21.34099
493.32        21.35373
493.76        21.40434
494.20        21.59876
494.64        21.87205
495.08        22.19703
495.52        22.53568
495.96          22.858
496.41        23.08871
496.85        23.20476
497.29        23.22571
497.73        22.95826
498.17        22.68237
498.61        22.94986
499.05        23.74026
499.49         23.9029
499.93        23.99783
500.37        24.07313
500.82        24.07404
501.26        24.25573
501.70        24.50304
502.14        24.61161
502.58          24.563
503.02        24.56108
503.46         24.6163
503.90         24.6049
504.34        24.54984
504.78         24.5477
505.22        24.61097
505.66        24.71732
506.10        24.84258
506.54         24.9444
506.98        25.01058
507.42        25.05394
507.86        25.10233
508.30        25.19946
508.74        25.34951
509.18        25.52951
509.62        25.70591
510.06        25.82506
510.50        25.87547
510.94        25.88505
511.38        25.86753
511.82        25.84253
512.26        25.82434
512.70        25.80346
513.14        25.81566
513.58        25.91998
514.02        26.10774
514.46        26.34837
514.90         26.5657
515.34        26.60689
515.78        26.42085
516.22        26.20352
516.66        26.03687
517.10        25.63437
517.54        25.02997
517.98        25.72199
518.42        25.51016
518.86        25.84537
519.30        26.04748
519.74         26.3192
520.18        26.58397
520.62        26.68959
521.06        26.63634
521.50         26.4464
521.93        26.19672
522.37        26.02818
522.81        25.98085
523.25        26.01579
523.69        26.09929
524.13        26.17604
524.57        26.22337
525.01        26.26057
525.45         26.2766
525.89        26.25109
526.32        26.18032
526.76        26.06492
527.20        25.93035
527.64        25.82982
528.08        25.78054
528.52        25.74908
528.96         25.7013
529.40        25.65187
529.83        25.60921
530.27        25.31594
530.71        25.30077
531.15        25.20263
531.59        25.18074
532.03        25.19881
532.46         25.2626
532.90        25.37731
533.34        25.51926
533.78        25.68198
534.22        25.80219
534.66          25.789
535.09        25.62812
535.53        25.35967
535.97        25.06048
536.41        24.86061
536.85        24.79859
537.28        24.84639
537.72        24.94951
538.16        25.01627
538.60        25.02259
539.04         24.9792
539.47        24.93329
539.91        25.01958
540.35        25.22313
540.79        25.40792
541.22         25.5398
541.66        25.67108
542.10        25.78778
542.54        25.83926
542.97        25.85739
543.41         25.9354
543.85         26.0833
544.29        26.28601
544.72        26.48407
545.16        26.59614
545.60        26.60725
546.04        26.54197
546.47         26.4933
546.91        26.61731
547.35        26.92877
547.79        27.38139
548.22        27.83799
548.66        28.06318
549.10        28.02719
549.53        27.84579
549.97        27.65971
550.41         27.6177
550.84         27.7709
551.28        28.08485
551.72        28.48772
552.15        28.84399
552.59        29.10104
553.03        29.29472
553.46        29.43517
553.90        29.56518
554.34        29.70152
554.77        29.79283
555.21        29.84096
555.65        29.94413
556.08         30.1223
556.52        29.99177
556.96        30.24221
557.39        30.28489
557.83        30.33766
558.27        30.38007
558.70        30.45351
559.14        30.60658
559.57        30.82721
560.01        31.10524
560.45        31.36205
560.88        31.47286
561.32        31.44029
561.75        31.29669
562.19        31.13576
562.63        31.04278
563.06         31.0488
563.50        31.16265
563.93        31.33957
564.37        31.49314
564.80        31.59261
565.24        31.69192
565.68         31.7788
566.11         31.8311
566.55        31.87679
566.98        31.89264
567.42        31.93214
567.85        32.12149
568.29        32.46482
568.72        32.73183
569.16        32.94024
569.60        33.32869
570.03        33.74932
570.47        33.76823
570.90        33.51722
571.34        33.16218
571.77        33.48648
572.21        33.52844
572.64        33.60352
573.08        33.14357
573.51        32.29344
573.95        33.71128
574.38        35.71026
574.82        34.93605
575.25        34.47395
575.69         33.3134
576.12        32.89896
576.56        32.83891
576.99        33.51342
577.42         35.1181
577.86        35.10471
578.29        34.82362
578.73        36.34387
579.16        33.64132
579.60        30.61257
580.03        32.01953
580.47        34.15415
580.90        34.66398
581.33        34.00852
581.77        33.75728
582.20        36.66406
582.64        36.16774
583.07        30.95526
583.51        30.41345
583.94        29.94131
584.37        31.39861
584.81        32.57362
585.24        34.04602
585.68        34.73682
586.11        33.86832
586.54        31.61252
586.98        30.81344
587.41        31.12226
587.85        32.49491
588.28        33.40186
588.71        31.99948
589.15        31.01193
589.58         31.4082
590.01        31.96296
590.45        32.41383
590.88        32.50819
591.31        32.12554
591.75        32.07143
592.18         32.1801
592.61        32.78421
593.05        33.36225
593.48        34.60704
593.91        34.72883
594.35        31.95869
594.78        31.50685
595.21        31.72939
595.65        33.27687
596.08        34.39679
596.51        33.18465
596.94        32.59833
597.38        33.07354
597.81        34.60883
598.24        35.62189
598.68        35.17714
599.11        34.99852
599.54        36.47886
599.97        37.68602
600.41         35.6504
600.84         36.1102
601.27        37.03885
601.70         36.7759
602.14         36.8898
602.57        36.85444
603.00         37.8532
603.43        39.36813
603.87        40.54084
604.30        40.62649
604.73        39.82096
605.16        39.62743
605.60        40.72385
606.03        41.87971
606.46        42.85969
606.89        42.89454
607.32         42.2517
607.76        42.70885
608.19        44.32553
608.62        44.11186
609.05        43.75533
609.48        44.43328
609.92           44.71
610.35        44.78196
610.78         46.9185
611.21        47.60658
611.64        45.90905
612.07        46.63269
612.50        47.18906
612.94        47.82457
613.37        47.82875
613.80        48.42575
614.23        49.20861
614.66        49.49553
615.09        49.89295
615.52        50.14301
615.96        50.33841
616.39         50.8658
616.82        50.22579
617.25        50.51989
617.68        51.29899
618.11        52.05316
618.54        52.56651
618.97        52.44408
619.40        51.98496
619.84        52.27384
620.27        53.25875
620.70        53.98164
621.13        54.27574
621.56        54.03088
621.99        53.49515
622.42         54.1925
622.85        55.71492
623.28        55.60219
623.71        55.00714
624.14        54.97757
624.57        54.82571
625.00        54.54243
625.43         54.6884
625.86         54.1674
626.29         54.2772
626.72        54.36482
627.15        54.14859
627.58        54.09032
628.01        53.99686
628.44        53.86055
628.87        53.68558
629.30        53.46564
629.73        53.35939
630.16        53.05287
630.59        52.60139
631.02        52.08985
631.45         51.5644
631.88        51.05669
632.31        50.58109
632.74        50.13211
633.17        49.69879
633.60         49.2636
634.03        48.82072
634.46        48.37753
634.89        47.93009
635.32        47.46947
635.75        46.99807
636.18        46.52329
636.61        46.04894
637.04        45.57881
637.47        45.11165
637.89        44.64532
638.32        44.18613
638.75        43.77791
639.18        43.43124
639.61        43.14386
640.04        42.86977
640.47        42.52942
640.90          42.113
641.33        41.64575
641.76        41.18632
642.18        40.89388
642.61        40.79872
643.04         40.7601
643.47        40.69732
643.90        41.00819
644.33        40.81624
644.76         40.8343
645.18        40.81928
645.61        40.80289
646.04        40.78816
646.47        40.76387
646.90         40.7942
647.33        40.95428
647.75        41.27096
648.18         41.7534
648.61        42.27223
649.04        42.61789
649.47        42.76291
649.89        42.68562
650.32        42.64075
650.75        43.14516
651.18        44.16744
651.61        45.22897
652.03        46.10003
652.46        46.65867
652.89         47.0711
653.32        47.44387
653.74        47.46198
654.17        48.79851
654.60        50.01422
655.03        48.99802
655.46        50.66586
655.88        53.69917
656.31        57.43709
656.74        128.9514
657.16        83.76533
657.59        29.75901
658.02        23.00203
658.45        40.92838
658.87          52.913
659.30        56.65072
659.73        56.33901
660.15        54.81087
660.58        57.32463
661.01         59.1433
661.44        57.68559
661.86        57.51275
662.29         57.9977
662.72        59.06457
663.14        60.49921
663.57        60.78139
664.00        60.12762
664.42        60.24856
664.85        61.23679
665.27        61.99545
665.70        62.32282
666.13        62.53079
666.55        62.59587
666.98         62.4301
667.41        62.20373
667.83        62.23499
668.26        62.59627
668.69        63.17022
669.11        63.73652
669.54        64.25179
669.96        64.05161
670.39         63.7246
670.82        63.33359
671.24        63.30919
671.67        63.75203
672.09        64.46578
672.52        65.15551
672.94        65.86295
673.37        65.43945
673.80         65.4054
674.22        65.51368
674.65        65.58181
675.07        65.61451
675.50        65.61427
675.92        65.64443
676.35        65.82875
676.77        66.16327
677.20        66.58739
677.62        67.04745
678.05        67.29222
678.47        67.24048
678.90        67.60062
679.32        67.31213
679.75        67.25933
680.17        67.40126
680.60        67.61337
681.02        67.74259
681.45        67.77229
681.87         67.6598
682.30        67.43751
682.72        67.24328
683.15        67.31541
683.57        67.70795
684.00        68.24547
684.42        68.91246
684.85        69.27734
685.27        69.30711
685.70        69.09946
686.12        68.79868
686.54        68.68186
686.97        68.80301
687.39        69.09116
687.82        69.42526
688.24        69.65702
688.66        69.72242
689.09        69.68655
689.51        69.62973
689.94        69.67507
690.36        69.86728
690.78        70.07185
691.21        70.26176
691.63        70.59587
692.06        70.96645
692.48        70.97318
692.90        70.70759
693.33        70.67407
693.75          70.911
694.17        71.13995
694.60        71.34608
695.02         71.5779
695.44        71.77046
695.87        72.16856
696.29        72.68906
696.71        72.40688
697.14        71.60863
697.56        72.08129
697.98        73.52934
698.41        73.42297
698.83        72.51435
699.25        71.97546
699.68        72.13387
700.10        72.19914
700.52        72.19083
700.94        72.52279
701.37        73.08802
701.79        73.59631
702.21        73.93974
702.64        74.19429
703.06        74.32371
703.48        74.27364
703.90        74.06884
704.33         73.7241
704.75        73.34828
705.17        73.21159
705.59        73.38235
706.01        73.67871
706.44        73.96163
706.86        74.63766
707.28        74.65321
707.70        74.81947
708.12        74.87669
708.55          74.894
708.97        74.87098
709.39        74.79899
709.81        74.73162
710.23        74.74885
710.66        74.86886
711.08        75.10397
711.50        75.34674
711.92        75.43883
712.34        75.34991
712.76        75.11504
713.19        74.86867
713.61        74.86153
714.03         75.1291
714.45        75.59682
714.87        76.07674
715.29        76.26948
715.71        76.11475
716.13        75.71451
716.56        75.25277
716.98        75.05926
717.40        75.20944
717.82        75.59597
718.24        76.07494
718.66        76.40182
719.08        76.49784
719.50        76.44219
719.92        76.28515
720.34        76.12842
720.76        76.01887
721.19        75.79761
721.61         75.7441
722.03        75.78336
722.45        75.98803
722.87        76.33269
723.29        76.71977
723.71        76.97169
724.13        77.03815
724.55        76.96278
724.97        76.82711
725.39        76.77423
725.81        76.84408
726.23        76.99003
726.65        77.16222
727.07        77.28196
727.49        77.33106
727.91        77.34962
728.33         77.3594
728.75        77.39074
729.17        77.45251
729.59        77.51976
730.01        77.61217
730.43        77.75576
730.85        77.95309
731.27        78.22742
731.69        78.49165
732.10        78.57935
732.52        78.46004
732.94        78.22552
733.36        78.04625
733.78        78.04184
734.20        78.25003
734.62        78.97956
735.04        79.95583
735.46        79.92304
735.88        79.14247
736.30        79.42191
736.72        80.73204
737.13        81.31079
737.55        80.85234
737.97        80.81487
738.39        81.18433
738.81        80.16127
739.23        78.37825
739.65        79.26736
740.06         82.2022
740.48        82.59316
740.90        80.49905
741.32        79.49302
741.74         79.9224
742.16        80.16415
742.57         80.2893
742.99         81.1647
743.41        82.52319
743.83        83.44092
744.25         83.7381
744.67        83.63784
745.08         83.3531
745.50        83.24005
745.92        83.42172
746.34        83.75855
746.75         84.1385
747.17        84.37828
747.59        84.45463
748.01        84.44565
748.42        84.46669
748.84        84.71262
749.26         85.2315
749.68        85.78449
750.09        86.28427
750.51        86.94206
750.93        87.54143
751.35        87.29214
751.76         86.4306
752.18         86.1329
752.60        86.36893
753.01        86.58154
753.43        86.26926
753.85        86.37666
754.27        86.72324
754.68         87.9431
755.10        88.40552
755.52        88.89616
755.93        88.97861
756.35        89.04894
756.77        89.22913
757.18        89.31575
757.60        89.41935
758.02        89.94604
758.43        90.36608
758.85        90.06145
759.26        88.29069
759.68        86.76999
760.10        89.24259
760.51        90.14281
760.93        90.30908
761.34        88.37669
761.76        88.00005
762.18        87.12782
762.59        86.96865
763.01         87.3506
763.42        88.26012
763.84        89.28667
764.26        90.14349
764.67        90.56973
765.09        90.48676
765.50        90.14044
765.92        89.58194
766.33        88.32574
766.75         86.8656
767.16        86.43944
767.58        87.21497
768.00        88.77459
768.41        90.75466
768.83        92.39727
769.24        93.01858
769.66        92.20608
770.07        90.53041
770.49        88.60336
770.90        87.05158
771.32         88.1012
771.73        90.93635
772.15        90.55203
772.56        87.42301
772.97        86.79929
773.39        88.63001
773.80        89.31924
774.22        88.62436
774.63        88.66241
775.05        89.34568
775.46        89.67551
775.88        89.53067
776.29        89.17799
776.70        88.76913
777.12        88.60651
777.53         88.7655
777.95        89.07141
778.36        89.35979
778.77        89.31708
779.19        88.92854
779.60        88.40372
780.02        87.91105
780.43        87.64207
780.84        87.84164
781.26        88.20799
781.67        88.73508
782.09        90.37197
782.50        92.31583
782.91        91.30641
783.33        88.20653
783.74        87.19765
784.15        88.49021
784.57        89.46833
784.98        89.70404
785.39        89.63613
785.81         89.2848
786.22        88.87274
786.63        88.68985
787.04        88.83804
787.46        89.36402
787.87        90.38625
788.28        91.54613
788.70        92.04315
789.11        91.72393
789.52        90.94585
789.93        90.06239
790.35        89.36881
790.76        89.10012
791.17        89.59536
791.58        90.56775
792.00        91.05931
792.41        90.89103
792.82        90.53723
793.23        90.30626
793.65         90.0558
794.06        90.05144
794.47        91.42187
794.88        93.28336
795.29        92.97662
795.71        90.28333
796.12        88.02053
796.53        86.76125
796.94        86.19769
797.35        86.52223
797.76        88.04909
798.18         90.0518
798.59        91.21391
799.00        91.09048
799.41        89.95844
799.82        88.41334
800.23        87.50017
800.64        87.48546
801.06         87.9558
801.47        88.72639
801.88        89.38052
802.29        89.73274
802.70        89.93201
803.11        89.99528
803.52        89.91902
803.93        89.75967
804.34        89.48329
804.75        89.17222
805.17        89.15378
805.58        89.54151
805.99        89.71485
806.40        89.63913
806.81         90.5715
807.22        91.82939
807.63        90.47588
808.04        87.26633
808.45        85.91404
808.86        86.71572
809.27        87.75401
809.68        88.55975
810.09        89.14429
810.50        89.28218
810.91        89.00042
811.32        88.53101
811.73        88.24523
812.14        88.24499
812.55        88.39302
812.96        88.65757
813.37        88.91759
813.78        89.14449
814.19        89.55628
814.60        89.89992
815.01         89.6549
815.42        88.78719
815.83        87.44593
816.24        86.15315
816.65        85.79046
817.05         86.6156
817.46         88.3418
817.87        90.26937
818.28        91.14204
818.69        90.61725
819.10        89.00088
819.51        87.08582
819.92        86.22452
820.33        86.76738
820.74        88.30157
821.14        90.06142
821.55        90.69486
821.96        89.91309
822.37        88.19952
822.78        86.26137
823.19         85.1291
823.60        85.08083
824.00        85.85121
824.41        86.95933
824.82         87.7159
825.23        87.82359
825.64        87.52544
826.04        87.05364
826.45          86.739
826.86        86.67616
827.27        86.71078
827.68         86.7655
828.08        86.78096
828.49        86.65908
828.90         86.5209
829.31        86.36945
829.72         86.1805
830.12        86.00079
830.53        85.81275
830.94        85.75008
831.35        85.99059
831.75        86.59645
832.16        87.44379
832.57        88.38365
832.97        89.07767
833.38        89.32034
833.79        89.19226
834.20        88.86701
834.60        88.61803
835.01        88.55573
835.42        88.61088
835.82        88.65459
836.23        88.38007
836.64        87.78859
837.04        87.01658
837.45        86.32388
837.86         86.1165
838.26        86.47962
838.67         87.2255
839.08        88.10416
839.48         88.6571
839.89        88.68972
840.29        88.36496
840.70        87.79856
841.11        87.14651
841.51        86.50848
841.92         85.8233
842.33        85.25063
842.73         85.0703
843.14        85.28139
843.54        85.85396
843.95        86.49014
844.35        86.74565
844.76        86.49089
845.17          85.875
845.57        85.12084
845.98        84.59254
846.38          84.395
846.79         84.3927
847.19        84.54861
847.60        84.69108
848.00         84.7998
848.41        84.91317
848.81        85.03528
849.22        85.08951
849.62        85.12337
850.03        85.12502
850.43        85.20675
850.84        85.47129
851.24        85.97985
851.65        86.49261
852.05        87.04993
852.46        87.52428
852.86        87.87897
853.27        88.21503
853.67        88.14807
854.07        87.20992
854.48        85.50029
854.88        83.19935
855.29        81.13494
855.69        80.50455
856.10        81.51264
856.50        84.02887
856.90        87.21598
857.31        89.11559
857.71        89.09777
858.12        87.64476
858.52        85.65005
858.92        84.32608
859.33        83.94286
859.73         84.1685
860.13        84.84319
860.54        85.62572
860.94        86.41496
861.34        87.29504
861.75        88.07983
862.15        88.54668
862.55        88.60392
862.96        88.23123
863.36        87.67822
863.76        87.36031
864.17        87.41944
864.57        87.83516
864.97        88.40005
865.38        88.77126
865.78        88.91243
866.18        88.82471
866.58        88.78049
866.99        89.21685
867.39        90.27979
867.79        91.86892
868.19        93.35566
868.60        93.58679
869.00        92.31839
869.40        89.88927
869.80        87.45971
870.21        86.84816
870.61        88.57629
871.01        92.12077
871.41        96.23642
871.81        98.78558
872.22        99.11094
872.62         97.7939
873.02        95.95788
873.42        95.38771
873.82        96.45932
874.22        98.68768
874.63        101.1555
875.03        101.8786
875.43        100.1734
875.83        97.15299
876.23        94.19412
876.63         93.2794
877.03        94.94512
877.44        99.63317
877.84        97.77881
878.24        110.1022
878.64        108.5359
879.04        103.9353
879.44        100.8448
879.84        99.05818
880.24        99.92175
880.64        101.8868
881.04        104.8868
881.44         106.921
881.84        106.5482
882.24        104.5629
882.65        102.3289
883.05        101.5173
883.45        102.4378
883.85        104.6052
884.25         107.145
884.65        108.5041
885.05        108.1851
885.45        106.7906
885.85        105.2015
886.25        104.5962
886.65        105.2185
887.05        106.6262
887.45        108.3648
887.85         109.626
888.25        110.0783
888.65        110.0338
889.04         109.556
889.44        108.7852
889.84        107.8461
890.24        106.6721
890.64        105.6458
891.04        105.3762
891.44        105.9281
891.84        107.1714
892.24        108.5337
892.64         108.938
893.04          108.19
893.44        106.7491
893.83         105.238
894.23        104.5818
894.63        104.9546
895.03        105.9761
895.43        107.5141
895.83        109.2983
896.23        111.0563
896.63        112.8572
897.02        114.1032
897.42        113.8243
897.82        111.9963
898.22        109.0054
898.62        105.9538
899.01        104.4736
899.41        104.9165
899.81        106.7267
900.21          109.13
900.61        110.8298
901.00         111.398
901.40        111.2487
901.80        110.6522
902.20         110.037
902.59        109.5849
902.99        109.0842
903.39        108.6157
903.79        108.3699
904.18         108.375
904.58        108.6799
904.98        109.0894
905.38        109.2488
905.77        109.0661
906.17        108.6425
906.57        108.1716
906.96        108.0051
907.36        108.1532
907.76        108.5088
908.15        108.8513
908.55        108.7141
908.95         108.051
909.34        106.9758
909.74        105.8613
910.14        105.1036
910.53        104.8604
910.93        105.0872
911.33        105.5999
911.72        106.0752
912.12        106.3299
912.52        106.3851
912.91        106.4993
913.31        107.0705
913.70        108.2147
914.10        109.8718
914.49        111.5218
914.89        111.6856
915.29        109.9978
915.68        106.9982
916.08        104.1986
916.47        103.0186
916.87        103.6067
917.26        105.5023
917.66        107.6601
918.05         108.372
918.45        107.2106
918.84        104.8045
919.24        102.2602
919.64        101.1853
920.03        102.0005
920.42        104.1847
920.82        106.9272
921.21        108.9519
921.61        109.6048
922.00         109.311
922.40        108.4327
922.79        107.3959
923.19         106.399
923.58        105.4105
923.98         104.463
924.37        103.4386
924.77        102.5565
925.16         102.326
925.55         102.265
925.95        103.3921
926.34        105.4478
926.74        108.0099
927.13        110.3985
927.52        111.3627
927.92        110.7792
928.31        109.0276
928.70        106.6655
929.10        104.6491
929.49        103.2878
929.89        102.3659
930.28        102.1035
930.67         102.845
931.07        104.4132
931.46        106.7693
931.85         109.037
932.24        109.8853
932.64        109.0821
933.03        106.9002
933.42        104.0043
933.82        101.9735
934.21        101.3061
934.60        101.5778
934.99        102.3761
935.39        103.1259
935.78          103.71
936.17        104.5843
936.56        105.5319
936.96        104.6523
937.35        103.4741
937.74        101.2735
938.13        99.58486
938.53        99.30266
938.92        100.3604
939.31        102.5881
939.70        105.2234
940.09        106.2765
940.49        105.0576
940.88        102.3961
941.27        99.55957
941.66        98.02588
942.05        98.01279
942.44         99.0201
942.84         100.598
943.23        102.0962
943.62        103.0883
944.01        103.7176
944.40        104.0254
944.79        104.0754
945.18        103.8905
945.57        103.3774
945.97        102.3614
946.36        100.8281
946.75        99.11266
947.14        97.58949
947.53        96.63988
947.92        96.51056
948.31        97.13752
948.70        98.44271
949.09        100.1984
949.48        101.7428
949.87        102.6539
950.26        102.9695
950.65        102.8224
951.04        102.5244
951.43        102.1972
951.82        101.7375
952.21        101.1195
952.60        100.3662
952.99        99.51321
953.38        98.60414
953.77        97.79153
954.16        97.22753
954.55        96.93428
954.94         96.9487
955.33        96.95397
955.72        96.40856
956.11        95.23699
956.50        93.56086
956.89        92.08218
957.28        92.07956
957.66        93.91874
958.05        96.96622
958.44        100.2005
958.83         102.095
959.22        102.2675
959.61        101.0814
960.00        99.24152
960.39        97.92827
960.78        97.51499
961.16        97.73721
961.55        98.03345
961.94        97.48747
962.33        95.96267
962.72        93.94285
963.11        92.14177
963.49        91.44333
963.88        91.98506
964.27        93.51599
964.66        95.50352
965.04        96.79619
965.43        96.77726
965.82        95.84065
966.21        94.56255
966.60        93.70884
966.98        93.44839
967.37        93.46761
967.76        93.52865
968.15        93.22169
968.53        92.46479
968.92        91.48707
969.31        90.51228
969.69        89.73009
970.08        89.22285
970.47         88.9529
970.86         88.8828
971.24        88.98343
971.63        89.20238
972.02        89.50317
972.40        90.02773
972.79         90.9471
973.17        92.36976
973.56        94.10165
973.95        95.61367
974.33        95.91559
974.72        94.76696
975.11        92.53373
975.49        90.27403
975.88        89.46056
976.26        90.29738
976.65        92.54456
977.04        95.20235
977.42        95.74503
977.81        93.30698
978.19        88.93516
978.58        84.98594
978.96        83.92719
979.35        86.11864
979.74        90.96655
980.12        97.42106
980.51        101.7186
980.89        102.5253
981.28        100.8608
981.66        98.01427
982.05        95.69162
982.43        94.30502
982.82         93.3094
983.20        92.94602
983.59        93.76232
983.97        95.86224
984.35        99.36004
984.74        103.1817
985.12        105.0929
985.51        103.7792
985.89        99.75477
986.28        94.47718
986.66         90.5145
987.04        88.95625
987.43        89.13751
987.81        90.22255
988.20        91.32962
988.58        92.25954
988.96         93.3742
989.35        94.88043
989.73        97.08831
990.12        99.03259
990.50        100.3135
990.88        100.1438
991.27         98.3268
991.65        95.18045
992.03        90.82658
992.42        86.66977
992.80        85.17614
993.18        86.92182
993.56        90.39401
993.95        93.97322
994.33        96.18645
994.71        96.74303
995.10        96.44125
995.48        95.33869
995.86        93.36487
996.24        90.61248
996.63        86.70211
997.01        82.76405
997.39        81.99871
997.77        85.58839
998.15        92.67343
998.54        99.85858
998.92        102.6167
999.30        99.67394
999.68        92.18912
1000.06        82.12442
1000.45        74.51434
1000.83        71.66376
1001.21         72.0817
1001.59        74.61525
1001.97        78.10841
1002.35        82.23071
1002.73        88.02102
1003.12        94.23457
1003.50        96.52332
1003.88        92.67924
1004.26        84.54444
1004.64        76.36591
1005.02        71.85799
1005.40        71.30886
1005.78        74.50497
1006.16        81.93049
1006.54        89.86967
1006.92        93.32973
1007.30        93.16197
1007.69        92.42899
1008.07        93.84045
1008.45        98.52673
1008.83        108.6548
1009.21        129.8089
1009.59        164.8258
1009.97        184.6814
1010.35         111.955
1010.73        23.76095
1011.11        21.13424
1011.49        43.98891
1011.86        67.60384
1012.24        83.02632
1012.62        89.38866
1013.00        89.73923
1013.38        86.21667
1013.76        81.76215
1014.14         85.9528
1014.52        106.8647
1014.90        146.2606
1015.28         194.014
1015.66        221.2226
1016.04         209.463
1016.41        163.1444
1016.79        107.1564
1017.17        71.15708
1017.55        58.08895
1017.93        55.85666
1018.31        58.39964
1018.69        62.89666
1019.06        69.10236
1019.44         78.7606
1019.82        94.22474
1020.20        114.9284
1020.58        139.1783
1020.95        166.1369
1021.33        200.7286
1021.71       -339.4962
1022.09        87.18526
1022.46        110.1086
1022.84        118.0986
1023.22        124.2685
1023.60        135.0422
1023.97        220.5433
1024.35        82.21682
1024.73        104.0293
