SpectraSmart Spectrum 2.9.0.0
--------- Device Information -----------
Spectrum Name :  反射率_0
Saving Time :  2024/04/25 23:36:57
Spectro-Module Model Name : SE2030-DUVN
Spectro-Module Serial Number : OS361AC55029948
Wavelength Start : 200
Wavelength End : 1025
Wavelength Unit : Wavelength(nm)
Spectrum Unit : Reflectance(%)
-----------Spectrum Setting ------------
Integration Time : 20ms
Average : 10
Boxcar : 0
Background removal :  enabled
linearity correction :  enabled
SC :  disabled
Intensity correction :  disabled
DWT denoise :  enabled
savitzky-golay :  disabled
FFT :  disabled
Running average :  disabled
Kalman :  disabled
High pass :  disabled
---------------BEGIN--------------------
Wavelength(nm)             Reflectance(%)
200.29               0
200.75        89.67061
201.21        87.24715
201.67        83.07763
202.13        79.09269
202.58        75.77168
203.04        73.04781
203.50        70.74488
203.96        68.92417
204.42        67.71143
204.88        67.06094
205.34         67.0239
205.80        67.68057
206.26        69.26228
206.72        72.82661
207.18        79.27917
207.64        83.05334
208.10        75.92642
208.55        65.74306
209.01        60.11433
209.47        59.15725
209.93        61.02601
210.39        65.19745
210.85         69.6962
211.31        70.11182
211.77        65.24837
212.23        56.76601
212.69         48.6676
213.14        47.17979
213.60        53.18269
214.06        64.98019
214.52        78.08955
214.98        85.59907
215.44        85.81028
215.90        80.91546
216.36        74.31067
216.81        70.70782
217.27        71.24921
217.73        74.10892
218.19        76.68515
218.65        75.60323
219.11        69.64339
219.57        58.20757
220.02        42.74737
220.48         32.5144
220.94         33.1996
221.40        42.73679
221.86        52.61922
222.32        53.68016
222.77        46.75238
223.23        36.75642
223.69        28.46888
224.15        26.71613
224.61        30.91389
225.06        38.50096
225.52        46.07793
225.98        49.42582
226.44         47.7911
226.90        43.07611
227.36        37.51548
227.81        34.07318
228.27        33.73047
228.73        35.23434
229.19        37.68894
229.65        39.80169
230.10        41.07059
230.56        41.91586
231.02        42.44265
231.48        42.69423
231.93        42.73457
232.39        42.52889
232.85        42.14981
233.31        41.80321
233.77        41.52695
234.22        41.26285
234.68        41.02354
235.14        40.74236
235.60        40.44025
236.05          40.247
236.51        40.09624
236.97        39.80285
237.43        39.37282
237.88        38.86654
238.34        38.65691
238.80        39.73529
239.26        42.43695
239.71        46.51008
240.17        50.90577
240.63        54.27134
241.08        56.16144
241.54        56.70089
242.00        56.45699
242.46        56.31321
242.91        56.78767
243.37        57.99079
243.83        62.71217
244.28        83.46188
244.74        116.7749
245.20        111.4379
245.66        100.5611
246.11        97.98175
246.57        101.6251
247.03        115.3322
247.48         155.908
247.94        137.9603
248.40        95.27205
248.85        81.73972
249.31         78.0817
249.77        78.74429
250.22        82.21581
250.68        88.73965
251.14        97.84431
251.59        102.6119
252.05        96.98729
252.51        84.76127
252.96        72.21913
253.42         64.8593
253.88        62.08886
254.33        61.97329
254.79        64.36747
255.25        68.44756
255.70        72.98698
256.16        77.71728
256.62        80.84556
257.07        80.56693
257.53        77.70177
257.99        72.92667
258.44        67.96181
258.90        65.68333
259.35        65.31586
259.81         65.8504
260.27        65.57193
260.72        62.84019
261.18        58.35788
261.63        52.85698
262.09        47.87217
262.55         44.5223
263.00        42.75632
263.46        42.09614
263.91        41.62231
264.37        40.59677
264.83        38.86979
265.28        36.62868
265.74        34.55206
266.19        33.42478
266.65        33.40495
267.11        34.00655
267.56        34.55688
268.02        34.27217
268.47        33.04325
268.93        31.16427
269.38        29.04298
269.84        27.61401
270.30        27.14813
270.75        27.38149
271.21        27.88512
271.66        28.01702
272.12        27.59247
272.57        26.82383
273.03        25.99456
273.48        25.44113
273.94        25.27039
274.39        25.30836
274.85        25.37491
275.31        25.21908
275.76        24.77798
276.22        24.17354
276.67        23.53457
277.13        23.12124
277.58        22.93632
278.04        22.92118
278.49        22.89573
278.95         22.6623
279.40        22.16676
279.86        21.53279
280.31        20.87518
280.77        20.46624
281.22        20.31249
281.68        20.34367
282.13        20.41823
282.59        20.36457
283.04        20.14603
283.50        19.85764
283.95        19.55289
284.41        19.32577
284.86        19.19759
285.32        19.13418
285.77        19.14822
286.22        19.32006
286.68         19.6139
287.13        19.97565
287.59        20.26334
288.04        20.25968
288.50        19.96194
288.95        19.44261
289.41        18.86653
289.86        18.38669
290.32        18.10629
290.77         17.9628
291.22        17.98381
291.68        18.16842
292.13        18.50068
292.59        18.98186
293.04         19.5314
293.50        20.01826
293.95        20.39874
294.40        20.67436
294.86        20.91288
295.31        21.24056
295.77        21.68744
296.22        22.21894
296.68        22.74534
297.13        23.09207
297.58        23.24639
298.04        23.28923
298.49        23.36243
298.95        23.71543
299.40        24.38613
299.85        25.28618
300.31        26.25995
300.76        27.07308
301.21         27.6368
301.67        28.03765
302.12        28.31074
302.58        28.56347
303.03        28.81316
303.48        29.03375
303.94        29.27517
304.39        29.58612
304.84        29.97146
305.30        30.41047
305.75          30.799
306.20        30.98295
306.66         30.9594
307.11        30.77538
307.57        30.54764
308.02         30.3748
308.47        30.32267
308.93        30.36085
309.38        30.48191
309.83        30.70445
310.29        30.99632
310.74        31.32601
311.19        31.62353
311.65        31.78158
312.10        31.77119
312.55        31.62392
313.00        31.35252
313.46        30.99728
313.91        30.58875
314.36        30.14784
314.82        29.76934
315.27        29.57577
315.72        29.59153
316.18        29.78233
316.63        30.04448
317.08        30.17728
317.53        30.12145
317.99        29.91492
318.44        29.65912
318.89        29.52407
319.35        29.54098
319.80        29.66054
320.25         29.7638
320.70        29.66049
321.16        29.31589
321.61        28.80452
322.06        28.26238
322.51        27.89086
322.97        27.72733
323.42        27.71556
323.87        27.75347
324.32        27.67093
324.78        27.41822
325.23         27.0617
325.68        26.65869
326.13        26.30379
326.59        26.02748
327.04        25.81379
327.49        25.65959
327.94        25.56676
328.39        25.52821
328.85         25.5396
329.30        25.59398
329.75        25.63467
330.20        25.64265
330.66        25.60461
331.11        25.55304
331.56        25.50019
332.01        25.44704
332.46        25.37667
332.92        25.27519
333.37        25.15026
333.82        24.99834
334.27        24.84479
334.72         24.6809
335.17        24.48842
335.63        24.27288
336.08        24.04135
336.53        23.86882
336.98        23.87852
337.43        24.08072
337.88         24.4392
338.34        24.78468
338.79        24.88593
339.24        24.66841
339.69        24.19771
340.14         23.6724
340.59        23.44367
341.05        23.58875
341.50        23.99465
341.95        24.46351
342.40        24.70451
342.85        24.64964
343.30         24.4027
343.75        24.05497
344.20        23.76782
344.66        23.60221
345.11        23.46956
345.56        23.38613
346.01        23.37593
346.46        23.42177
346.91        23.54476
347.36        23.60905
347.81        23.38903
348.26        22.87586
348.72        22.17248
349.17        21.49449
349.62        21.27964
350.07         21.6137
350.52        22.33694
350.97        23.18781
351.42        23.76597
351.87        23.95566
352.32        23.87221
352.77        23.60978
353.22        23.32505
353.67        23.08427
354.13        22.84131
354.58        22.60818
355.03        22.44694
355.48          22.365
355.93        22.37291
356.38        22.40808
356.83        22.35151
357.28        22.17743
357.73        21.91302
358.18        21.63285
358.63        21.45883
359.08        21.41817
359.53        21.47529
359.98        21.54852
360.43        21.51267
360.88        21.34077
361.33        21.06818
361.78        20.78515
362.23        20.63776
362.68        20.64981
363.13        20.76186
363.58        20.86682
364.03        20.80015
364.48        20.52923
364.93        20.12257
365.38        19.66325
365.83        19.28047
366.28        19.02427
366.73        18.85943
367.18        18.78286
367.63        18.78859
368.08        18.85333
368.53        18.96895
368.98         19.0857
369.43        19.12181
369.88        19.06079
370.33        18.92817
370.78        18.74443
371.23        18.55425
371.68        18.38251
372.13        18.21291
372.58         18.0975
373.03        18.12047
373.48        18.28164
373.93        18.55005
374.38        18.80587
374.83        18.86214
375.28        18.68447
375.72        18.32081
376.17        17.90755
376.62         17.6305
377.07         17.5469
377.52        17.59642
377.97        17.71815
378.42        17.81102
378.87        17.83622
379.32        17.82944
379.77        17.78983
380.22         17.7111
380.67         17.5984
381.11        17.44589
381.56        17.27968
382.01        17.15765
382.46        17.09343
382.91        17.07582
383.36         17.0702
383.81         17.0157
384.26        16.90159
384.71        16.75296
385.15          16.597
385.60        16.48303
386.05         16.4134
386.50        16.36293
386.95        16.32397
387.40        16.28643
387.85         16.2468
388.29        16.21553
388.74        16.17404
389.19        16.07063
389.64        15.90443
390.09        15.68253
390.54        15.48009
390.98        15.42454
391.43         15.5437
391.88        15.78192
392.33        16.02283
392.78        16.09414
393.23         15.9734
393.67        15.71736
394.12        15.44896
394.57        15.28549
395.02        15.25419
395.47        15.30811
395.91        15.40583
396.36        15.45445
396.81        15.42609
397.26        15.34077
397.71        15.21992
398.15        15.07666
398.60        14.94568
399.05         14.8301
399.50        14.71327
399.95        14.52862
400.39        14.33838
400.84        14.10948
401.29        13.92244
401.74        13.89411
402.18         14.0548
402.63        14.34373
403.08        14.66206
403.53        14.85034
403.97        14.86444
404.42        14.74669
404.87        14.55609
405.32        14.40109
405.76        14.31965
406.21        14.28525
406.66        14.27624
407.11        14.26552
407.55        14.24724
408.00        14.23018
408.45        14.21603
408.90         14.1951
409.34        14.16475
409.79        14.12319
410.24        14.08315
410.68        14.06377
411.13         14.0716
411.58         14.1061
412.03        14.14432
412.47        14.15022
412.92        14.10644
413.37        14.02082
413.81        13.93869
414.26        13.94436
414.71        14.04054
415.15        14.20636
415.60        14.34852
416.05         14.3361
416.49         14.1446
416.94        13.82895
417.39        13.48753
417.83        13.28913
418.28        13.28685
418.73        13.41586
419.17        13.60822
419.62        13.75381
420.07         13.8186
420.51        13.83556
420.96        13.79842
421.41        13.69395
421.85        13.53194
422.30        13.33752
422.74        13.15054
423.19        13.06135
423.64        13.07063
424.08        13.16188
424.53        13.28489
424.98        13.37462
425.42        13.41094
425.87        13.40438
426.31        13.35734
426.76        13.31742
427.21        13.27353
427.65        13.12281
428.10        12.95811
428.54        13.00838
428.99        13.29144
429.44        13.71381
429.88        14.09359
430.33        14.19007
430.77        13.96484
431.22        13.49717
431.66        12.99462
432.11        12.82102
432.56        13.01374
433.00        13.39977
433.45        13.78796
433.89         14.0184
434.34        13.97865
434.78        13.60343
435.23        13.14976
435.67         13.0945
436.12        13.40348
436.57        13.59578
437.01        13.57482
437.46        13.52134
437.90        13.44486
438.35        13.29837
438.79        13.12829
439.24        13.04324
439.68        13.06864
440.13        13.11499
440.57        13.16964
441.02        13.39213
441.46        13.66013
441.91        13.51146
442.35        13.04856
442.80        12.81401
443.24        12.79609
443.69        12.79335
444.13        12.74646
444.58        12.56731
445.02        12.30778
445.47        12.24771
445.91        12.35493
446.36         12.3544
446.80        12.22874
447.24        12.13634
447.69        12.09595
448.13        12.05376
448.58        12.01688
449.02        11.99824
449.47        11.98123
449.91        11.93738
450.36        11.86776
450.80        11.77855
451.25        11.70646
451.69        11.69782
452.13        11.76217
452.58        11.87067
453.02         11.9914
453.47        12.06934
453.91         12.0926
454.36        12.07975
454.80        12.03628
455.24        11.97395
455.69        11.90975
456.13        11.83456
456.58        11.78665
457.02        11.80363
457.46        11.89492
457.91        12.04467
458.35        12.20457
458.79        12.28777
459.24        12.28336
459.68        12.20016
460.13        12.10678
460.57        12.07579
461.01        12.13731
461.46        12.26096
461.90        12.39158
462.34         12.4304
462.79        12.35661
463.23        12.19576
463.68        12.03189
464.12        12.00524
464.56        12.14686
465.01        12.41001
465.45        12.66687
465.89        12.77731
466.34        12.72676
466.78        12.49598
467.22        12.21503
467.67        12.21548
468.11        12.47289
468.55        12.59814
468.99         12.5529
469.44        12.53162
469.88        12.57352
470.32        12.72429
470.77        12.91489
471.21        12.93759
471.65        12.77117
472.10        12.56359
472.54        12.39097
472.98        12.33881
473.42         12.4357
473.87        12.65561
474.31        12.92213
474.75        13.10765
475.20        13.18195
475.64        13.17314
476.08        13.13437
476.52        13.14897
476.97        13.23823
477.41        13.37702
477.85        13.51747
478.29        13.61145
478.74        13.64714
479.18        13.57498
479.62        13.44816
480.06        13.57456
480.50        13.68555
480.95        13.80446
481.39        13.80552
481.83         13.7792
482.27        13.72696
482.72        13.55261
483.16        13.33589
483.60        13.39029
484.04        13.73704
484.48        13.93226
484.93          14.135
485.37        14.60422
485.81        15.26386
486.25         15.3376
486.69        20.30544
487.14        16.14099
487.58         10.6327
488.02        12.85146
488.46        14.60575
488.90        14.68189
489.34         14.7901
489.79        14.72747
490.23         15.4882
490.67        16.00628
491.11        16.04238
491.55        15.92988
491.99         15.6668
492.43        15.46588
492.88        15.41219
493.32        15.48743
493.76        15.57562
494.20        15.79085
494.64        16.07695
495.08         16.4012
495.52        16.73874
495.96        17.07264
496.41        17.34362
496.85        17.53083
497.29        17.62661
497.73        17.45102
498.17        17.21617
498.61        17.35678
499.05        17.88604
499.49        17.99082
499.93        18.11053
500.37        18.26392
500.82         18.3854
501.26        18.63516
501.70        18.91178
502.14        19.06519
502.58         19.0775
503.02        19.10372
503.46        19.15299
503.90        19.12661
504.34        19.05225
504.78        19.02302
505.22        19.05504
505.66        19.13252
506.10        19.23028
506.54        19.30115
506.98        19.33518
507.42        19.34972
507.86        19.38126
508.30        19.48595
508.74        19.66875
509.18        19.89969
509.62        20.13466
510.06        20.30299
510.50        20.38552
510.94        20.41189
511.38        20.39548
511.82        20.35796
512.26        20.31476
512.70        20.25416
513.14        20.21823
513.58        20.27643
514.02        20.42509
514.46        20.63824
514.90        20.83123
515.34         20.8327
515.78        20.58789
516.22        20.30758
516.66         20.1001
517.10        19.68774
517.54        19.10746
517.98        19.96058
518.42         19.8299
518.86         20.2111
519.30        20.36065
519.74         20.5208
520.18        20.65383
520.62        20.66877
521.06        20.58613
521.50        20.40596
521.93        20.18955
522.37        20.05194
522.81        20.02116
523.25        20.07018
523.69        20.15542
524.13        20.20469
524.57        20.19585
525.01        20.15006
525.45        20.08544
525.89        20.03096
526.32        19.99323
526.76        19.96015
527.20        19.91844
527.64        19.85794
528.08        19.77989
528.52        19.67244
528.96        19.54304
529.40        19.45515
529.83        19.42583
530.27        19.24192
530.71         19.2689
531.15        19.17621
531.59        19.07544
532.03        18.96111
532.46         18.8756
532.90        18.88794
533.34        18.99569
533.78        19.17028
534.22        19.33568
534.66        19.38075
535.09        19.28129
535.53        19.08285
535.97        18.84706
536.41         18.6767
536.85        18.60662
537.28        18.61208
537.72        18.66738
538.16        18.72974
538.60        18.78263
539.04         18.8235
539.47        18.86576
539.91        18.97574
540.35        19.13562
540.79        19.25646
541.22        19.32387
541.66        19.39494
542.10        19.46835
542.54        19.49989
542.97        19.52505
543.41         19.6328
543.85        19.82992
544.29        20.10067
544.72        20.37189
545.16        20.53646
545.60         20.5747
546.04        20.51693
546.47        20.46512
546.91        20.59088
547.35        20.91485
547.79        21.38268
548.22        21.86001
548.66        22.11765
549.10        22.12249
549.53        21.98203
549.97        21.82558
550.41        21.79502
550.84        21.93975
551.28          22.226
551.72        22.59624
552.15        22.94294
552.59        23.21884
553.03        23.45125
553.46        23.63987
553.90        23.80381
554.34        23.95675
554.77        24.06252
555.21        24.12819
555.65        24.24198
556.08        24.42161
556.52        24.34974
556.96        24.59114
557.39        24.67702
557.83        24.78302
558.27        24.89158
558.70        25.01328
559.14        25.14796
559.57        25.28276
560.01        25.42596
560.45        25.55293
560.88        25.62008
561.32        25.64175
561.75        25.63146
562.19        25.63136
562.63        25.63713
563.06        25.67119
563.50        25.80515
563.93        26.00385
564.37        26.15702
564.80        26.24271
565.24        26.32797
565.68        26.41566
566.11        26.49175
566.55        26.58166
566.98        26.68201
567.42         26.8197
567.85        27.02979
568.29        27.32829
568.72        27.61776
569.16        27.90968
569.60        28.31338
570.03        28.68595
570.47        28.76485
570.90        28.68383
571.34        28.33665
571.77        28.59251
572.21        28.95776
572.64        28.87417
573.08        28.51464
573.51        27.75036
573.95        29.04501
574.38        30.97673
574.82        30.10906
575.25        29.99013
575.69        29.00471
576.12         28.6466
576.56        28.56609
576.99        29.07774
577.42        30.49227
577.86        30.08654
578.29        30.16369
578.73        31.62622
579.16        29.07867
579.60        26.43465
580.03        27.55179
580.47        29.46213
580.90        29.82288
581.33         29.2426
581.77        28.91933
582.20        31.70715
582.64          31.124
583.07        26.56814
583.51        25.90086
583.94        25.31973
584.37        26.30365
584.81        27.33938
585.24        28.70425
585.68        29.46739
586.11        28.68261
586.54        26.51286
586.98        25.75362
587.41        26.09645
587.85        27.21404
588.28        27.95901
588.71            26.7
589.15        25.86821
589.58        26.12079
590.01        26.54468
590.45         26.8459
590.88        27.03536
591.31        26.69269
591.75        26.54837
592.18        26.55285
592.61        27.05135
593.05        27.43649
593.48        28.81431
593.91        28.91439
594.35        26.86089
594.78        26.39841
595.21        26.35681
595.65        27.68952
596.08        28.93855
596.51        27.88016
596.94        27.25939
597.38        27.69872
597.81        29.06757
598.24         29.8963
598.68        29.56335
599.11          29.534
599.54        31.29008
599.97        32.22544
600.41        30.58879
600.84        31.02514
601.27        32.01791
601.70        31.81381
602.14        32.04288
602.57        32.03194
603.00        32.93638
603.43        34.22095
603.87        35.19358
604.30        35.67854
604.73        35.13847
605.16        34.92698
605.60         35.6405
606.03        36.67723
606.46        37.75183
606.89        38.40614
607.32        37.39287
607.76        37.71384
608.19        39.33324
608.62        39.21736
609.05         38.8446
609.48        39.42394
609.92        39.64646
610.35        40.06846
610.78        41.99115
611.21        42.65191
611.64         41.0997
612.07        41.71512
612.50        42.22987
612.94        42.74097
613.37        42.61124
613.80        43.29908
614.23        43.90436
614.66         44.1613
615.09        44.53851
615.52        44.78055
615.96         44.9999
616.39        45.33587
616.82        45.05347
617.25        44.99778
617.68        45.91912
618.11        46.50237
618.54         46.8591
618.97        46.64687
619.40        46.16927
619.84        46.38039
620.27        47.22622
620.70        47.97733
621.13        48.41462
621.56        48.06071
621.99        47.33791
622.42        47.89705
622.85        49.42551
623.28        49.47892
623.71        49.03003
624.14        48.97397
624.57        48.70375
625.00        48.52751
625.43        48.51141
625.86        47.99043
626.29         47.9946
626.72        48.01103
627.15        47.80342
627.58        47.75518
628.01         47.6871
628.44        47.61534
628.87        47.54631
629.30        47.25311
629.73        47.25321
630.16        46.92553
630.59        46.43592
631.02        45.85838
631.45        45.26795
631.88        44.74014
632.31        44.29364
632.74        43.91251
633.17        43.56124
633.60        43.17537
634.03        42.73732
634.46        42.28064
634.89        41.81302
635.32        41.31055
635.75        40.83884
636.18        40.34997
636.61        39.88504
637.04        39.48157
637.47          39.138
637.89        38.84098
638.32        38.54124
638.75        38.18386
639.18         37.7606
639.61        37.30132
640.04        36.83405
640.47        36.39666
640.90        36.00729
641.33        35.65545
641.76         35.3499
642.18        35.15635
642.61        35.07777
643.04         35.0189
643.47        34.92426
643.90        35.15433
644.33        34.96941
644.76        34.97276
645.18        34.96681
645.61        35.00324
646.04        35.08411
646.47        35.18872
646.90        35.35493
647.33        35.61829
647.75        35.99397
648.18        36.49555
648.61        37.00234
649.04        37.34498
649.47         37.5011
649.89        37.38656
650.32        37.27364
650.75        37.80694
651.18        38.94015
651.61        39.98933
652.03        40.70026
652.46        41.25623
652.89        41.85874
653.32        41.99585
653.74        41.92574
654.17        43.71692
654.60        44.28959
655.03        43.61231
655.46        44.94537
655.88        48.03116
656.31        51.92337
656.74        121.4894
657.16        79.02282
657.59        27.60912
658.02        20.94108
658.45        36.74777
658.87        47.31544
659.30        50.14207
659.73        49.91554
660.15         48.7767
660.58        50.75656
661.01        52.36094
661.44        51.02378
661.86         50.8092
662.29        51.13937
662.72        51.98216
663.14        53.15298
663.57        53.28333
664.00        52.59546
664.42        52.64329
664.85        53.50304
665.27        54.18461
665.70        54.47363
666.13        54.59917
666.55        54.53119
666.98        54.20716
667.41        53.81501
667.83        53.70102
668.26        53.94302
668.69        54.41266
669.11        54.90373
669.54        55.33098
669.96        55.10674
670.39        54.81237
670.82        54.47692
671.24        54.31003
671.67        54.47158
672.09        55.05173
672.52        55.77062
672.94        56.49632
673.37        56.15911
673.80         55.9241
674.22        55.66575
674.65        55.57999
675.07        55.71103
675.50        55.85527
675.92        55.99717
676.35        56.22027
676.77        56.49387
677.20        56.78046
677.62        57.07115
678.05        57.19471
678.47        57.09812
678.90        57.45352
679.32        57.20447
679.75        57.19168
680.17        57.32016
680.60        57.51345
681.02        57.78712
681.45        57.57211
681.87        57.62564
682.30        57.39162
682.72        57.20453
683.15        57.19066
683.57        57.42753
684.00        57.84638
684.42        58.49851
684.85        58.84345
685.27        58.86022
685.70        58.74302
686.12         58.5822
686.54        58.42305
686.97        58.35655
687.39        58.58612
687.82        58.99067
688.24        59.20461
688.66        59.16065
689.09        59.04825
689.51        58.97931
689.94        59.04139
690.36        59.27194
690.78        59.62668
691.21         60.0022
691.63        60.23724
692.06        60.29669
692.48        60.24633
692.90        60.16455
693.33        60.16099
693.75         60.2639
694.17        60.43325
694.60        60.65421
695.02        60.84329
695.44        60.93701
695.87        61.24314
696.29        61.68953
696.71        61.35466
697.14         60.5518
697.56        61.08438
697.98        62.64285
698.41        62.76153
698.83        61.98716
699.25        61.55527
699.68         61.7305
700.10        61.76256
700.52        61.67391
700.94        61.83822
701.37        62.19687
701.79        62.56135
702.21        62.85418
702.64        63.12704
703.06        63.31285
703.48        63.30293
703.90        63.10442
704.33         62.7511
704.75        62.36681
705.17        62.23409
705.59        62.42461
706.01         62.7635
706.44        63.11079
706.86        63.77833
707.28        63.84606
707.70        64.02526
708.12        64.10043
708.55        64.10412
708.97        64.03169
709.39        64.02792
709.81        63.87395
710.23        63.85534
710.66        63.91508
711.08        64.07883
711.50        64.26144
711.92        64.34047
712.34        64.29327
712.76        64.13786
713.19        63.98996
713.61        64.06267
714.03        64.37915
714.45        64.87419
714.87         65.3555
715.29        65.52005
715.71        65.31125
716.13        64.82877
716.56        64.28651
716.98         64.0584
717.40         64.2317
717.82        64.69496
718.24        65.26109
718.66        65.60925
719.08        65.64476
719.50        65.46908
719.92        65.19704
720.34        65.02789
720.76        65.02599
721.19        65.01768
721.61        65.17447
722.03         65.3222
722.45        65.49333
722.87        65.70137
723.29        65.91795
723.71         66.0805
724.13        66.16932
724.55        66.19437
724.97        66.20274
725.39         66.2164
725.81        66.23926
726.23        66.38068
726.65         66.6413
727.07        66.38259
727.49        66.61285
727.91        66.54607
728.33        66.51253
728.75         66.5331
729.17        66.62152
729.59        66.73609
730.01        66.86753
730.43        67.02071
730.85        67.19109
731.27        67.41661
731.69        67.61391
732.10        67.62651
732.52         67.4308
732.94        67.10096
733.36        66.84717
733.78        66.85615
734.20        67.16422
734.62        68.07273
735.04         69.2236
735.46        69.16959
735.88          68.189
736.30        68.26211
736.72        69.39657
737.13        69.87754
737.55        69.44753
737.97        69.35548
738.39        69.62691
738.81         68.9889
739.23        67.87428
739.65        68.67046
740.06        70.89078
740.48        71.18309
740.90        69.62358
741.32        68.94228
741.74        69.38871
742.16        69.60078
742.57        69.61898
742.99        70.26109
743.41        71.30769
743.83        71.81372
744.25        71.72122
744.67        71.59772
745.08        71.59188
745.50        71.61004
745.92        71.72112
746.34        72.03137
746.75        72.43482
747.17        72.64846
747.59         72.6543
748.01        72.55691
748.42        72.47928
748.84        72.66029
749.26        73.16058
749.68        73.67182
750.09         74.1323
750.51        74.92786
750.93        75.78038
751.35        75.58274
751.76        74.56722
752.18        74.20472
752.60        74.52249
753.01        74.49606
753.43        74.19589
753.85        74.29648
754.27        74.81855
754.68        75.70562
755.10        76.77488
755.52        76.82866
755.93        77.34039
756.35        77.19174
756.77        77.05819
757.18        76.99255
757.60        77.08525
758.02        77.73096
758.43         78.4015
758.85        77.93461
759.26        75.98966
759.68         75.3878
760.10        76.68109
760.51        78.03703
760.93        77.77689
761.34        76.83361
761.76        76.09875
762.18        75.38285
762.59        75.31184
763.01        75.23296
763.42        76.43523
763.84        77.06566
764.26        77.42514
764.67        77.63525
765.09         77.6887
765.50         77.9188
765.92         78.0664
766.33        76.74422
766.75        74.56277
767.16         73.8728
767.58        74.88373
768.00        76.36101
768.41        77.91035
768.83        79.30371
769.24        79.92862
769.66        79.22467
770.07        77.70943
770.49        75.98898
770.90        74.64799
771.32        75.67764
771.73        78.33146
772.15        78.13219
772.56        75.47153
772.97        74.78489
773.39        76.42729
773.80        76.91764
774.22        76.19255
774.63        76.12975
775.05        76.69389
775.46        77.03239
775.88        77.03805
776.29        76.95715
776.70        76.83557
777.12        76.77987
777.53        76.83126
777.95        76.89155
778.36        76.90351
778.77        76.75947
779.19        76.49409
779.60        76.19058
780.02        75.95613
780.43        76.00565
780.84        76.47285
781.26        76.87805
781.67        77.23217
782.09        78.60032
782.50        80.30796
782.91        79.37754
783.33        76.56168
783.74        75.57252
784.15        76.59002
784.57        77.31246
784.98        77.40121
785.39        77.26997
785.81        76.89276
786.22         76.6357
786.63        76.33553
787.04        76.29431
787.46        76.53767
787.87        77.58125
788.28        79.06107
788.70        79.75669
789.11        79.48787
789.52        78.95691
789.93        78.39545
790.35        77.61348
790.76        76.89306
791.17        77.03386
791.58         77.8774
792.00         78.2698
792.41        78.04767
792.82        78.04005
793.23        78.33431
793.65        77.90385
794.06        77.15049
794.47        78.24796
794.88        80.38681
795.29        80.10696
795.71         77.6198
796.12        75.45784
796.53        74.32055
796.94        74.10148
797.35        74.86526
797.76        76.27188
798.18        77.67776
798.59        78.56336
799.00        78.57701
799.41        77.56105
799.82        76.06312
800.23        75.23848
800.64        75.33087
801.06        75.91331
801.47        76.75742
801.88        77.37599
802.29        77.58022
802.70        77.55582
803.11        77.39124
803.52        77.19951
803.93        77.06224
804.34        76.90787
804.75        76.79203
805.17        76.93584
805.58         77.4053
805.99        77.78954
806.40        77.98199
806.81         78.6843
807.22        79.40962
807.63        78.21186
808.04         75.7382
808.45        74.71318
808.86        75.38062
809.27        76.38568
809.68        77.28265
810.09        77.83812
810.50        77.82499
810.91        77.34025
811.32        76.65386
811.73        76.19681
812.14        76.09546
812.55        76.19518
812.96        76.43813
813.37        76.69323
813.78        76.90056
814.19         77.2001
814.60        77.41311
815.01        77.19785
815.42         76.5323
815.83        75.49435
816.24        74.46545
816.65         74.1118
817.05        74.63555
817.46        75.81624
817.87        77.16234
818.28        77.77635
818.69        77.42151
819.10        76.32269
819.51        75.04044
819.92        74.57272
820.33        75.17117
820.74        76.39034
821.14        77.70204
821.55        78.47781
821.96        78.35918
822.37        76.97025
822.78        74.95804
823.19        73.89771
823.60        74.05497
824.00        74.79733
824.41        75.70451
824.82        76.37782
825.23        76.56812
825.64        76.43031
826.04        76.11821
826.45        75.84581
826.86        75.68508
827.27        75.52529
827.68        75.37485
828.08        75.30553
828.49        75.26525
828.90        75.32608
829.31        75.39259
829.72        75.26259
830.12        74.93444
830.53        74.45959
830.94        74.05795
831.35         74.0249
831.75        74.44933
832.16        75.17388
832.57        76.04328
832.97        76.70789
833.38        76.96893
833.79        76.92507
834.20        76.70483
834.60         76.5094
835.01        76.43289
835.42        76.40013
835.82        76.36928
836.23        76.19993
836.64        75.91019
837.04        75.58692
837.45        75.31375
837.86        75.21711
838.26        75.33303
838.67        75.57128
839.08        75.89926
839.48        76.24541
839.89        76.52538
840.29        76.75938
840.70        76.86362
841.11        76.70222
841.51        76.28297
841.92        75.63296
842.33        74.95642
842.73        74.60166
843.14        74.62006
843.54        74.96228
843.95        75.38563
844.35        75.53954
844.76        75.31868
845.17        74.85387
845.57         74.3338
845.98         74.0524
846.38         74.0848
846.79        74.30757
847.19        74.63564
847.60        74.83656
848.00        74.87148
848.41        74.78902
848.81        74.66882
849.22        74.54955
849.62        74.50523
850.03        74.51984
850.43        74.63675
850.84        74.85327
851.24        75.20144
851.65        75.50897
852.05        75.90002
852.46        76.40174
852.86        76.98688
853.27        77.64648
853.67        77.93385
854.07        77.28785
854.48        75.75893
854.88        73.58022
855.29        71.47311
855.69        70.46467
856.10         70.7515
856.50        72.19978
856.90        74.27322
857.31         75.6971
857.71        76.04324
858.12        75.57211
858.52        74.70814
858.92        74.01806
859.33        73.65642
859.73        73.46638
860.13        73.45755
860.54        73.67682
860.94        74.19564
861.34        74.98059
861.75        75.87271
862.15        76.69269
862.55         77.3159
862.96        77.74858
863.36        77.98246
863.76        77.98479
864.17         77.7874
864.57        77.47037
864.97        77.15755
865.38        77.03632
865.78          77.196
866.18        77.50809
866.58        77.94503
866.99        78.43192
867.39        78.96377
867.79        79.58901
868.19        80.02099
868.60        79.73379
869.00        78.66232
869.40        76.97141
869.80         75.4337
870.21        75.25063
870.61        76.76028
871.01        79.61613
871.41         82.8802
871.81        84.92723
872.22        85.28503
872.62         84.3769
873.02        83.02622
873.42        82.72108
873.82         83.6119
874.22        84.92591
874.63        86.19795
875.03        86.49867
875.43        85.46047
875.83        84.47551
876.23        82.22624
876.63        81.04729
877.03        80.83804
877.44        81.71572
877.84        104.8051
878.24        89.29607
878.64        90.38367
879.04        91.11073
879.44        87.43166
879.84        85.39953
880.24        88.98672
880.64        90.42126
881.04        90.38899
881.44        90.08608
881.84        89.39448
882.24        88.38289
882.65        87.66493
883.05        87.69051
883.45        88.53242
883.85        90.29282
884.25        92.32744
884.65        93.25701
885.05         92.7168
885.45         91.1898
885.85        89.46931
886.25        88.64985
886.65        88.95966
887.05        90.03744
887.45        91.47621
887.85        92.53625
888.25        92.91886
888.65        92.87906
889.04        92.53368
889.44        92.10346
889.84        91.68311
890.24        91.16578
890.64        90.69642
891.04        90.53022
891.44        90.68862
891.84        91.14568
892.24        91.64568
892.64        91.68844
893.04        91.21426
893.44        90.46472
893.83        89.75372
894.23        89.54563
894.63        89.91442
895.03        90.63363
895.43        91.66119
895.83        92.89407
896.23        94.17229
896.63        95.52383
897.02        96.45467
897.42        96.18195
897.82        94.68038
898.22        92.26749
898.62        89.86374
899.01        88.82379
899.41        89.41558
899.81         91.1647
900.21        93.34183
900.61        94.74285
901.00         94.9941
901.40        94.47197
901.80        93.53267
902.20        92.73519
902.59        92.27567
902.99        91.94438
903.39        91.68237
903.79        91.42148
904.18        91.14857
904.58        91.01775
904.98        91.02357
905.38        91.11066
905.77        91.24548
906.17        91.37822
906.57        91.57414
906.96        92.00362
907.36        92.59046
907.76         93.2756
908.15         93.7986
908.55        93.62881
908.95        92.73418
909.34        91.26424
909.74        89.70405
910.14        88.63237
910.53        88.25596
910.93        88.49607
911.33        89.16357
911.72        89.90102
912.12        90.46458
912.52        90.87121
912.91        91.25872
913.31        91.83932
913.70        92.69821
914.10        93.76844
914.49        94.66574
914.89        94.43402
915.29        92.89088
915.68        90.48167
916.08        88.26583
916.47        87.17257
916.87        87.28521
917.26        88.29437
917.66         89.5817
918.05        90.17143
918.45        89.78306
918.84        88.78085
919.24        87.67329
919.64         87.1647
920.03        87.46735
920.42        88.31493
920.82        89.45477
921.21        90.63239
921.61        91.50916
922.00        92.14959
922.40        92.40253
922.79        92.09245
923.19        91.31994
923.58        90.06174
923.98        88.43824
924.37        87.23483
924.77        86.99019
925.16         84.8871
925.55        86.11311
925.95        87.02339
926.34         89.0688
926.74        91.73888
927.13        94.33238
927.52        95.42636
927.92         94.8218
928.31        92.96455
928.70        90.49763
929.10        88.54411
929.49        87.43042
929.89        86.88441
930.28        86.95595
930.67         87.7185
931.07        88.94604
931.46        90.70676
931.85        92.30104
932.24        92.66426
932.64        91.63285
933.03        89.33781
933.42        86.42417
933.82        84.40766
934.21        83.74708
934.60        84.08928
934.99        84.76022
935.39        85.08684
935.78        84.96624
936.17        84.16095
936.56        82.48484
936.96        83.51475
937.35        82.29204
937.74        82.79253
938.13        83.36658
938.53        84.25854
938.92        85.51288
939.31        87.21329
939.70        89.05174
940.09        89.94619
940.49        89.50682
940.88        88.15234
941.27        86.54211
941.66        85.46593
942.05        85.06817
942.44        85.09664
942.84        85.45573
943.23        86.09222
943.62        86.83051
944.01        87.67394
944.40        88.38119
944.79        88.56421
945.18        88.11827
945.57         87.0584
945.97        85.54192
946.36        84.14945
946.75        83.31385
947.14        82.95634
947.53        82.96995
947.92        83.17548
948.31        83.50481
948.70        84.06216
949.09         84.7115
949.48        85.09151
949.87        85.04594
950.26        84.57156
950.65        84.01678
951.04        83.96915
951.43        84.52314
951.82        85.50677
952.21        86.40002
952.60        86.36279
952.99        85.23114
953.38        83.30804
953.77        81.23056
954.16        79.90326
954.55        79.54272
954.94        79.96665
955.33        80.61765
955.72        80.55059
956.11        79.54746
956.50        77.86638
956.89        76.30875
957.28        76.30721
957.66         78.2793
958.05        81.50353
958.44        84.87373
958.83        86.78305
959.22        86.82655
959.61        85.39752
960.00        83.27006
960.39        81.72437
960.78        81.16174
961.16        81.29157
961.55        81.48015
961.94        80.66412
962.33        78.69563
962.72        76.12413
963.11        73.80009
963.49        72.76627
963.88        73.17703
964.27        74.75593
964.66        76.86495
965.04        78.12362
965.43        77.90112
965.82        76.69359
966.21        75.25648
966.60        74.58647
966.98        74.89574
967.37        75.79879
967.76        76.95812
968.15        77.72016
968.53        77.82888
968.92        77.50079
969.31        76.95778
969.69        76.43831
970.08         76.0357
970.47        75.67148
970.86        75.31815
971.24        74.96069
971.63        74.61609
972.02        74.34357
972.40        74.25031
972.79         74.4691
973.17          75.103
973.56        75.96578
973.95        76.92607
974.33        77.66895
974.72        77.94167
975.11        77.77624
975.49          77.342
975.88        77.00258
976.26         76.8143
976.65        76.71394
977.04        76.44278
977.42        75.46425
977.81         73.7761
978.19        71.70657
978.58        70.28704
978.96        70.40234
979.35        72.12354
979.74        75.28162
980.12        79.30819
980.51        81.80588
980.89        82.10784
981.28        80.77007
981.66        78.73076
982.05        77.20535
982.43        76.47015
982.82        76.13324
983.20        76.33172
983.59        77.35179
983.97        79.26505
984.35         82.1532
984.74        85.20997
985.12        86.78268
985.51        85.84486
985.89        82.62985
986.28        78.24899
986.66        74.59338
987.04        72.61419
987.43        71.99164
987.81        71.95231
988.20        71.41827
988.58        69.97073
988.96        67.39541
989.35        64.31596
989.73        63.77731
990.12        67.46841
990.50        73.81554
990.88        78.81731
991.27        79.57678
991.65        76.65188
992.03        70.95222
992.42        64.82401
992.80        62.48114
993.18        65.03847
993.56         70.1524
993.95        75.57365
994.33         79.3501
994.71        81.02707
995.10        81.59013
995.48        81.20299
995.86        79.86086
996.24        77.68884
996.63        74.33891
997.01         70.5993
997.39        69.12923
997.77        70.98993
998.15         75.5591
998.54        80.38326
998.92        82.15068
999.30        79.85558
999.68         74.5566
1000.06        67.39423
1000.45        61.44187
1000.83        58.28125
1001.21        57.00595
1001.59        57.72984
1001.97        60.81508
1002.35        66.21297
1002.73         74.8293
1003.12        84.61954
1003.50        88.25636
1003.88        82.27797
1004.26        69.96525
1004.64        57.89318
1005.02        51.81017
1005.40         52.1452
1005.78         58.2913
1006.16        70.78422
1006.54        82.84404
1006.92        86.50816
1007.30        84.56345
1007.69        81.16115
1008.07         78.9751
1008.45        77.98227
1008.83        76.76268
1009.21         73.5564
1009.59        62.49465
1009.97        30.40063
1010.35       -13.11564
1010.73       -5.008598
1011.11        20.91273
1011.49        38.96022
1011.86        52.38061
1012.24        59.74055
1012.62        62.42394
1013.00         62.1601
1013.38        59.20459
1013.76         55.4201
1014.14        57.63476
1014.52        71.53911
1014.90        99.25296
1015.28         132.826
1015.66        148.6457
1016.04        133.2451
1016.41          92.229
1016.79        49.17745
1017.17        28.78016
1017.55        28.47751
1017.93        35.32014
1018.31        43.61057
1018.69        51.13375
1019.06        58.48861
1019.44        67.76859
1019.82        80.66399
1020.20        95.06654
1020.58        106.4494
1020.95        107.6065
1021.33        78.74785
1021.71        518.0645
1022.09        157.8258
1022.46        138.4212
1022.84         133.091
1023.22        134.9874
1023.60        147.4449
1023.97        278.3458
1024.35        57.28424
1024.73        84.41083
