SpectraSmart Spectrum 2.9.0.0
--------- Device Information -----------
Spectrum Name :  反射率_0
Saving Time :  2024/04/25 23:55:25
Spectro-Module Model Name : SE2030-DUVN
Spectro-Module Serial Number : OS361AC55029948
Wavelength Start : 200
Wavelength End : 1025
Wavelength Unit : Wavelength(nm)
Spectrum Unit : Reflectance(%)
-----------Spectrum Setting ------------
Integration Time : 20ms
Average : 10
Boxcar : 0
Background removal :  enabled
linearity correction :  enabled
SC :  disabled
Intensity correction :  disabled
DWT denoise :  enabled
savitzky-golay :  disabled
FFT :  disabled
Running average :  disabled
Kalman :  disabled
High pass :  disabled
---------------BEGIN--------------------
Wavelength(nm)             Reflectance(%)
200.29               0
200.75        75.34471
201.21        71.65084
201.67        67.25452
202.13         64.9021
202.58        64.90356
203.04        66.73206
203.50         69.2448
203.96        70.49979
204.42        70.01416
204.88        68.57381
205.34        67.09791
205.80        66.38577
206.26        66.71101
206.72        68.64483
207.18        72.73319
207.64        75.28483
208.10         70.7966
208.55        64.08109
209.01        61.06544
209.47         62.5896
209.93        67.32678
210.39        75.01978
210.85        82.74535
211.31        83.62536
211.77        75.75626
212.23        61.83742
212.69        48.03138
213.14        43.75711
213.60        50.66191
214.06        66.20423
214.52        84.12589
214.98        94.65766
215.44        95.26128
215.90        88.94726
216.36        80.16616
216.81        75.11024
217.27        75.27178
217.73        78.36401
218.19        80.98651
218.65        78.65101
219.11        69.80126
219.57         53.8143
220.02        33.21519
220.48        21.24345
220.94         25.8388
221.40        43.15269
221.86        60.95233
222.32        66.60609
222.77        60.93374
223.23        50.31157
223.69        40.81248
224.15        38.54306
224.61        43.07348
225.06        51.46735
225.52        59.86536
225.98        63.34835
226.44        61.13322
226.90        55.47646
227.36        49.27481
227.81        46.38814
228.27        47.85727
228.73        51.95094
229.19        56.96064
229.65        60.40191
230.10        61.59555
230.56        61.61658
231.02        61.07197
231.48        60.59483
231.93        60.33641
232.39        60.03124
232.85        59.75102
233.31        59.75675
233.77        60.03639
234.22        60.59577
234.68        61.06057
235.14         60.6415
235.60        59.22449
236.05        57.17662
236.51        55.06036
236.97        53.56311
237.43        52.85138
237.88         52.8243
238.34        53.45131
238.80        54.73981
239.26        56.50285
239.71        58.84504
240.17        61.03793
240.63        62.39218
241.08        62.83839
241.54        62.39756
242.00        61.72906
242.46        61.85505
242.91        63.55292
243.37        68.01803
243.83        82.13405
244.28        128.2313
244.74        180.1816
245.20        151.2436
245.66         124.403
246.11        115.7106
246.57        116.3666
247.03        126.8996
247.48        154.9079
247.94        117.9368
248.40        82.01615
248.85        73.55929
249.31        72.60358
249.77         75.0432
250.22        80.23101
250.68        89.25774
251.14        101.6978
251.59        108.6717
252.05         102.082
252.51        86.31843
252.96        70.33365
253.42        62.07906
253.88        60.84846
254.33        63.87217
254.79        69.45816
255.25        74.64941
255.70        78.20314
256.16        81.04715
256.62        82.63654
257.07        82.33415
257.53        80.76581
257.99        77.86309
258.44        74.54662
258.90         72.8729
259.35        72.13071
259.81        71.90636
260.27        70.89728
260.72          67.817
261.18        63.37875
261.63        58.08762
262.09        53.37674
262.55        50.23186
263.00        48.55146
263.46        47.91766
263.91        47.42196
264.37        46.37801
264.83        44.62779
265.28        42.35728
265.74        40.20507
266.19        38.88007
266.65        38.59217
267.11        38.91104
267.56        39.25817
268.02        38.97621
268.47        37.94379
268.93        36.40866
269.38        34.69699
269.84        33.58517
270.30        33.27561
270.75        33.53427
271.21        33.96492
271.66        33.98069
272.12        33.42954
272.57        32.51284
273.03         31.5281
273.48        30.82776
273.94        30.53365
274.39        30.47348
274.85        30.49026
275.31        30.34807
275.76        29.97476
276.22        29.48371
276.67        28.94731
277.13        28.56124
277.58        28.30809
278.04        28.15098
278.49        27.95847
278.95        27.61883
279.40         27.0844
279.86        26.46711
280.31        25.81271
280.77        25.30273
281.22        24.93465
281.68         24.6842
282.13        24.49858
282.59        24.34262
283.04        24.18389
283.50        24.06204
283.95        23.92496
284.41        23.71583
284.86        23.42215
285.32        23.07221
285.77        22.75037
286.22        22.64746
286.68        22.76629
287.13        23.02248
287.59        23.25514
288.04        23.21461
288.50        22.88296
288.95        22.32951
289.41        21.72668
289.86        21.22978
290.32        20.93633
290.77        20.77485
291.22        20.72927
291.68        20.73636
292.13        20.77822
292.59        20.88303
293.04        21.05209
293.50         21.2854
293.95        21.56769
294.40        21.86381
294.86         22.1602
295.31        22.45094
295.77        22.73458
296.22        23.01808
296.68        23.27358
297.13        23.42828
297.58        23.49747
298.04        23.52403
298.49        23.60642
298.95        23.93091
299.40        24.51377
299.85        25.28575
300.31         26.1109
300.76        26.78484
301.21         27.2311
301.67        27.52955
302.12        27.70341
302.58        27.84169
303.03        27.96299
303.48        28.05374
303.94        28.18858
304.39        28.45107
304.84        28.85186
305.30        29.35778
305.75        29.83727
306.20        30.09412
306.66        30.11027
307.11        29.93607
307.57        29.70757
308.02        29.55724
308.47        29.55229
308.93        29.64808
309.38        29.80335
309.83        29.98427
310.29        30.15621
310.74        30.31755
311.19        30.44386
311.65        30.49404
312.10        30.45827
312.55        30.34888
313.00        30.16175
313.46        29.90601
313.91        29.59435
314.36        29.25175
314.82        28.95989
315.27          28.824
315.72        28.86575
316.18          29.051
316.63        29.29053
317.08        29.41226
317.53        29.36555
317.99        29.18376
318.44        28.95907
318.89        28.84369
319.35        28.86689
319.80        28.98931
320.25        29.10035
320.70        29.02258
321.16        28.72193
321.61        28.26006
322.06        27.77284
322.51        27.46363
322.97        27.36707
323.42        27.43044
323.87        27.52361
324.32        27.42919
324.78        27.09245
325.23        26.59355
325.68        26.05182
326.13        25.66214
326.59         25.4778
327.04        25.45774
327.49        25.52497
327.94        25.55506
328.39        25.50466
328.85        25.39979
329.30        25.30469
329.75        25.28799
330.20        25.36725
330.66        25.49331
331.11        25.62715
331.56        25.66781
332.01        25.58781
332.46        25.40375
332.92        25.17134
333.37        25.02195
333.82        24.98754
334.27        25.05081
334.72        25.12683
335.17        25.06882
335.63        24.84396
336.08        24.50548
336.53        24.17882
336.98        24.06618
337.43        24.20998
337.88        24.55136
338.34        24.92535
338.79        25.10897
339.24        25.02075
339.69        24.72635
340.14        24.38894
340.59        24.29116
341.05        24.48901
341.50        24.88302
341.95        25.30618
342.40        25.51996
342.85        25.47346
343.30        25.25862
343.75        24.95986
344.20         24.7248
344.66        24.60682
345.11         24.5208
345.56        24.48175
346.01        24.51111
346.46        24.58747
346.91        24.72544
347.36        24.78307
347.81        24.52762
348.26        23.95147
348.72        23.16693
349.17         22.3952
349.62        22.08193
350.07        22.32446
350.52        22.96915
350.97        23.77427
351.42        24.36648
351.87        24.62979
352.32        24.66529
352.77        24.53993
353.22        24.36663
353.67        24.19661
354.13        23.99327
354.58        23.77266
355.03         23.6078
355.48        23.51185
355.93        23.48837
356.38        23.48855
356.83        23.41726
357.28        23.25055
357.73        23.01032
358.18        22.74542
358.63        22.53431
359.08        22.39928
359.53        22.32467
359.98        22.25947
360.43        22.12473
360.88        21.90826
361.33        21.63359
361.78        21.38047
362.23        21.27674
362.68        21.33618
363.13        21.50168
363.58        21.66183
364.03        21.64521
364.48        21.41659
364.93        21.04252
365.38        20.60287
365.83        20.22631
366.28        19.96202
366.73        19.77081
367.18        19.66014
367.63        19.64158
368.08        19.69469
368.53          19.811
368.98        19.91713
369.43        19.89137
369.88        19.71601
370.33        19.43511
370.78        19.11097
371.23        18.85752
371.68        18.71606
372.13        18.64474
372.58        18.66288
373.03        18.79717
373.48        19.02277
373.93        19.32451
374.38        19.57783
374.83        19.59007
375.28        19.33599
375.72        18.86753
376.17        18.35841
376.62        18.05732
377.07        18.03503
377.52        18.21324
377.97        18.49167
378.42        18.70277
378.87        18.78403
379.32        18.78373
379.77        18.72009
380.22        18.61651
380.67        18.48795
381.11        18.32289
381.56        18.13239
382.01        17.95297
382.46        17.79771
382.91         17.6645
383.36        17.55721
383.81         17.4726
384.26         17.4073
384.71        17.36779
385.15        17.32213
385.60        17.23178
386.05        17.08554
386.50        16.88779
386.95        16.69169
387.40        16.59438
387.85        16.61296
388.29        16.70567
388.74        16.80289
389.19        16.79073
389.64        16.65279
390.09        16.41953
390.54        16.16424
390.98        16.01033
391.43        16.00152
391.88        16.09394
392.33        16.20951
392.78        16.23244
393.23        16.14542
393.67        15.98052
394.12        15.83258
394.57        15.77979
395.02        15.83715
395.47        15.96909
395.91        16.12212
396.36        16.18104
396.81        16.11849
397.26        15.96187
397.71        15.76847
398.15        15.60701
398.60        15.52076
399.05        15.49253
399.50        15.47684
399.95        15.36463
400.39        15.21247
400.84        14.99802
401.29        14.80906
401.74        14.77287
402.18        14.92554
402.63        15.20049
403.08        15.50527
403.53        15.69195
403.97        15.71838
404.42        15.62664
404.87        15.46584
405.32        15.32466
405.76        15.23744
406.21        15.18549
406.66        15.15918
407.11        15.15008
407.55        15.15588
408.00        15.17725
408.45        15.20978
408.90        15.22939
409.34        15.22708
409.79        15.20867
410.24        15.18178
410.68         15.1593
411.13        15.14941
411.58        15.14789
412.03        15.15773
412.47         15.1884
412.92        15.22865
413.37        15.27486
413.81        15.31722
414.26        15.35674
414.71        15.38215
415.15        15.39538
415.60        15.37397
416.05        15.30127
416.49        15.17938
416.94         15.0326
417.39        14.88123
417.83        14.76112
418.28        14.69421
418.73        14.66137
419.17        14.68047
419.62        14.76777
420.07        14.91567
420.51        15.11588
420.96        15.29239
421.41        15.31489
421.85        15.15978
422.30         14.8941
422.74        14.61471
423.19        14.49318
423.64         14.5469
424.08        14.73327
424.53        14.96501
424.98        15.11425
425.42        15.14152
425.87        15.07959
426.31        14.96366
426.76         14.8931
427.21        14.86877
427.65        14.76033
428.10        14.64748
428.54        14.75019
428.99        15.07685
429.44        15.53437
429.88        15.93253
430.33        16.02329
430.77        15.76963
431.22        15.25439
431.66        14.70249
432.11        14.51281
432.56        14.72468
433.00        15.14418
433.45        15.56891
433.89        15.83999
434.34        15.83537
434.78        15.47308
435.23        15.01437
435.67        14.96827
436.12        15.29009
436.57         15.4364
437.01        15.33663
437.46        15.26029
437.90        15.23108
438.35        15.17733
438.79        15.09647
439.24        15.02646
439.68        14.98263
440.13        14.89332
440.57        14.80842
441.02        15.00618
441.46        15.37293
441.91        15.35461
442.35        14.99957
442.80        14.84327
443.24        14.86152
443.69        14.84539
444.13        14.76125
444.58        14.56238
445.02        14.32127
445.47        14.33924
445.91        14.55368
446.36        14.59994
446.80        14.44802
447.24        14.30568
447.69         14.2157
448.13        14.14586
448.58        14.11498
449.02        14.12844
449.47        14.16283
449.91        14.17919
450.36        14.17048
450.80         14.1409
451.25         14.1217
451.69        14.15026
452.13        14.23293
452.58        14.34211
453.02        14.44374
453.47         14.4828
453.91        14.45185
454.36        14.37583
454.80        14.27441
455.24        14.18042
455.69        14.11834
456.13        14.07199
456.58        14.07323
457.02        14.14673
457.46         14.2944
457.91        14.49756
458.35        14.69933
458.79        14.80167
459.24        14.79383
459.68        14.69129
460.13        14.56587
460.57        14.49265
461.01        14.50911
461.46        14.58597
461.90        14.68929
462.34        14.75434
462.79        14.76211
463.23        14.72775
463.68        14.69502
464.12        14.73572
464.56        14.86249
465.01        15.05355
465.45        15.21518
465.89        15.26625
466.34        15.20534
466.78        14.98024
467.22        14.71108
467.67        14.74027
468.11        15.02467
468.55        15.12039
468.99        15.00401
469.44        14.94128
469.88        14.98988
470.32        15.18846
470.77        15.46047
471.21        15.56757
471.65        15.47556
472.10        15.35186
472.54        15.25251
472.98        15.21881
473.42        15.27453
473.87        15.41003
474.31         15.5715
474.75        15.66921
475.20        15.68646
475.64        15.64312
476.08         15.5859
476.52        15.58504
476.97        15.65793
477.41        15.78495
477.85        15.91858
478.29        16.01466
478.74         16.0608
479.18        15.99024
479.62        15.85524
480.06        16.00519
480.50        16.12071
480.95        16.23416
481.39        16.20299
481.83        16.14515
482.27        16.06071
482.72          15.824
483.16        15.53886
483.60        15.57628
484.04        15.94609
484.48        16.19295
484.93        16.47626
485.37        16.92394
485.81        17.40257
486.25        17.69499
486.69        22.82952
487.14        18.38953
487.58        12.13108
488.02        14.86969
488.46        16.78891
488.90        16.86726
489.34        17.01427
489.79        16.96321
490.23        17.85691
490.67         18.3889
491.11        18.32047
491.55        18.19745
491.99        17.99508
492.43        17.77595
492.88        17.62262
493.32        17.61216
493.76        17.63646
494.20        17.82536
494.64         18.1236
495.08         18.4944
495.52        18.88782
495.96        19.24922
496.41        19.50477
496.85        19.64173
497.29        19.67608
497.73        19.44646
498.17        19.19687
498.61        19.39653
499.05        20.04254
499.49        20.19066
499.93        20.31955
500.37        20.46039
500.82        20.55067
501.26        20.78415
501.70        21.05441
502.14        21.19228
502.58        21.17747
503.02        21.18155
503.46         21.2149
503.90        21.16884
504.34        21.08093
504.78        21.06344
505.22        21.13288
505.66        21.26627
506.10        21.41628
506.54        21.49963
506.98        21.49769
507.42        21.43809
507.86        21.38351
508.30        21.43105
508.74        21.59653
509.18        21.84076
509.62        22.09909
510.06        22.26603
510.50        22.31497
510.94        22.28835
511.38        22.22221
511.82        22.17272
512.26        22.16217
512.70        22.16499
513.14        22.20093
513.58        22.30407
514.02        22.45957
514.46        22.65174
514.90        22.81017
515.34        22.78639
515.78        22.53485
516.22        22.25824
516.66        22.05795
517.10         21.6566
517.54        21.08885
517.98        21.91805
518.42        21.79678
518.86        22.19963
519.30        22.40054
519.74        22.62839
520.18        22.82253
520.62        22.85662
521.06        22.74562
521.50        22.50559
521.93        22.22374
522.37        22.05725
522.81        22.04634
523.25        22.14796
523.69        22.30794
524.13        22.43828
524.57        22.50606
525.01        22.53406
525.45        22.52446
525.89        22.48044
526.32        22.40598
526.76        22.29841
527.20        22.16749
527.64        22.04124
528.08        21.93434
528.52        21.82644
528.96        21.71731
529.40        21.66146
529.83        21.67132
530.27        21.51328
530.71        21.59545
531.15         21.5481
531.59        21.49443
532.03        21.42354
532.46        21.37781
532.90        21.42731
533.34        21.56702
533.78        21.76595
534.22        21.94299
534.66        21.98039
535.09        21.85364
535.53        21.61346
535.97        21.32787
536.41        21.10963
536.85        20.99887
537.28        20.97192
537.72        21.00318
538.16        21.04912
538.60         21.0935
539.04        21.13255
539.47        21.18154
539.91        21.31576
540.35        21.51272
540.79        21.66904
541.22        21.76376
541.66        21.85474
542.10        21.93839
542.54        21.96792
542.97        21.98108
543.41        22.07507
543.85        22.25904
544.29        22.51474
544.72        22.77339
545.16        22.93569
545.60         22.9812
546.04        22.93796
546.47        22.89675
546.91        23.01153
547.35        23.29989
547.79        23.71474
548.22        24.13358
548.66        24.34579
549.10        24.32442
549.53        24.17451
549.97        24.01856
550.41        23.98274
550.84        24.11298
551.28        24.38183
551.72        24.73453
552.15        25.06672
552.59        25.33303
553.03        25.55776
553.46        25.74022
553.90        25.90286
554.34        26.05747
554.77        26.16353
555.21         26.2234
555.65        26.32397
556.08        26.48447
556.52        26.36684
556.96        26.58519
557.39        26.63551
557.83        26.70973
558.27        26.78449
558.70        26.88408
559.14        27.03003
559.57        27.20917
560.01        27.42249
560.45        27.60999
560.88        27.68058
561.32        27.64319
561.75        27.50946
562.19        27.37193
562.63        27.33983
563.06        27.43176
563.50        27.61438
563.93        27.83495
564.37        28.02402
564.80        28.15075
565.24        28.25181
565.68        28.32805
566.11         28.3931
566.55        28.47765
566.98        28.53429
567.42        28.61051
567.85        28.84789
568.29         29.2275
568.72        29.48482
569.16        29.66227
569.60        29.97326
570.03        30.26629
570.47        30.31355
570.90        30.29529
571.34        29.51595
571.77         30.1151
572.21        30.26975
572.64         30.3459
573.08        29.87526
573.51        28.95599
573.95        30.38441
574.38        32.59634
574.82        31.75745
575.25        31.33227
575.69         30.2159
576.12         29.9011
576.56        29.82263
576.99        30.58927
577.42        31.70104
577.86        31.55528
578.29        31.30382
578.73        32.95382
579.16        30.33618
579.60        27.70262
580.03        28.94918
580.47         30.9367
580.90        31.26264
581.33        30.73972
581.77        30.24221
582.20        33.17447
582.64        32.50992
583.07        27.74287
583.51        27.08786
583.94        26.57612
584.37        27.71977
584.81        29.01647
585.24        30.43453
585.68        31.07654
586.11        30.29579
586.54        28.13421
586.98        27.44007
587.41        27.82833
587.85        29.02317
588.28         29.7899
588.71        28.40727
589.15        27.49501
589.58        28.05056
590.01        28.36474
590.45        28.80157
590.88        29.13197
591.31        28.82061
591.75        28.66945
592.18        28.57333
592.61        28.88078
593.05        29.68664
593.48        30.68432
593.91        30.98817
594.35        28.55195
594.78        28.10229
595.21        28.16578
595.65         29.6065
596.08        30.84871
596.51        29.78731
596.94        29.08992
597.38        29.58267
597.81        31.03893
598.24        32.03524
598.68        31.64503
599.11        31.58734
599.54        33.03221
599.97        33.86709
600.41        32.24833
600.84        32.67978
601.27        33.58162
601.70        33.48221
602.14        33.75293
602.57        33.72187
603.00        34.48088
603.43        35.72802
603.87         36.8186
604.30        36.93665
604.73        36.25195
605.16        36.29612
605.60        37.34257
606.03        38.41127
606.46        39.21375
606.89        39.23117
607.32        38.66226
607.76        39.16447
608.19        40.58512
608.62        40.46584
609.05        40.25502
609.48        40.84586
609.92        41.15763
610.35        41.04012
610.78         42.9915
611.21        43.85627
611.64        42.15468
612.07         42.9088
612.50        43.50086
612.94        44.15792
613.37        44.21245
613.80        44.61235
614.23        45.36527
614.66        45.59631
615.09        45.96228
615.52        46.22097
615.96        46.46841
616.39        46.76348
616.82        46.30067
617.25        46.50036
617.68         47.2047
618.11        47.90701
618.54        48.38667
618.97        48.55438
619.40        48.09014
619.84        48.21334
620.27        49.24727
620.70        49.80101
621.13        49.92753
621.56        49.69611
621.99        49.34131
622.42        50.03483
622.85        51.36538
623.28        51.28705
623.71        50.87461
624.14        50.54377
624.57        50.49829
625.00        50.11826
625.43        50.27627
625.86         49.8531
626.29        50.04371
626.72        50.16787
627.15        49.90992
627.58        49.79528
628.01        49.66266
628.44        49.47682
628.87        49.29097
629.30        49.28734
629.73        49.33097
630.16        49.34138
630.59         48.6586
631.02        48.01154
631.45        47.33256
631.88        46.73789
632.31        46.26945
632.74        45.90361
633.17        45.59771
633.60        45.26236
634.03        44.87095
634.46         44.4535
634.89        44.01782
635.32        43.57468
635.75        43.13172
636.18        42.67822
636.61        42.22361
637.04        41.78637
637.47        41.36409
637.89        40.95491
638.32        40.53619
638.75        40.09711
639.18        39.64507
639.61        39.20226
640.04        38.77836
640.47        38.37956
640.90        38.01376
641.33        37.67699
641.76        37.38741
642.18        37.22932
642.61        37.20694
643.04        37.20906
643.47         37.1609
643.90        37.42569
644.33        37.21082
644.76        37.16395
645.18        37.09101
645.61        37.07153
646.04        37.11603
646.47        37.20057
646.90        37.34995
647.33        37.57116
647.75        37.87677
648.18        38.30283
648.61        38.74563
649.04         39.0379
649.47        39.16071
649.89         39.0729
650.32        39.03712
650.75        39.55501
651.18        40.59753
651.61        41.77311
652.03        42.74392
652.46        43.17434
652.89        43.39579
653.32        43.47789
653.74        43.57485
654.17        45.67889
654.60        46.27103
655.03         44.9245
655.46        46.22685
655.88        49.38753
656.31        52.98806
656.74        119.8997
657.16        77.62399
657.59        27.49447
658.02         21.1644
658.45        37.28118
658.87        48.39957
659.30        51.44826
659.73        51.23792
660.15        49.75937
660.58        52.02166
661.01        53.71764
661.44         52.4544
661.86        52.22797
662.29        52.49972
662.72        53.42474
663.14           54.82
663.57        55.16095
664.00        54.59885
664.42        54.70378
664.85         55.5485
665.27          56.125
665.70        56.28193
666.13        56.36445
666.55        56.36763
666.98        56.19559
667.41         55.9933
667.83        56.03364
668.26        56.37421
668.69        56.91318
669.11        57.44421
669.54        57.91305
669.96        57.71627
670.39          57.384
670.82        56.98038
671.24        56.90842
671.67        57.26519
672.09        57.87446
672.52        58.46373
672.94         59.0576
673.37        58.62638
673.80        58.54158
674.22        58.59926
674.65        58.66495
675.07        58.74778
675.50        58.83551
675.92        58.96112
676.35        59.20808
676.77        59.57458
677.20        59.96866
677.62        60.33461
678.05        60.58405
678.47         60.6851
678.90        60.67995
679.32        60.63204
679.75        60.53278
680.17        60.64879
680.60        60.76199
681.02        60.89853
681.45        60.93842
681.87        60.87132
682.30        60.79952
682.72        60.77299
683.15        60.75091
683.57        60.85339
684.00         61.2587
684.42        61.98546
684.85        62.54191
685.27        62.39838
685.70        62.27471
686.12         62.1159
686.54        62.04367
686.97         62.1082
687.39        62.22358
687.82        62.34529
688.24        62.63253
688.66        63.01245
689.09        62.89964
689.51        62.94111
689.94        62.97242
690.36         63.2011
690.78        63.43175
691.21        63.62781
691.63        63.80221
692.06        63.93852
692.48        64.04749
692.90         64.1546
693.33        64.28654
693.75        64.45031
694.17         64.6419
694.60        64.84259
695.02        64.99504
695.44        65.05206
695.87        65.21203
696.29        65.47459
696.71        65.26408
697.14        64.79364
697.56        65.33071
697.98        66.59534
698.41        66.54671
698.83        65.85571
699.25        65.41851
699.68         65.5314
700.10        65.55746
700.52         65.5224
700.94        65.77953
701.37        66.23373
701.79        66.63028
702.21         66.8768
702.64         67.0505
703.06        67.13004
703.48        67.07578
703.90        66.91111
704.33        66.64696
704.75        66.36546
705.17        66.28548
705.59        66.46084
706.01        66.73136
706.44        66.98225
706.86        67.59702
707.28         67.6256
707.70        67.81343
708.12        67.91316
708.55          67.932
708.97        67.88457
709.39        67.85487
709.81         67.8822
710.23        67.93999
710.66        68.03679
711.08        68.24096
711.50        68.45694
711.92        68.52012
712.34         68.4054
712.76        68.14919
713.19        67.88956
713.61        67.87877
714.03        68.15365
714.45        68.64119
714.87        69.14143
715.29        69.33604
715.71         69.1609
716.13        68.71951
716.56        68.21903
716.98        68.02422
717.40        68.21917
717.82        68.69051
718.24        69.25822
718.66        69.61656
719.08        69.67406
719.50        69.52736
719.92        69.28136
720.34        69.12154
720.76         69.1088
721.19        69.06644
721.61         69.1888
722.03         69.3091
722.45        69.46847
722.87        69.67821
723.29        69.89639
723.71        70.03905
724.13        70.08388
724.55        70.04052
724.97        69.96669
725.39        69.96634
725.81        70.06193
726.23        70.22584
726.65         70.3907
727.07        70.44565
727.49        70.37369
727.91        70.22406
728.33        70.07246
728.75        70.03378
729.17         70.1365
729.59        70.35925
730.01        70.66016
730.43        70.89402
730.85        71.06766
731.27        71.38563
731.69        71.75603
732.10        71.87139
732.52        71.69829
732.94        71.39776
733.36        71.15697
733.78        71.10537
734.20        71.32083
734.62        72.03444
735.04        72.90742
735.46        72.90719
735.88        72.35785
736.30        71.78359
736.72         73.3427
737.13        73.90703
737.55        73.75862
737.97        73.81437
738.39          74.063
738.81        73.07524
739.23        71.45631
739.65        72.35808
740.06        75.18023
740.48        75.60994
740.90        73.68862
741.32        72.77713
741.74        73.19992
742.16        73.42238
742.57        73.50842
742.99        74.27528
743.41        75.47085
743.83        76.22941
744.25        76.39339
744.67        76.18255
745.08        75.82044
745.50        75.67963
745.92        75.87331
746.34        76.24899
746.75        76.68938
747.17        76.96463
747.59        77.03275
748.01        77.09402
748.42        77.20676
748.84        77.21915
749.26        77.30261
749.68        77.82479
750.09        78.66694
750.51        79.50577
750.93        80.06653
751.35        79.74498
751.76        78.80833
752.18        78.51022
752.60        78.87373
753.01        78.95703
753.43        78.78056
753.85        78.92391
754.27        79.39288
754.68        80.14567
755.10        81.05695
755.52        81.09137
755.93        81.61643
756.35        81.66299
756.77        81.78223
757.18        81.82716
757.60        81.82741
758.02        82.34548
758.43        82.92384
758.85        82.29286
759.26        79.67599
759.68        79.74709
760.10        81.81839
760.51        82.72227
760.93        82.06199
761.34        80.87598
761.76        80.64504
762.18         80.1105
762.59        79.86853
763.01        80.12464
763.42        80.87853
763.84        81.80799
764.26        82.64619
764.67        82.76339
765.09         82.2518
765.50        82.08089
765.92        82.14847
766.33        81.18093
766.75        79.60902
767.16        79.00413
767.58        79.59169
768.00        81.06754
768.41        83.04136
768.83        84.36326
769.24        84.51492
769.66        83.76476
770.07        82.59583
770.49        81.18151
770.90        79.97466
771.32        80.85233
771.73        83.14743
772.15        82.74352
772.56        80.12016
772.97        79.71027
773.39        81.42957
773.80        82.25791
774.22        81.85196
774.63        81.63616
775.05        81.68337
775.46        81.80415
775.88         81.9662
776.29         82.0396
776.70        82.01701
777.12        82.08133
777.53        82.24348
777.95        82.38498
778.36        82.42278
778.77        82.18045
779.19        81.68813
779.60        81.11533
780.02        80.62888
780.43        80.37263
780.84        80.56746
781.26         81.0826
781.67        81.83523
782.09        83.28882
782.50        84.76867
782.91        83.82684
783.33        81.22991
783.74         80.3215
784.15        81.27448
784.57        82.07201
784.98        82.31931
785.39        82.01107
785.81        81.29819
786.22        81.03081
786.63        81.34721
787.04        81.64213
787.46        81.91789
787.87        82.63995
788.28        83.57607
788.70        83.98551
789.11         83.7609
789.52        83.26068
789.93        82.69727
790.35        82.11317
790.76        81.70605
791.17        81.94879
791.58        82.69423
792.00        83.06167
792.41        82.89782
792.82        82.90636
793.23        83.14459
793.65        82.53611
794.06         81.5773
794.47        82.67255
794.88        84.91326
795.29        84.96151
795.71        82.05302
796.12        79.79732
796.53        78.66152
796.94        78.51918
797.35        79.45876
797.76        81.08607
798.18        82.67551
798.59        83.79935
799.00        84.12911
799.41        82.49172
799.82        81.25169
800.23        80.17004
800.64        80.05081
801.06        80.40359
801.47        81.08824
801.88        81.72323
802.29        82.12032
802.70        82.46011
803.11        82.68868
803.52        82.67568
803.93        82.43751
804.34        81.96069
804.75        81.45174
805.17        81.35135
805.58         81.7859
805.99        82.38584
806.40        82.91039
806.81        83.55008
807.22        83.89155
807.63        82.70065
808.04        80.56686
808.45        79.58063
808.86        79.97052
809.27        80.73077
809.68        81.50926
810.09        82.06577
810.50        82.19621
810.91        81.99795
811.32         81.6343
811.73        81.32765
812.14        81.14778
812.55        81.08978
812.96        81.16483
813.37        81.10048
813.78        81.01885
814.19        81.64185
814.60        82.58667
815.01        82.66844
815.42        81.78871
815.83        80.44271
816.24        79.16304
816.65        78.69962
817.05        79.31721
817.46        80.76038
817.87        82.39789
818.28        83.09966
818.69        82.57046
819.10        81.10577
819.51        79.40533
819.92        78.71214
820.33        79.34776
820.74        80.75132
821.14        82.29344
821.55        83.27394
821.96        83.23534
822.37        81.64474
822.78        79.26267
823.19        78.01706
823.60        78.22212
824.00        79.08042
824.41        80.10274
824.82        80.84477
825.23        81.02537
825.64        80.82787
826.04        80.44817
826.45        80.16156
826.86        80.05284
827.27        79.97901
827.68        79.93792
828.08        79.98847
828.49        80.06085
828.90        80.24345
829.31        80.39357
829.72        80.22355
830.12        79.72792
830.53        78.99304
830.94        78.35081
831.35         78.2566
831.75        78.83113
832.16         79.8761
832.57        81.13615
832.97        82.06428
833.38        82.37806
833.79        82.21893
834.20        81.80532
834.60        81.48007
835.01        81.37517
835.42        81.37762
835.82        81.36646
836.23        81.07133
836.64        80.48957
837.04        79.75948
837.45        79.09164
837.86        78.79715
838.26        78.95701
838.67        79.44139
839.08        80.07452
839.48        80.53143
839.89          80.661
840.29        80.55611
840.70        80.32285
841.11        80.11276
841.51        79.98573
841.92        79.87188
842.33        79.76886
842.73         79.6941
843.14        79.60888
843.54        79.55828
843.95        79.49003
844.35        79.37859
844.76        79.20391
845.17        78.99207
845.57        78.75405
845.98         78.5174
846.38        78.29695
846.79        78.06357
847.19        77.87951
847.60        77.76194
848.00        77.76015
848.41        77.84347
848.81          77.984
849.22        78.06161
849.62        78.10743
850.03        78.15539
850.43        78.29624
850.84        78.59999
851.24        79.11239
851.65        79.58804
852.05        80.12771
852.46        80.72598
852.86         81.3463
853.27        82.03158
853.67         82.2605
854.07        81.35764
854.48        79.39307
854.88        76.63431
855.29        74.04133
855.69        73.00217
856.10        73.78439
856.50        76.21097
856.90        79.41335
857.31        81.35428
857.71        81.35252
858.12        79.91136
858.52        77.96561
858.92        76.77298
859.33         76.6127
859.73        77.12978
860.13        78.06702
860.54        78.89659
860.94        79.45102
861.34        79.88504
861.75        80.20393
862.15        80.48145
862.55        80.71021
862.96         80.8066
863.36        80.84454
863.76        80.94289
864.17          81.127
864.57        81.42465
864.97        81.76736
865.38        82.03129
865.78        82.22812
866.18        82.30527
866.58        82.34227
866.99        82.46125
867.39        82.74851
867.79        83.21404
868.19        83.57648
868.60         83.3105
869.00        82.35182
869.40        80.87912
869.80        79.65278
870.21        79.83672
870.61        81.74014
871.01        84.99213
871.41        88.59045
871.81        90.81922
872.22        91.17968
872.62        90.13165
873.02        88.58604
873.42        88.10847
873.82         88.9395
874.22        90.42748
874.63        92.00904
875.03        92.51237
875.43        91.46268
875.83        90.02124
876.23        87.79089
876.63        86.67085
877.03        86.71265
877.44        88.02574
877.84        102.7638
878.24         94.5577
878.64        94.75586
879.04        94.30386
879.44         91.1142
879.84        89.57175
880.24        92.59164
880.64        94.39044
881.04        95.56761
881.44        96.27709
881.84        95.90905
882.24        94.73173
882.65        93.53221
883.05        93.11433
883.45        93.64181
883.85        95.04095
884.25         96.7724
884.65        97.73098
885.05        97.57806
885.45        96.68657
885.85        95.68404
886.25         95.4321
886.65        96.10354
887.05        97.41074
887.45        98.89915
887.85        99.76251
888.25        99.72841
888.65        99.07043
889.04        98.14053
889.44        97.53157
889.84        97.39309
890.24        97.51266
890.64        97.73769
891.04        97.85703
891.44        97.78961
891.84        97.64176
892.24        97.40366
892.64        97.02274
893.04        96.57549
893.44        96.15392
893.83        95.87075
894.23        95.91479
894.63         96.2966
895.03         96.8988
895.43        97.77877
895.83        99.00139
896.23        100.4553
896.63        102.0657
897.02        103.2925
897.42         103.294
897.82        101.9894
898.22        99.70639
898.62        97.27207
899.01        95.88937
899.41        95.85698
899.81        96.80002
900.21           98.17
900.61        99.05733
901.00        99.16881
901.40        98.77981
901.80        98.19402
902.20        97.87728
902.59         97.9668
902.99        98.28965
903.39        98.61624
903.79        98.58405
904.18        98.13097
904.58        97.46959
904.98         96.9127
905.38        96.92653
905.77        97.55017
906.17        98.54152
906.57        99.62045
906.96        100.4356
907.36        100.8078
907.76        100.8701
908.15        100.5714
908.55         99.7218
908.95        98.42419
909.34        96.72752
909.74        95.09579
910.14        94.07392
910.53        93.83245
910.93        94.31863
911.33        95.25379
911.72        96.09193
912.12        96.54821
912.52        96.69011
912.91        96.77015
913.31        97.16229
913.70        97.99023
914.10        99.17005
914.49        100.2902
914.89        100.2608
915.29        98.83483
915.68        96.44762
916.08        94.29359
916.47        93.46415
916.87        94.06021
917.26         95.7234
917.66        97.59231
918.05        98.27303
918.45        97.40908
918.84        95.50916
919.24        93.46579
919.64        92.57217
920.03        93.16853
920.42        94.82664
920.82         96.9298
921.21        98.54038
921.61        99.13502
922.00         99.0602
922.40        98.48843
922.79        97.63346
923.19        96.67962
923.58        95.51728
923.98        94.29144
924.37        93.55833
924.77         93.6506
925.16         93.1671
925.55        94.43446
925.95        95.61067
926.34        97.24599
926.74        99.01795
927.13        100.5282
927.52        100.8877
927.92        100.0541
928.31        98.33057
928.70        96.19086
929.10        94.46176
929.49        93.37416
929.89        92.74449
930.28        92.71818
930.67         93.5123
931.07        94.93034
931.46        96.96474
931.85        98.81562
932.24        99.28481
932.64        98.18701
933.03        95.73331
933.42        92.65025
933.82        90.61138
934.21         90.1152
934.60        90.70786
934.99        91.72835
935.39        92.45786
935.78        92.76183
936.17         92.7007
936.56        92.03781
936.96        92.04766
937.35        90.47275
937.74        89.50927
938.13        88.83218
938.53        88.92558
938.92        89.76146
939.31        91.30715
939.70        93.17613
940.09        94.15535
940.49        93.79119
940.88        92.53783
941.27        91.07279
941.66        90.22366
942.05        90.13888
942.44        90.52669
942.84        91.23441
943.23        92.12952
943.62         92.9912
944.01        93.82996
944.40        94.46162
944.79        94.59523
945.18        94.14395
945.57        93.09499
945.97        91.52295
946.36        89.88463
946.75        88.64161
947.14        87.88367
947.53        87.58766
947.92        87.61697
948.31        87.89379
948.70        88.46142
949.09        89.28915
949.48        90.20374
949.87        91.02474
950.26        91.65001
950.65        92.03436
951.04         92.2104
951.43        92.19343
951.82        91.96395
952.21        91.47266
952.60        90.69218
952.99        89.68019
953.38        88.49813
953.77        87.38998
954.16        86.66589
954.55        86.37985
954.94        86.51775
955.33        86.74779
955.72        86.48322
956.11        85.62612
956.50         84.3437
956.89        83.20779
957.28        83.26614
957.66        84.83261
958.05        87.29143
958.44        89.93253
958.83        91.71847
959.22        92.32808
959.61        91.99353
960.00        90.95476
960.39        89.61459
960.78        88.18882
961.16        86.65553
961.55        85.03781
961.94        83.46063
962.33        82.07951
962.72        81.00854
963.11        80.42461
963.49        80.48608
963.88        81.13721
964.27        82.33398
964.66        83.69277
965.04        84.39029
965.43        84.05186
965.82        83.01039
966.21         81.8027
966.60         81.1516
966.98        81.22406
967.37        81.74019
967.76         82.5817
968.15        83.46218
968.53        84.16328
968.92        84.69322
969.31        84.93934
969.69        84.70021
970.08        84.00858
970.47        82.95224
970.86        81.67962
971.24         80.5108
971.63        79.60724
972.02        78.93211
972.40        78.67976
972.79        79.10383
973.17        80.30115
973.56        82.08133
973.95        83.95703
974.33        84.93255
974.72        84.62614
975.11        83.31805
975.49        81.65633
975.88        80.60112
976.26        80.30342
976.65        80.55032
977.04        80.90396
977.42        80.35881
977.81        78.67271
978.19          76.341
978.58        74.60963
978.96        74.60943
979.35        76.47224
979.74        79.95985
980.12         84.4121
980.51        87.19399
980.89        87.54402
981.28        86.09695
981.66         83.9521
982.05        82.54119
982.43        82.15239
982.82        82.32578
983.20        83.04433
983.59        84.40635
983.97        86.42474
984.35        89.17633
984.74        91.97425
985.12        93.50185
985.51         92.8447
985.89        90.25622
986.28        86.38936
986.66        82.41197
987.04        79.26239
987.43        76.97133
987.81        75.51639
988.20        74.70627
988.58        74.32838
988.96        74.35799
989.35        75.08042
989.73        76.92223
990.12        79.24712
990.50        81.51511
990.88        82.39952
991.27        81.15695
991.65        78.23629
992.03         73.9054
992.42        69.61786
992.80        67.94434
993.18        69.60582
993.56        73.00861
993.95        76.81937
994.33        80.07855
994.71        82.35917
995.10         84.2001
995.48        85.13039
995.86        84.19092
996.24        81.21884
996.63        76.06076
997.01        69.95818
997.39        66.78882
997.77         68.3816
998.15        73.97154
998.54        80.55035
998.92        83.93623
999.30        82.85447
999.68        78.51234
1000.06         72.3275
1000.45        67.76792
1000.83        66.27707
1001.21        66.56898
1001.59        68.20414
1001.97        70.97493
1002.35        74.76501
1002.73        80.44213
1003.12        86.40756
1003.50        87.48401
1003.88        81.54964
1004.26        71.23105
1004.64        61.62323
1005.02        57.00689
1005.40        57.68465
1005.78        63.51265
1006.16        74.94286
1006.54        85.71061
1006.92        88.67874
1007.30        86.25172
1007.69        82.83862
1008.07        81.44752
1008.45        82.32322
1008.83        85.38927
1009.21        91.18136
1009.59        93.56025
1009.97        63.50731
1010.35       -23.38933
1010.73       -52.65221
1011.11       -18.12945
1011.49         17.6263
1011.86        45.83349
1012.24        62.41212
1012.62        68.96858
1013.00        69.05566
1013.38        64.49029
1013.76        57.36734
1014.14        55.75979
1014.52        66.81107
1014.90        92.22087
1015.28        125.0465
1015.66        143.1782
1016.04        133.1067
1016.41        99.68505
1016.79        62.10536
1017.17        41.02098
1017.55        36.52142
1017.93        38.76411
1018.31        43.34962
1018.69        48.65723
1019.06        54.93943
1019.44          63.669
1019.82        76.93804
1020.20        94.29743
1020.58        114.0016
1020.95        134.9171
1021.33        155.7517
1021.71       -101.6675
1022.09         104.151
1022.46        117.4356
1022.84        123.8863
1023.22        132.1606
1023.60        151.7572
1023.97        333.0433
1024.35        27.63393
1024.73        61.79893
