SpectraSmart Spectrum 2.9.0.0
--------- Device Information -----------
Spectrum Name :  反射率_0
Saving Time :  2024/04/26 00:39:15
Spectro-Module Model Name : SE2030-DUVN
Spectro-Module Serial Number : OS361AC55029948
Wavelength Start : 200
Wavelength End : 1025
Wavelength Unit : Wavelength(nm)
Spectrum Unit : Reflectance(%)
-----------Spectrum Setting ------------
Integration Time : 20ms
Average : 10
Boxcar : 0
Background removal :  enabled
linearity correction :  enabled
SC :  disabled
Intensity correction :  disabled
DWT denoise :  enabled
savitzky-golay :  disabled
FFT :  disabled
Running average :  disabled
Kalman :  disabled
High pass :  disabled
---------------BEGIN--------------------
Wavelength(nm)             Reflectance(%)
200.29               0
200.75        82.59045
201.21        82.67314
201.67        81.27345
202.13        78.67532
202.58        75.19915
203.04        71.48869
203.50        67.72533
203.96        64.63612
204.42        62.74289
204.88         61.7095
205.34        61.82053
205.80        63.65583
206.26        67.95674
206.72        77.44588
207.18        95.84963
207.64        111.9509
208.10        101.6931
208.55        80.06764
209.01        66.50589
209.47        62.66409
209.93        64.69737
210.39         70.5761
210.85        77.94183
211.31        81.38218
211.77        78.89928
212.23        72.64112
212.69        65.98051
213.14        64.11654
213.60        67.85074
214.06        75.47644
214.52        84.14339
214.98        89.65166
215.44        90.69061
215.90        88.58672
216.36        84.83611
216.81        81.32028
217.27         79.1066
217.73        77.79399
218.19        76.32363
218.65        73.13869
219.11        67.46631
219.57        58.38802
220.02        47.54333
220.48        43.14024
220.94        48.96349
221.40        62.27807
221.86        73.76292
222.32        74.16465
222.77        65.14449
223.23        52.36762
223.69        41.56231
224.15        38.57096
224.61        42.75464
225.06        51.10032
225.52        59.86834
225.98        64.26729
226.44        63.35963
226.90        59.23406
227.36        54.09024
227.81        50.82575
228.27        50.48296
228.73        51.79365
229.19        54.05329
229.65        56.28795
230.10         57.9657
230.56        59.39521
231.02        60.49033
231.48        61.10327
231.93        61.27252
232.39        61.08488
232.85        60.62849
233.31        60.15033
233.77        59.70801
234.22        59.21821
234.68        58.71681
235.14        58.25927
235.60        57.87249
236.05        57.62441
236.51        57.32655
236.97        56.57421
237.43        55.24765
237.88        53.39385
238.34        51.25716
238.80        50.00161
239.26        50.30145
239.71        52.10282
240.17        54.69196
240.63        57.11557
241.08        58.98077
241.54        60.36079
242.00         61.4003
242.46        62.44732
242.91        64.03459
243.37        66.56447
243.83        73.68745
244.28        99.76254
244.74        134.7849
245.20        122.4122
245.66        107.2961
246.11        101.7611
246.57        100.9651
247.03        103.8851
247.48        108.6072
247.94        83.14912
248.40        72.10595
248.85        71.30913
249.31        72.50567
249.77        74.71873
250.22        78.16245
250.68          83.698
251.14        91.09717
251.59        94.93245
252.05        90.55051
252.51        80.84607
252.96         70.9333
253.42        65.61378
253.88        64.28435
254.33        65.11388
254.79        67.94961
255.25        71.91122
255.70        75.93749
256.16        80.07993
256.62        82.53761
257.07        81.46307
257.53        77.79635
257.99        72.26395
258.44        66.98108
258.90        65.23985
259.35        66.00856
259.81         67.8654
260.27        68.59946
260.72        66.11929
261.18        61.28171
261.63        55.12501
262.09        49.48901
262.55        45.81614
263.00         44.0597
263.46        43.57173
263.91         43.3182
264.37        42.47161
264.83        40.85618
265.28        38.69377
265.74        36.65216
266.19        35.47921
266.65        35.35473
267.11        35.82169
267.56        36.23697
268.02        35.85569
268.47        34.57207
268.93          32.671
269.38        30.58027
269.84        29.26463
270.30        28.98798
270.75        29.46508
271.21        30.20623
271.66        30.48135
272.12        30.08697
272.57        29.25337
273.03        28.31152
273.48        27.67193
273.94         27.4663
274.39        27.50453
274.85        27.58272
275.31        27.40792
275.76        26.91336
276.22        26.24396
276.67        25.55855
277.13        25.16439
277.58        25.05894
278.04        25.15401
278.49        25.23296
278.95        25.05553
279.40        24.55872
279.86        23.89666
280.31        23.18043
280.77        22.68423
281.22        22.42319
281.68        22.32448
282.13        22.30041
282.59        22.26258
283.04        22.17006
283.50        22.08972
283.95        21.96909
284.41        21.74337
284.86        21.41068
285.32        20.99721
285.77        20.63435
286.22        20.58437
286.68        20.84842
287.13        21.30882
287.59        21.72956
288.04        21.75157
288.50         21.3375
288.95        20.60394
289.41        19.77839
289.86        19.09953
290.32        18.69508
290.77        18.48016
291.22         18.4323
291.68        18.47816
292.13        18.59207
292.59        18.79971
293.04        19.09999
293.50        19.48389
293.95        19.92341
294.40        20.37365
294.86        20.78834
295.31        21.11919
295.77         21.3605
296.22        21.53297
296.68        21.65471
297.13        21.72954
297.58        21.79333
298.04        21.86989
298.49         22.0204
298.95        22.36831
299.40         22.9159
299.85        23.61711
300.31        24.36444
300.76         24.9971
301.21        25.45221
301.67        25.79462
302.12        26.03298
302.58        26.23327
303.03        26.40954
303.48        26.55444
303.94        26.75183
304.39        27.09971
304.84        27.60787
305.30        28.23279
305.75        28.82763
306.20        29.17366
306.66        29.24607
307.11         29.1017
307.57         28.8871
308.02        28.75257
308.47        28.77128
308.93        28.89649
309.38        29.08265
309.83        29.28741
310.29        29.47616
310.74        29.65361
311.19        29.80499
311.65        29.90261
312.10        29.93941
312.55        29.92222
313.00        29.83508
313.46        29.66802
313.91        29.42379
314.36        29.12548
314.82        28.86184
315.27        28.75159
315.72        28.81893
316.18        29.02802
316.63        29.27305
317.08        29.35491
317.53        29.22363
317.99        28.92733
318.44        28.59332
318.89        28.42732
319.35        28.46867
319.80        28.65846
320.25        28.85554
320.70        28.82882
321.16        28.52575
321.61        28.02604
322.06        27.47267
322.51        27.07993
322.97        26.89252
323.42        26.85469
323.87        26.86076
324.32        26.73661
324.78        26.43657
325.23        26.03033
325.68        25.60332
326.13        25.29149
326.59        25.13022
327.04         25.0906
327.49        25.11724
327.94        25.12535
328.39        25.08388
328.85        25.00577
329.30         24.9406
329.75        24.93411
330.20         24.9968
330.66        25.08958
331.11        25.18517
331.56        25.19841
332.01        25.10756
332.46        24.92629
332.92        24.70273
333.37        24.55377
333.82        24.50797
334.27        24.55166
334.72        24.61307
335.17        24.56746
335.63        24.38438
336.08        24.10602
336.53        23.83687
336.98        23.74653
337.43         23.8703
337.88        24.16154
338.34        24.46865
338.79        24.59142
339.24        24.45675
339.69        24.11988
340.14        23.74921
340.59        23.63758
341.05        23.83609
341.50        24.24038
341.95        24.65568
342.40        24.79893
342.85        24.61423
343.30        24.21255
343.75        23.71042
344.20        23.31415
344.66        23.10357
345.11        22.98216
345.56        22.96018
346.01        23.04886
346.46        23.21264
346.91        23.45954
347.36         23.6262
347.81        23.44706
348.26        22.90391
348.72         22.1148
349.17        21.30194
349.62         20.9187
350.07        21.07354
350.52        21.61714
350.97          22.334
351.42        22.88788
351.87        23.16927
352.32        23.27079
352.77         23.2312
353.22         23.1163
353.67        22.96275
354.13        22.74237
354.58        22.49213
355.03        22.31926
355.48        22.24622
355.93        22.26917
356.38        22.31543
356.83        22.25292
357.28        22.05406
357.73        21.75538
358.18        21.44609
358.63        21.26652
359.08        21.24657
359.53        21.34425
359.98        21.45883
360.43        21.43511
360.88         21.2422
361.33        20.92805
361.78        20.60321
362.23        20.44725
362.68        20.49113
363.13        20.65953
363.58        20.83517
364.03        20.83839
364.48        20.62767
364.93        20.27608
365.38        19.85093
365.83        19.45662
366.28        19.14186
366.73        18.87816
367.18        18.69668
367.63        18.64856
368.08        18.72485
368.53        18.90438
368.98        19.10066
369.43        19.17282
369.88        19.09038
370.33        18.89438
370.78        18.63999
371.23        18.42967
371.68         18.3021
372.13        18.22234
372.58         18.2027
373.03        18.26141
373.48        18.38359
373.93        18.56347
374.38        18.72238
374.83        18.73526
375.28        18.58188
375.72        18.28724
376.17        17.96303
376.62        17.75469
377.07        17.70529
377.52        17.76955
377.97        17.88621
378.42        17.95469
378.87         17.9397
379.32        17.87114
379.77         17.7724
380.22        17.67286
380.67        17.58341
381.11        17.49736
381.56        17.39645
382.01        17.26438
382.46        17.10224
382.91        16.91611
383.36        16.75093
383.81        16.67356
384.26        16.69138
384.71        16.78412
385.15        16.86722
385.60        16.82602
386.05        16.63497
386.50        16.32405
386.95        15.99269
387.40        15.81687
387.85        15.83827
388.29        15.99193
388.74        16.16808
389.19         16.2045
389.64        16.07605
390.09        15.82689
390.54        15.55888
390.98         15.4407
391.43        15.52018
391.88        15.73134
392.33        15.95197
392.78        16.00432
393.23        15.86736
393.67        15.60454
394.12        15.35426
394.57        15.25362
395.02        15.33109
395.47        15.53259
395.91        15.78648
396.36        15.94335
396.81        15.95466
397.26        15.85074
397.71        15.68591
398.15        15.52573
398.60        15.41804
399.05         15.3523
399.50        15.28503
399.95        15.11055
400.39        14.88902
400.84        14.59834
401.29        14.35227
401.74        14.32351
402.18        14.55447
402.63        14.96313
403.08         15.4049
403.53        15.65082
403.97        15.64205
404.42        15.44416
404.87        15.15148
405.32        14.93369
405.76        14.84733
406.21        14.84284
406.66        14.88297
407.11        14.92022
407.55        14.93982
408.00         14.9594
408.45        14.96768
408.90        14.92824
409.34        14.83872
409.79        14.71065
410.24        14.58715
410.68        14.53054
411.13        14.55609
411.58        14.65055
412.03         14.7793
412.47        14.88041
412.92         14.9208
413.37         14.9137
413.81        14.89179
414.26        14.92334
414.71        15.01056
415.15        15.13219
415.60        15.22127
416.05        15.19222
416.49        15.02977
416.94        14.77861
417.39        14.50207
417.83        14.30792
418.28        14.23736
418.73        14.24889
419.17        14.31751
419.62        14.39486
420.07        14.46082
420.51        14.53081
420.96        14.56862
421.41        14.51025
421.85        14.35066
422.30        14.13218
422.74        13.91832
423.19        13.83436
423.64         13.8866
424.08        14.04539
424.53         14.2404
424.98        14.37222
425.42        14.41034
425.87         14.3778
426.31        14.29317
426.76        14.23075
427.21        14.18647
427.65        14.04189
428.10        13.89199
428.54        13.97596
428.99        14.30655
429.44        14.78358
429.88        15.20299
430.33        15.29341
430.77        15.01537
431.22        14.46441
431.66        13.87321
432.11        13.64425
432.56          13.821
433.00         14.2127
433.45        14.62791
433.89         14.9137
434.34        14.94763
434.78        14.64926
435.23        14.25312
435.67        14.22678
436.12        14.52794
436.57        14.64537
437.01        14.51964
437.46        14.42168
437.90        14.37938
438.35        14.31867
438.79        14.24409
439.24        14.20169
439.68         14.2034
440.13        14.17822
440.57        14.14581
441.02        14.32808
441.46        14.60883
441.91        14.47614
442.35        14.02244
442.80        13.80779
443.24        13.81394
443.69        13.82981
444.13        13.79312
444.58         13.6077
445.02        13.33159
445.47        13.26952
445.91        13.38492
446.36        13.37778
446.80        13.23285
447.24        13.12428
447.69        13.08771
448.13        13.08912
448.58        13.13674
449.02        13.23327
449.47        13.33471
449.91        13.36846
450.36        13.32277
450.80        13.21423
451.25        13.09791
451.69        13.05088
452.13        13.09283
452.58        13.18688
453.02        13.29491
453.47        13.35261
453.91         13.3467
454.36        13.30466
454.80        13.23641
455.24        13.15759
455.69        13.08889
456.13        13.01891
456.58        12.98973
457.02        13.04421
457.46        13.18948
457.91        13.40325
458.35        13.62611
458.79        13.75498
459.24        13.77485
459.68        13.70014
460.13        13.60235
460.57        13.55698
461.01        13.59987
461.46        13.70165
461.90        13.81892
462.34        13.87284
462.79        13.84358
463.23        13.74927
463.68        13.65648
464.12        13.67479
464.56        13.82543
465.01        14.07516
465.45        14.30017
465.89        14.37281
466.34        14.28524
466.78        14.00521
467.22        13.68256
467.67        13.69458
468.11        14.01437
468.55        14.20925
468.99        14.21386
469.44        14.21156
469.88        14.24153
470.32        14.36283
470.77        14.53111
471.21        14.56897
471.65        14.46145
472.10        14.35177
472.54        14.28362
472.98        14.28332
473.42        14.36695
473.87        14.53095
474.31        14.72138
474.75        14.84573
475.20        14.88682
475.64        14.86238
476.08        14.82144
476.52        14.84076
476.97        14.93803
477.41        15.09076
477.85        15.24782
478.29        15.35737
478.74        15.40507
479.18         15.3313
479.62        15.18942
480.06        15.31787
480.50        15.41494
480.95         15.5137
481.39        15.48027
481.83        15.43187
482.27        15.36567
482.72         15.1533
483.16        14.89724
483.60        14.95641
484.04        15.34913
484.48        15.64185
484.93        15.94044
485.37        16.36415
485.81        16.82549
486.25        16.87723
486.69         21.7743
487.14        17.71952
487.58        11.81724
488.02        14.42038
488.46        16.12203
488.90        16.11934
489.34        16.37246
489.79        16.36348
490.23         17.1812
490.67        17.69974
491.11        17.67931
491.55        17.56854
491.99        17.35041
492.43        17.13921
492.88        17.01841
493.32        17.03915
493.76        17.08983
494.20        17.29171
494.64        17.58858
495.08        17.94635
495.52        18.32403
495.96        18.68036
496.41        18.94525
496.85        19.10132
497.29        19.15467
497.73        18.93336
498.17        18.67227
498.61        18.83432
499.05        19.42085
499.49        19.52649
499.93        19.62328
500.37        19.74191
500.82        19.82432
501.26        20.06067
501.70        20.34648
502.14         20.5133
502.58        20.53871
503.02         20.5846
503.46        20.65662
503.90        20.64897
504.34        20.58341
504.78        20.54784
505.22        20.55732
505.66        20.59663
506.10        20.64952
506.54        20.68538
506.98        20.69967
507.42        20.70708
507.86        20.73696
508.30        20.83248
508.74         20.9959
509.18        21.20247
509.62        21.41453
510.06        21.57164
510.50         21.6573
510.94        21.69653
511.38        21.69847
511.82        21.67866
512.26        21.64982
512.70        21.60165
513.14        21.57498
513.58         21.6376
514.02        21.78568
514.46        21.99254
514.90        22.17739
515.34        22.17583
515.78        21.93559
516.22        21.66536
516.66        21.46749
517.10        21.06157
517.54        20.48378
517.98        21.31087
518.42        21.17803
518.86        21.57315
519.30        21.76701
519.74        21.99071
520.18        22.19076
520.62        22.25187
521.06        22.18771
521.50        22.00601
521.93         21.7795
522.37        21.64219
522.81        21.62789
523.25        21.70265
523.69        21.81722
524.13        21.89149
524.57        21.89994
525.01        21.86614
525.45        21.80841
525.89         21.7549
526.32        21.71339
526.76        21.67384
527.20        21.62296
527.64         21.5515
528.08        21.46256
528.52        21.34241
528.96        21.20699
529.40        21.13657
529.83        21.15026
530.27        21.01312
530.71        21.10658
531.15        21.04381
531.59        20.94187
532.03        20.80004
532.46         20.6877
532.90         20.7171
533.34        20.89344
533.78        21.17448
534.22        21.44563
534.66        21.53894
535.09        21.41955
535.53        21.15008
535.97        20.83432
536.41         20.6422
536.85         20.6226
537.28        20.73036
537.72         20.8922
538.16        20.98912
538.60        20.98947
539.04        20.91723
539.47        20.83582
539.91        20.89097
540.35        21.07751
540.79        21.27063
541.22        21.41901
541.66        21.53145
542.10        21.59033
542.54        21.56659
542.97        21.51344
543.41        21.54921
543.85        21.69196
544.29         21.9183
544.72        22.15471
545.16        22.29548
545.60         22.3194
546.04        22.25735
546.47        22.20915
546.91        22.34161
547.35        22.67074
547.79        23.13974
548.22        23.60782
548.66        23.83692
549.10        23.79432
549.53        23.59518
549.97        23.37454
550.41        23.27918
550.84        23.36342
551.28         23.5948
551.72        23.92269
552.15        24.25025
552.59        24.52922
553.03        24.77845
553.46        24.98541
553.90        25.15242
554.34        25.28802
554.77        25.36184
555.21         25.3768
555.65        25.42035
556.08         25.5166
556.52        25.33822
556.96        25.50007
557.39        25.55383
557.83        25.68509
558.27        25.86036
558.70        26.05688
559.14        26.21997
559.57        26.32322
560.01        26.39309
560.45        26.42543
560.88        26.41514
561.32        26.39056
561.75        26.33946
562.19        26.30637
562.63        26.32346
563.06        26.39375
563.50         26.5151
563.93        26.66022
564.37        26.79713
564.80        26.90522
565.24         27.0007
565.68        27.08464
566.11        27.16244
566.55        27.25681
566.98        27.35814
567.42        27.48045
567.85        27.63822
568.29        27.84845
568.72        28.02644
569.16        28.20999
569.60        28.53137
570.03        28.85526
570.47        28.91474
570.90          28.834
571.34        28.39373
571.77        28.77842
572.21        28.92345
572.64        28.88439
573.08        28.47419
573.51        27.54401
573.95        28.74199
574.38        30.58971
574.82        29.94501
575.25        29.67189
575.69        28.87218
576.12        28.16487
576.56        28.20282
576.99        29.10578
577.42        30.27796
577.86        30.26547
578.29        29.78007
578.73        31.27024
579.16        28.92599
579.60        26.45717
580.03        27.73198
580.47        29.61226
580.90        29.87273
581.33        29.40058
581.77        28.98842
582.20        31.62191
582.64         31.0466
583.07        26.65929
583.51        26.10213
583.94         25.5788
584.37        26.61779
584.81        27.80458
585.24        29.18684
585.68        29.91134
586.11        29.06385
586.54        27.08224
586.98         26.3633
587.41        26.65902
587.85        27.78932
588.28        28.63567
588.71        27.13314
589.15        26.47751
589.58        26.85395
590.01         27.2013
590.45        27.78526
590.88        27.83734
591.31        27.48488
591.75        27.29018
592.18        27.36989
592.61        28.04291
593.05        28.52998
593.48        29.61274
593.91         29.9771
594.35        27.45181
594.78        27.03981
595.21        27.15344
595.65        28.50354
596.08        29.57699
596.51        28.53577
596.94         27.9145
597.38         28.3685
597.81        29.66829
598.24        30.41156
598.68         30.0096
599.11         29.8658
599.54        31.31991
599.97        32.31216
600.41        30.61787
600.84        31.01893
601.27        31.85752
601.70        31.67266
602.14         31.7843
602.57        31.66586
603.00        32.37975
603.43        33.54123
603.87        34.68456
604.30        34.80084
604.73        34.08062
605.16        34.00823
605.60        34.65451
606.03        35.65969
606.46        36.67846
606.89        36.56196
607.32        35.94954
607.76        36.41648
608.19        37.75242
608.62        37.62659
609.05        37.38364
609.48        38.00098
609.92        38.16093
610.35        38.48778
610.78        40.04846
611.21        40.33703
611.64        39.12103
612.07        39.73462
612.50        40.18211
612.94        40.71211
613.37        40.73652
613.80        41.09816
614.23        41.78755
614.66        41.97986
615.09        42.28539
615.52        42.55325
615.96        42.85799
616.39        43.15195
616.82         42.6874
617.25         42.8761
617.68        43.44369
618.11        44.05565
618.54         44.5154
618.97        44.44854
619.40        44.08099
619.84        44.30574
620.27        45.11588
620.70        45.64938
621.13        45.81977
621.56        45.58129
621.99        45.15638
622.42        45.83146
622.85        47.22346
623.28        46.97016
623.71        46.72386
624.14        46.22512
624.57        46.10613
625.00        45.92981
625.43        45.96182
625.86        45.67043
626.29        45.94248
626.72         46.1307
627.15          45.953
627.58        45.86152
628.01        45.72978
628.44         45.6029
628.87        45.50517
629.30          45.439
629.73        45.32933
630.16        45.32671
630.59        44.85522
631.02         44.4539
631.45        44.00932
631.88        43.58585
632.31        43.20035
632.74        42.84351
633.17        42.50309
633.60         42.1444
634.03         41.7611
634.46        41.36871
634.89        40.97159
635.32        40.57361
635.75        40.18013
636.18        39.79108
636.61        39.41066
637.04        39.04418
637.47        38.68795
637.89        38.33998
638.32        37.99026
638.75        37.64843
639.18         37.3204
639.61         37.0142
640.04        36.71815
640.47        36.40776
640.90         36.0843
641.33        35.75584
641.76         35.4491
642.18         35.2613
642.61         35.2044
643.04        35.16615
643.47        35.08933
643.90         35.3364
644.33        35.16076
644.76        35.17437
645.18        35.15849
645.61        35.13002
646.04        35.08827
646.47        35.02389
646.90        35.01884
647.33        35.17749
647.75        35.53121
648.18         36.0799
648.61        36.65005
649.04        36.98072
649.47        37.02988
649.89         36.7412
650.32        36.43457
650.75        36.81856
651.18         37.8331
651.61        38.77971
652.03        39.36142
652.46        39.61799
652.89        39.88691
653.32         39.9704
653.74        39.94152
654.17        42.06492
654.60        42.51531
655.03        41.09583
655.46        42.39986
655.88        45.40494
656.31        48.48083
656.74        109.1693
657.16        71.11167
657.59        25.08536
658.02        19.25843
658.45        34.09483
658.87        44.14775
659.30        46.79362
659.73        46.23148
660.15         45.4245
660.58        47.04251
661.01        48.64116
661.44        47.49633
661.86         47.2825
662.29        47.49658
662.72        48.33359
663.14        49.62315
663.57        49.84438
664.00        49.18713
664.42        49.25069
664.85        50.10847
665.27        50.76177
665.70        51.01987
666.13        51.14495
666.55        51.11755
666.98        50.87685
667.41        50.58715
667.83        50.54837
668.26         50.8279
668.69        51.31114
669.11          51.825
669.54        52.31426
669.96         52.2201
670.39        52.09791
670.82        51.93155
671.24        51.78499
671.67        51.81874
672.09         52.3125
672.52        53.01297
672.94        53.58378
673.37        53.08661
673.80        52.98505
674.22        53.09169
674.65        53.16997
675.07        53.22006
675.50        53.26484
675.92        53.33824
676.35        53.51978
676.77        53.81202
677.20        54.12692
677.62         54.4183
678.05         54.6181
678.47        54.69728
678.90        54.69291
679.32        54.66844
679.75        54.58189
680.17         54.6643
680.60         54.8051
681.02        55.04234
681.45        54.86587
681.87        54.96588
682.30        54.83486
682.72        54.74609
683.15        54.75799
683.57        54.93824
684.00        55.23829
684.42        55.76723
684.85        56.06651
685.27        56.14996
685.70        56.12332
686.12        56.03817
686.54        56.04415
686.97        56.17829
687.39        56.17115
687.82        56.40273
688.24        56.51659
688.66        56.60171
689.09        56.63004
689.51        56.64244
689.94         56.7051
690.36        56.83089
690.78        56.98564
691.21        57.13809
691.63        57.25397
692.06        57.32674
692.48        57.37735
692.90        57.43559
693.33        57.53464
693.75         57.6846
694.17        57.87708
694.60        58.09591
695.02         58.2915
695.44        58.41586
695.87        58.64224
696.29        58.95684
696.71        58.81873
697.14         58.4152
697.56         58.9017
697.98        60.02242
698.41        59.93823
698.83        59.26169
699.25         58.7858
699.68        58.78745
700.10        58.82125
700.52        58.73696
700.94        58.99245
701.37        59.43141
701.79        59.80216
702.21        60.01086
702.64        60.13673
703.06        60.17375
703.48        60.10051
703.90        59.94596
704.33        59.71931
704.75        59.48738
705.17        59.43829
705.59         59.6164
706.01        59.87494
706.44        60.12541
706.86        60.73149
707.28         60.8352
707.70        61.10945
708.12        61.28817
708.55        61.27596
708.97        61.09008
709.39        60.92514
709.81         60.8567
710.23        60.79926
710.66        60.76674
711.08        61.08854
711.50        61.24973
711.92         61.3682
712.34        61.28528
712.76        61.06023
713.19        60.82177
713.61        60.81134
714.03        61.06919
714.45        61.51628
714.87        61.96687
715.29        62.12895
715.71        61.94448
716.13        61.51178
716.56        61.02581
716.98        60.82656
717.40         60.9937
717.82        61.42176
718.24        61.94411
718.66         62.2783
719.08        62.33627
719.50        62.20302
719.92        61.97324
720.34        61.81332
720.76         61.7809
721.19        61.72604
721.61        61.81474
722.03        61.88611
722.45        61.97967
722.87        62.10738
723.29        62.27151
723.71        62.46084
724.13        62.66085
724.55        62.85621
724.97         63.0228
725.39        63.13253
725.81        63.17767
726.23        63.16792
726.65        63.11922
727.07        63.05605
727.49        62.99787
727.91        62.95465
728.33        62.93869
728.75        62.96666
729.17         63.0383
729.59        63.13879
730.01        63.27663
730.43        63.45526
730.85        63.66788
731.27        63.93178
731.69        64.16628
732.10        64.22424
732.52        64.08575
732.94        63.83411
733.36        63.62958
733.78        63.60788
734.20        63.80665
734.62        64.45464
735.04        65.32342
735.46        65.38497
735.88        64.83514
736.30        65.15244
736.72        66.28645
737.13        66.73035
737.55        66.26744
737.97        66.16234
738.39        66.43487
738.81        65.71878
739.23        64.45426
739.65        65.11166
740.06        67.23112
740.48        67.48611
740.90        65.94762
741.32        65.27947
741.74        65.73338
742.16        66.02745
742.57        66.19673
742.99        66.95589
743.41        68.06111
743.83        68.67409
744.25        68.67258
744.67        68.35448
745.08        67.95461
745.50        67.77665
745.92        67.94301
746.34        68.37412
746.75        68.91553
747.17        69.27497
747.59        69.39343
748.01        69.37569
748.42        69.36728
748.84        69.55685
749.26        70.01249
749.68        70.66675
750.09        71.34866
750.51        71.82077
750.93        71.97141
751.35        71.64037
751.76        71.02658
752.18        70.79571
752.60        70.96017
753.01        70.97929
753.43        70.85861
753.85        71.02393
754.27        71.48593
754.68        72.04362
755.10        72.58432
755.52        73.06783
755.93        73.42793
756.35        73.61678
756.77        73.71595
757.18        73.75132
757.60        73.74101
758.02         74.0037
758.43        74.32539
758.85        73.72162
759.26        72.53314
759.68        72.46566
760.10        73.30074
760.51        74.00199
760.93        73.73262
761.34        72.37898
761.76        72.47147
762.18        72.00518
762.59        71.88873
763.01        72.28774
763.42         73.1676
763.84        73.83485
764.26        74.15431
764.67        74.34641
765.09        74.36539
765.50        74.20076
765.92        73.82326
766.33        72.76159
766.75        71.45462
767.16        71.13564
767.58        71.67544
768.00        73.18414
768.41        75.24933
768.83        76.16218
769.24        76.66335
769.66        75.84894
770.07        74.58588
770.49        73.08192
770.90        71.83476
771.32        72.72211
771.73        75.05665
772.15        74.73186
772.56        72.13652
772.97        71.56995
773.39        72.99726
773.80        73.47857
774.22        72.84371
774.63        72.87188
775.05        73.48812
775.46        73.81719
775.88        73.74812
776.29        73.52979
776.70         73.2738
777.12        73.19143
777.53        73.34509
777.95        73.60755
778.36        73.84331
778.77         73.8249
779.19        73.55128
779.60        73.10909
780.02         72.6752
780.43        72.64587
780.84        73.14423
781.26        73.49992
781.67        73.71004
782.09        74.96456
782.50        76.60459
782.91        75.61951
783.33        72.76701
783.74        71.77852
784.15        72.85272
784.57        73.66199
784.98        73.84064
785.39        73.92126
785.81        73.82759
786.22         73.3773
786.63         72.8929
787.04        72.89385
787.46        73.44095
787.87        74.39571
788.28        75.42676
788.70        75.90125
789.11         75.6761
789.52        75.07883
789.93        74.38773
790.35         73.7533
790.76        73.39951
791.17        73.76711
791.58         74.6405
792.00         75.0823
792.41        74.93558
792.82        74.77727
793.23        74.75674
793.65        74.44445
794.06        74.18888
794.47        75.22301
794.88        76.71856
795.29        77.26598
795.71         74.4359
796.12        72.63161
796.53         71.6735
796.94        71.24419
797.35        71.47762
797.76        72.66311
798.18         74.2431
798.59        75.16843
799.00        75.08566
799.41        74.19141
799.82        72.96558
800.23        72.26729
800.64        72.30799
801.06        72.74567
801.47        73.41988
801.88        73.96218
802.29        74.22348
802.70        74.34719
803.11        74.36234
803.52        74.28984
803.93        74.16873
804.34        73.94594
804.75        73.72196
805.17        73.73474
805.58        74.05387
805.99        74.43568
806.40        74.70774
806.81        75.02929
807.22        75.11194
807.63         74.0253
808.04        72.26554
808.45        71.48499
808.86        71.86545
809.27        72.63476
809.68        73.45485
810.09        74.00457
810.50          74.091
810.91        73.82101
811.32         73.3916
811.73        73.12612
812.14        73.11637
812.55        73.21945
812.96        73.39439
813.37        73.57458
813.78         73.7148
814.19        73.89606
814.60        73.97288
815.01        73.69893
815.42        73.06368
815.83        72.11179
816.24        71.20284
816.65        70.97026
817.05        71.59374
817.46        72.85242
817.87        74.25201
818.28        74.89627
818.69        74.54056
819.10        73.40591
819.51        72.04541
819.92        71.40524
820.33        71.73677
820.74        72.75204
821.14        73.94964
821.55        74.42064
821.96        73.97125
822.37        72.92142
822.78        71.71721
823.19        71.00571
823.60        70.96487
824.00        71.43288
824.41        72.10023
824.82         72.5581
825.23        72.62643
825.64        72.45448
826.04        72.18803
826.45        72.02853
826.86        72.02886
827.27        72.08522
827.68        72.14115
828.08        72.14842
828.49        72.03551
828.90        71.90474
829.31         71.7467
829.72        71.53011
830.12        71.30176
830.53        71.04191
830.94        70.92059
831.35        71.16962
831.75        71.84419
832.16        72.81053
832.57        73.83533
832.97        74.42392
833.38        74.36462
833.79        73.81287
834.20         73.0564
834.60        72.53354
835.01        72.39243
835.42        72.49959
835.82        72.71748
836.23        72.73219
836.64        72.49441
837.04        72.13637
837.45        71.77565
837.86        71.59174
838.26        71.64162
838.67        71.81612
839.08         72.0731
839.48        72.33952
839.89        72.53732
840.29        72.69416
840.70        72.75906
841.11        72.63691
841.51        72.33961
841.92         71.8882
842.33        71.41567
842.73        71.15501
843.14        71.13171
843.54        71.31179
843.95        71.56073
844.35        71.71073
844.76        71.68591
845.17        71.55245
845.57        71.34023
845.98        71.10169
846.38        70.86562
846.79        70.58572
847.19        70.33342
847.60        70.16613
848.00        70.13879
848.41        70.21846
848.81        70.35503
849.22        70.38507
849.62        70.32581
850.03        70.22718
850.43        70.19636
850.84        70.35629
851.24        70.77308
851.65        71.22509
852.05        71.78824
852.46        72.42207
852.86        73.08251
853.27        73.80675
853.67         74.1469
854.07        73.53664
854.48        72.02747
854.88        69.82264
855.29        67.72773
855.69        66.91103
856.10        67.59406
856.50        69.64374
856.90        72.30022
857.31        73.79733
857.71        73.58747
858.12        72.12414
858.52        70.28603
858.92        69.22607
859.33        69.19002
859.73        69.85297
860.13        70.93706
860.54        71.85412
860.94        72.39819
861.34        72.73325
861.75        72.89348
862.15        73.01544
862.55        73.11892
862.96        73.11195
863.36         73.0848
863.76        73.19288
864.17        73.45553
864.57        73.88788
864.97         74.3682
865.38         74.6834
865.78         74.8333
866.18        74.80116
866.58         74.6981
866.99        74.71153
867.39        74.94277
867.79        75.36881
868.19        75.75304
868.60        75.64841
869.00        74.97645
869.40        73.90357
869.80        73.01211
870.21        73.18819
870.61        74.68116
871.01        77.17892
871.41        79.94102
871.81        81.70226
872.22         82.0983
872.62        81.47843
873.02        80.42357
873.42        80.07298
873.82        80.50374
874.22        80.95585
874.63          81.297
875.03        81.40347
875.43        81.12227
875.83        81.59839
876.23        80.51192
876.63        80.00623
877.03        79.80913
877.44         80.0593
877.84         105.717
878.24        85.72266
878.64        86.47474
879.04        87.67521
879.44         83.1591
879.84        80.85412
880.24        85.68336
880.64         87.6067
881.04        87.64571
881.44        87.44492
881.84        86.83669
882.24        85.83342
882.65        84.98932
883.05        84.63565
883.45        84.84356
883.85        85.80655
884.25        87.16753
884.65        87.99564
885.05        88.02868
885.45        87.55982
885.85        87.02396
886.25         87.0451
886.65        87.74595
887.05        88.88169
887.45        90.15789
887.85         91.0521
888.25        91.34953
888.65        91.22766
889.04        90.78199
889.44        90.20864
889.84        89.60456
890.24        88.92038
890.64        88.30496
891.04        87.99188
891.44        87.99992
891.84        88.29079
892.24        88.66058
892.64        88.70023
893.04        88.36217
893.44        87.86665
893.83        87.39809
894.23        87.23679
894.63        87.42911
895.03        87.77453
895.43        88.41312
895.83        89.57913
896.23        91.19203
896.63        93.18223
897.02        94.75566
897.42        94.63231
897.82        92.68506
898.22        89.41548
898.62        86.07639
899.01        84.50926
899.41        85.08546
899.81        87.16724
900.21        89.82384
900.61        91.53156
901.00        91.82178
901.40        91.18857
901.80         90.0787
902.20        89.17546
902.59        88.73064
902.99        88.49822
903.39        88.41589
903.79        88.42236
904.18        88.48439
904.58        88.72901
904.98        89.13641
905.38        89.63367
905.77        90.14458
906.17        90.58406
906.57        90.93379
906.96        91.24624
907.36        91.45324
907.76        91.57999
908.15        91.47164
908.55        90.76879
908.95        89.52744
909.34        87.88123
909.74        86.35484
910.14        85.57298
910.53        85.71239
910.93        86.65085
911.33        88.05386
911.72        89.28757
912.12        89.99792
912.52        90.26595
912.91        90.32269
913.31        90.48988
913.70        90.88573
914.10        91.41631
914.49        91.74848
914.89        91.13795
915.29        89.51286
915.68        87.26134
916.08        85.36342
916.47        84.65424
916.87        85.17128
917.26        86.64316
917.66        88.30231
918.05        88.91095
918.45        88.16218
918.84        86.50347
919.24        84.74117
919.64        84.05836
920.03        84.75462
920.42        86.41019
920.82        88.48211
921.21        90.14838
921.61        90.89225
922.00        91.00593
922.40        90.50635
922.79        89.42858
923.19        87.96429
923.58         85.9515
923.98        83.64605
924.37        82.36771
924.77         82.7725
925.16        81.18018
925.55        83.71408
925.95        85.10398
926.34        86.98881
926.74        88.98449
927.13        90.81208
927.52        91.70931
927.92        91.59357
928.31        90.69982
928.70        89.26683
929.10        87.76945
929.49        86.37747
929.89        85.04874
930.28        84.17016
930.67        84.37141
931.07        85.59707
931.46        87.72448
931.85        89.85114
932.24        90.60992
932.64        89.73237
933.03        87.45404
933.42        84.43913
933.82        82.22742
934.21         81.3381
934.60         81.4266
934.99        81.87325
935.39        82.11891
935.78        82.08508
936.17        81.43536
936.56        79.98639
936.96        81.66412
937.35        80.68563
937.74        81.43016
938.13        82.06261
938.53        82.85269
938.92        83.86079
939.31        85.18351
939.70        86.47272
940.09        86.65739
940.49        85.49976
940.88        83.51514
941.27        81.55777
941.66        80.61459
942.05        80.79166
942.44        81.74461
942.84        83.14345
943.23         84.4657
943.62        85.36694
944.01        85.97645
944.40        86.18674
944.79        85.83558
945.18        84.90257
945.57        83.30684
945.97        81.35837
946.36        79.94758
946.75        79.56075
947.14        79.98762
947.53        80.74612
947.92        81.28357
948.31        81.52695
948.70        81.64632
949.09        81.74382
949.48        82.00391
949.87        82.44389
950.26        82.86845
950.65        83.20352
951.04        83.40734
951.43        83.45268
951.82        83.39661
952.21        83.07565
952.60        82.24558
952.99        80.93798
953.38        79.25459
953.77         77.6727
954.16        76.86757
954.55        76.95129
954.94        77.81261
955.33        78.82828
955.72        78.92443
956.11        77.86638
956.50        75.92004
956.89        73.98844
957.28        73.74366
957.66        75.67594
958.05        78.98064
958.44        82.52023
958.83        84.61871
959.22         84.8437
959.61        83.66558
960.00        81.70753
960.39        79.99393
960.78        78.90591
961.16        78.18562
961.55        77.61366
961.94        76.85682
962.33        75.86768
962.72        74.90298
963.11        74.17003
963.49        73.84766
963.88        73.93504
964.27        74.37351
964.66         74.9605
965.04        75.31684
965.43        75.22446
965.82         74.8353
966.21        74.46745
966.60        74.56923
966.98         75.2283
967.37        76.25513
967.76        77.36797
968.15         77.9927
968.53        77.92274
968.92        77.29932
969.31        76.42777
969.69        75.68369
970.08        75.17715
970.47        74.84756
970.86         74.5232
971.24        73.90992
971.63        72.97011
972.02        71.82611
972.40         70.8854
972.79        70.83239
973.17         71.9301
973.56        73.87876
973.95        76.12323
974.33        77.55476
974.72        77.67704
975.11        76.76205
975.49         75.4269
975.88        74.58651
976.26        74.39591
976.65        74.66457
977.04        74.85835
977.42         73.8375
977.81        71.42162
978.19        68.22644
978.58        65.76222
978.96        65.42636
979.35        67.38202
979.74        71.39437
980.12        76.57737
980.51        79.78275
980.89         80.0136
981.28        78.01489
981.66        75.30759
982.05        73.86496
982.43        73.99879
982.82        75.00807
983.20        76.45956
983.59        77.79115
983.97        78.88158
984.35        79.99969
984.74          80.842
985.12        81.04156
985.51        80.24342
985.89        78.33189
986.28         75.9083
986.66        73.84195
987.04        72.67836
987.43        72.45478
987.81        72.41496
988.20        71.45599
988.58        69.16724
988.96        65.00676
989.35        59.93604
989.73        58.94538
990.12        64.90125
990.50         75.1409
990.88        83.48612
991.27        85.47392
991.65        81.81989
992.03        73.99336
992.42        64.96072
992.80        60.34411
993.18        61.89897
993.56        66.77266
993.95        72.43257
994.33        76.63609
994.71        78.76671
995.10         79.9463
995.48        80.08887
995.86        78.72923
996.24        75.86186
996.63        71.08337
997.01        65.50238
997.39        62.79327
997.77          64.589
998.15          70.217
998.54        76.48267
998.92        78.88774
999.30        76.09659
999.68        69.27285
1000.06         60.4113
1000.45         54.3458
1000.83         53.0092
1001.21        54.75195
1001.59         58.0323
1001.97        61.34228
1002.35        64.30901
1002.73        67.81045
1003.12        71.05859
1003.50        71.32608
1003.88        67.62694
1004.26        61.44229
1004.64        55.45362
1005.02        51.77757
1005.40        50.37867
1005.78        50.73282
1006.16         53.8727
1006.54        60.15137
1006.92        66.34937
1007.30        70.59927
1007.69        72.57307
1008.07        72.97655
1008.45        72.02624
1008.83        68.50767
1009.21        58.26258
1009.59        29.99126
1009.97       -33.40868
1010.35       -101.9295
1010.73       -71.01974
1011.11       -19.70177
1011.49        11.99335
1011.86          33.737
1012.24         45.4803
1012.62        49.88707
1013.00        49.75239
1013.38        45.65858
1013.76        39.59679
1014.14        39.47019
1014.52        52.12449
1014.90        80.10139
1015.28        115.4496
1015.66        133.1339
1016.04         118.547
1016.41        77.25313
1016.79        33.87996
1017.17         14.1803
1017.55         15.1265
1017.93        23.32648
1018.31        32.12734
1018.69        38.43456
1019.06        42.64545
1019.44        45.98937
1019.82          49.841
1020.20        55.68213
1020.58        64.78224
1020.95        79.08218
1021.33        92.07888
1021.71        179.9251
1022.09        128.5503
1022.46        133.3044
1022.84        139.1808
1023.22        148.5658
1023.60        171.5438
1023.97        392.7661
1024.35        20.45732
1024.73        64.75009
