SpectraSmart Spectrum 2.9.0.0
--------- Device Information -----------
Spectrum Name :  反射率_0
Saving Time :  2024/04/26 00:42:00
Spectro-Module Model Name : SE2030-DUVN
Spectro-Module Serial Number : OS361AC55029948
Wavelength Start : 200
Wavelength End : 1025
Wavelength Unit : Wavelength(nm)
Spectrum Unit : Reflectance(%)
-----------Spectrum Setting ------------
Integration Time : 20ms
Average : 10
Boxcar : 0
Background removal :  enabled
linearity correction :  enabled
SC :  disabled
Intensity correction :  disabled
DWT denoise :  enabled
savitzky-golay :  disabled
FFT :  disabled
Running average :  disabled
Kalman :  disabled
High pass :  disabled
---------------BEGIN--------------------
Wavelength(nm)             Reflectance(%)
200.29               0
200.75        103.3285
201.21        103.4574
201.67        101.3523
202.13         98.4873
202.58        95.50153
203.04        92.39844
203.50        89.28008
203.96        86.92517
204.42        85.72822
204.88        85.43966
205.34        86.24012
205.80        88.59764
206.26        93.38122
206.72        103.4938
207.18        122.9698
207.64        140.6836
208.10        130.8042
208.55        107.6622
209.01        92.73222
209.47        87.71024
209.93        88.42703
210.39        92.91949
210.85         98.0136
211.31        97.18017
211.77        88.83118
212.23        75.68839
212.69        63.38945
213.14        60.50911
213.60        68.31818
214.06        84.13789
214.52        102.0841
214.98        113.0229
215.44        114.6319
215.90        110.1045
216.36        102.9019
216.81        97.77486
217.27        96.47571
217.73        97.26017
218.19        98.92413
218.65        100.2131
219.11        100.7306
219.57        100.7088
220.02        101.0048
220.48        103.9178
220.94        109.2814
221.40        115.5783
221.86        118.5774
222.32        114.7547
222.77        105.8009
223.23        95.44663
223.69         87.4994
224.15        85.99889
224.61        90.36525
225.06         98.5575
225.52        107.5887
225.98        113.4507
226.44        115.2831
226.90        114.4869
227.36        113.0532
227.81        113.7229
228.27        117.2808
228.73        122.2969
229.19         127.082
229.65        129.2766
230.10        128.5326
230.56        126.4191
231.02        124.1062
231.48        122.9424
231.93        123.0104
232.39         123.894
232.85        125.1186
233.31        126.1695
233.77        126.8151
234.22        127.2902
234.68        127.3737
235.14        126.7747
235.60        125.5198
236.05        123.7186
236.51        121.7157
236.97        119.9308
237.43        118.2942
237.88        116.6424
238.34        114.6268
238.80        112.5526
239.26        110.6928
239.71        109.7721
240.17         108.591
240.63        105.6227
241.08        100.9018
241.54        94.98059
242.00        90.11025
242.46        89.31602
242.91        94.75934
243.37           111.5
243.83        160.1492
244.28         284.852
244.74        360.7323
245.20         238.207
245.66        164.0568
246.11        142.6374
246.57        145.7481
247.03        177.2527
247.48        284.1545
247.94         252.784
248.40         143.094
248.85        107.2107
249.31        96.11716
249.77        94.74362
250.22        98.84514
250.68        107.9761
251.14        122.0208
251.59        132.7275
252.05        131.0074
252.51        120.4805
252.96        108.3284
253.42        101.9432
253.88         101.198
254.33        103.4409
254.79        108.4385
255.25        115.1396
255.70        121.9461
256.16        128.9064
256.62        134.2141
257.07        135.9724
257.53        135.3315
257.99        132.8575
258.44        129.7155
258.90        128.6234
259.35        128.4798
259.81        128.7462
260.27        128.1882
260.72        125.6298
261.18        121.9699
261.63        117.3914
262.09        112.8802
262.55        108.4874
263.00        104.3018
263.46        100.7191
263.91        97.56863
264.37        95.33761
264.83        93.60715
265.28        92.05824
265.74        90.53195
266.19         88.3522
266.65        85.89435
267.11        83.43687
267.56        81.15859
268.02         79.3489
268.47        77.82416
268.93        76.49385
269.38        75.36861
269.84        74.69247
270.30        74.46208
270.75        74.60166
271.21        74.75275
271.66        74.34871
272.12         73.3035
272.57         71.7545
273.03        70.13842
273.48        68.99503
273.94        68.50487
274.39        68.40866
274.85        68.45156
275.31        68.17107
275.76        67.43002
276.22        66.44393
276.67        65.33164
277.13        64.45378
277.58        63.78424
278.04        63.29452
278.49        62.75759
278.95        62.04164
279.40        61.04646
279.86        59.95541
280.31        58.83059
280.77        57.95992
281.22        57.31934
281.68        56.88613
282.13        56.52158
282.59        56.15923
283.04        55.71216
283.50        55.26642
283.95        54.76082
284.41          54.186
284.86        53.52056
285.32        52.80299
285.77        52.09584
286.22        51.60337
286.68        51.33387
287.13        51.17609
287.59        50.99532
288.04        50.52165
288.50        49.76528
288.95         48.7911
289.41        47.76794
289.86         46.7886
290.32        45.97826
290.77        45.26404
291.22        44.72483
291.68        44.43232
292.13        44.36767
292.59         44.5172
293.04        44.75454
293.50        44.89322
293.95        44.87364
294.40        44.73104
294.86        44.56177
295.31        44.51809
295.77        44.64619
296.22        44.89567
296.68        45.18819
297.13        45.37088
297.58        45.42324
298.04        45.41536
298.49        45.43972
298.95        45.68389
299.40        46.16097
299.85        46.79838
300.31        47.47369
300.76        48.00466
301.21        48.32772
301.67        48.53571
302.12         48.6316
302.58        48.71116
303.03        48.77131
303.48        48.80467
303.94        48.89901
304.39        49.13715
304.84        49.53485
305.30        50.06106
305.75        50.54396
306.20        50.74519
306.66        50.65187
307.11         50.3167
307.57        49.94666
308.02         49.7445
308.47        49.79576
308.93        50.02888
309.38        50.32713
309.83        50.55276
310.29        50.65371
310.74         50.6596
311.19        50.61074
311.65        50.56054
312.10        50.51815
312.55        50.46672
313.00        50.36723
313.46        50.17591
313.91        49.88307
314.36        49.52888
314.82        49.20561
315.27        49.01709
315.72        48.99628
316.18        49.10508
316.63        49.25985
317.08        49.29755
317.53        49.17208
317.99        48.91588
318.44        48.62989
318.89         48.4804
319.35        48.48824
319.80        48.61159
320.25        48.70961
320.70        48.55657
321.16         48.1148
321.61        47.47138
322.06        46.78757
322.51        46.30755
322.97        46.07384
323.42        46.02224
323.87        46.03952
324.32        45.93668
324.78        45.65464
325.23        45.27776
325.68        44.84868
326.13        44.44341
326.59        44.08772
327.04        43.77423
327.49         43.5321
327.94        43.42582
328.39        43.45901
328.85        43.60301
329.30        43.80878
329.75        43.91364
330.20        43.87512
330.66        43.71396
331.11        43.52417
331.56        43.40731
332.01        43.39582
332.46        43.44479
332.92        43.51147
333.37        43.59319
333.82        43.64749
334.27        43.70023
334.72        43.71304
335.17        43.61771
335.63        43.41191
336.08        43.12966
336.53        42.86939
336.98        42.80656
337.43        42.97377
337.88        43.31788
338.34         43.7019
338.79        43.95723
339.24        44.00425
339.69          43.897
340.14        43.71749
340.59        43.61398
341.05        43.62748
341.50        43.70528
341.95        43.80864
342.40        43.88728
342.85         43.9243
343.30        43.95204
343.75        43.94522
344.20        43.85881
344.66         43.6967
345.11        43.44481
345.56        43.19452
346.01        43.08174
346.46        43.12366
346.91        43.29134
347.36        43.44191
347.81        43.34708
348.26        42.98097
348.72        42.44833
349.17        41.91383
349.62        41.71945
350.07        41.93969
350.52        42.45116
350.97        43.06706
351.42        43.50563
351.87        43.67921
352.32         43.6624
352.77        43.51624
353.22         43.3418
353.67        43.17906
354.13        43.00113
354.58        42.79099
355.03        42.56988
355.48        42.34659
355.93        42.14244
356.38        41.95578
356.83        41.77025
357.28        41.57945
357.73        41.37795
358.18         41.1828
358.63        41.01941
359.08        40.89256
359.53         40.8062
359.98        40.70488
360.43        40.50421
360.88        40.19344
361.33        39.78527
361.78        39.39644
362.23        39.21833
362.68        39.27384
363.13        39.49508
363.58        39.69505
364.03        39.58071
364.48        39.09897
364.93        38.35443
365.38        37.53803
365.83         36.9573
366.28        36.70118
366.73        36.67757
367.18        36.77559
367.63        36.81063
368.08        36.71566
368.53        36.54943
368.98        36.34176
369.43        36.12943
369.88          35.931
370.33        35.72905
370.78        35.52155
371.23        35.32025
371.68        35.13062
372.13        34.95016
372.58        34.81218
373.03        34.76445
373.48        34.80501
373.93        34.91496
374.38         35.0065
374.83        34.94405
375.28        34.70665
375.72        34.32848
376.17        33.93069
376.62        33.67686
377.07        33.60872
377.52        33.66348
377.97         33.7709
378.42         33.8161
378.87        33.75982
379.32        33.64734
379.77        33.47626
380.22        33.23785
380.67        32.94256
381.11        32.58723
381.56        32.23567
382.01        32.00652
382.46         31.9264
382.91        31.97169
383.36        32.04694
383.81        31.99193
384.26         31.7752
384.71        31.44882
385.15         31.1074
385.60        30.91656
386.05        30.89036
386.50        30.96685
386.95        31.06208
387.40         31.0391
387.85        30.87273
388.29        30.61915
388.74        30.36337
389.19        30.13231
389.64        29.94034
390.09        29.76262
390.54        29.64112
390.98        29.64853
391.43        29.79237
391.88         30.0303
392.33        30.26033
392.78        30.32922
393.23        30.22032
393.67        29.97605
394.12        29.72335
394.57        29.54704
395.02        29.47568
395.47        29.46973
395.91        29.52929
396.36        29.61408
396.81        29.70964
397.26        29.80663
397.71        29.86714
398.15        29.80563
398.60        29.65573
399.05        29.45261
399.50        29.22446
399.95        28.92626
400.39        28.70073
400.84        28.45321
401.29        28.26591
401.74        28.22927
402.18        28.36731
402.63        28.61885
403.08        28.91305
403.53        29.12677
403.97        29.22137
404.42         29.2274
404.87        29.14599
405.32        28.98921
405.76        28.77775
406.21        28.52603
406.66        28.30577
407.11        28.22895
407.55        28.31708
408.00        28.53688
408.45        28.79391
408.90        28.88659
409.34        28.75994
409.79        28.48572
410.24        28.19204
410.68        28.05855
411.13        28.12904
411.58        28.34073
412.03        28.61789
412.47        28.83169
412.92        28.91029
413.37        28.90014
413.81        28.83022
414.26        28.76716
414.71        28.72086
415.15        28.66776
415.60        28.59056
416.05        28.48482
416.49        28.35435
416.94        28.22771
417.39        28.10109
417.83        27.96052
418.28        27.82036
418.73        27.67669
419.17        27.58881
419.62        27.64679
420.07        27.84951
420.51        28.16475
420.96        28.46808
421.41        28.55134
421.85         28.3653
422.30        28.01448
422.74        27.62428
423.19        27.42916
423.64        27.45454
424.08        27.64927
424.53        27.90483
424.98        28.07898
425.42        28.13065
425.87        28.08079
426.31        27.98373
426.76        27.99697
427.21        28.10752
427.65        28.08405
428.10        27.99653
428.54        28.15435
428.99        28.56414
429.44        29.05635
429.88        29.41713
430.33        29.46509
430.77         29.1393
431.22        28.41604
431.66         27.5852
432.11        27.32473
432.56         27.6683
433.00        28.14785
433.45        28.54007
433.89        29.05389
434.34        29.36124
434.78         29.0686
435.23        27.67501
435.67        27.56029
436.12        28.34038
436.57        28.67079
437.01        28.41387
437.46        28.27456
437.90         28.3171
438.35        28.33432
438.79        28.29448
439.24        28.22527
439.68        28.14824
440.13        27.95436
440.57        27.76702
441.02        28.15494
441.46        28.91794
441.91        28.99297
442.35        28.44596
442.80        28.24996
443.24        28.36188
443.69        28.38598
444.13        28.26482
444.58        27.90369
445.02        27.44763
445.47        27.47414
445.91        27.86822
446.36        27.93716
446.80         27.6322
447.24        27.35504
447.69        27.19139
448.13        27.09534
448.58        27.09571
449.02        27.18892
449.47        27.32162
449.91        27.40675
450.36        27.42122
450.80        27.38289
451.25        27.32182
451.69        27.26951
452.13        27.24384
452.58        27.22321
453.02        27.20993
453.47        27.21629
453.91         27.2425
454.36        27.29665
454.80        27.35011
455.24        27.34393
455.69        27.28281
456.13        27.17343
456.58        27.09811
457.02        27.13893
457.46        27.31923
457.91        27.59738
458.35         27.8878
458.79         28.0595
459.24        28.09199
459.68        28.00378
460.13        27.88046
460.57        27.79846
461.01        27.80372
461.46        27.86791
461.90         27.9456
462.34        27.96939
462.79        27.91272
463.23        27.79056
463.68        27.66949
464.12        27.67412
464.56        27.82439
465.01        28.10348
465.45         28.3368
465.89        28.37623
466.34        28.21921
466.78        27.75874
467.22        27.23509
467.67         27.3095
468.11        27.90379
468.55        28.18456
468.99        28.05308
469.44        27.92286
469.88        27.88832
470.32        28.04897
470.77        28.32972
471.21        28.39672
471.65        28.22209
472.10        28.07454
472.54         28.0134
472.98        28.02832
473.42        28.13637
473.87        28.34851
474.31        28.58678
474.75        28.72938
475.20        28.75575
475.64        28.68497
476.08        28.58558
476.52        28.56255
476.97        28.64265
477.41        28.79574
477.85        28.95561
478.29        29.07077
478.74        29.12981
479.18        29.01675
479.62        28.79942
480.06        29.06503
480.50        29.23044
480.95        29.37127
481.39        29.28529
481.83        29.26494
482.27        29.31176
482.72        29.16078
483.16        28.90591
483.60        29.04921
484.04        29.58344
484.48        29.76344
484.93        29.92881
485.37        30.31347
485.81        31.04034
486.25         31.2251
486.69        42.01709
487.14        34.13975
487.58        21.61956
488.02        26.37324
488.46        29.83008
488.90        29.82446
489.34        29.98101
489.79        29.76518
490.23        31.24263
490.67        31.93516
491.11        31.53213
491.55        31.44992
491.99         31.5691
492.43        31.43634
492.88        31.13394
493.32        31.13819
493.76        31.24091
494.20        31.48945
494.64        31.78547
495.08        32.12672
495.52        32.49631
495.96        32.88403
496.41        33.19154
496.85        33.42342
497.29        33.54723
497.73        33.08358
498.17        32.46511
498.61        32.71455
499.05        33.82402
499.49        34.01099
499.93        34.07939
500.37        34.21397
500.82        34.30673
501.26        34.57613
501.70        34.86386
502.14        34.99915
502.58        34.95187
503.02        34.92633
503.46        34.93818
503.90          34.856
504.34        34.73147
504.78        34.71139
505.22        34.81542
505.66        35.00761
506.10        35.22347
506.54        35.35147
506.98        35.36293
507.42        35.29334
507.86        35.21278
508.30        35.23019
508.74        35.36736
509.18         35.5822
509.62        35.81469
510.06        35.96812
510.50        36.01712
510.94        36.00274
511.38        35.95551
511.82         35.9201
512.26        35.91661
512.70        35.92545
513.14        35.96619
513.58        36.07352
514.02        36.23563
514.46        36.43404
514.90        36.61004
515.34        36.64133
515.78        36.48635
516.22        36.30859
516.66        36.17715
517.10        35.84324
517.54        35.33323
517.98        35.93931
518.42        35.75685
518.86        36.02585
519.30        36.16036
519.74        36.34224
520.18        36.51599
520.62        36.56756
521.06        36.50206
521.50        36.33158
521.93        36.12432
522.37        36.00185
522.81        35.99628
523.25         36.0765
523.69        36.19232
524.13        36.26373
524.57        36.26801
525.01         36.2284
525.45         36.1739
525.89        36.15111
526.32        36.16562
526.76        36.19611
527.20        36.21052
527.64        36.17264
528.08        36.08354
528.52          35.931
528.96        35.72929
529.40        35.59868
529.83        35.57232
530.27        35.25538
530.71        35.34338
531.15         35.2723
531.59        35.24883
532.03        35.25343
532.46        35.30079
532.90        35.40282
533.34        35.53943
533.78         35.6934
534.22        35.81862
534.66        35.85353
535.09        35.78143
535.53        35.63929
535.97         35.4519
536.41        35.26944
536.85        35.11951
537.28         34.9988
537.72        34.92571
538.16        34.93085
538.60        35.01402
539.04        35.13579
539.47        35.26647
539.91        35.45266
540.35        35.64334
540.79        35.70156
541.22        35.65231
541.66        35.68133
542.10        35.80097
542.54        35.90325
542.97        35.99975
543.41          36.169
543.85        36.40511
544.29        36.70232
544.72        36.97897
545.16        37.12143
545.60        37.10995
546.04        36.97483
546.47        36.84941
546.91         36.9591
547.35        37.33105
547.79        37.90423
548.22        38.49013
548.66        38.76748
549.10         38.6921
549.53        38.41933
549.97        38.14191
550.41        38.06736
550.84        38.26341
551.28        38.67995
551.72        39.19735
552.15        39.59507
552.59         39.8037
553.03        39.89041
553.46        39.91193
553.90        39.99049
554.34        40.15871
554.77        40.33032
555.21        40.46986
555.65         40.6511
556.08        40.88231
556.52        40.65292
556.96        40.92694
557.39        40.94974
557.83        41.02505
558.27        41.11261
558.70         41.2322
559.14        41.39753
559.57        41.58699
560.01        41.80961
560.45        42.01423
560.88        42.11932
561.32        42.13999
561.75         42.0787
562.19        42.00697
562.63        41.97964
563.06        42.00933
563.50        42.08982
563.93        42.20068
564.37        42.33423
564.80         42.4654
565.24        42.61092
565.68         42.7489
566.11        42.84773
566.55         42.9344
566.98         43.0128
567.42        43.11573
567.85        43.28509
568.29        43.55994
568.72        43.80429
569.16        44.08834
569.60        44.61894
570.03        45.17514
570.47        45.33766
570.90        45.28564
571.34        44.60351
571.77        45.27319
572.21         45.5027
572.64        45.38584
573.08        44.83355
573.51        42.92787
573.95        44.82206
574.38        47.98924
574.82        46.91946
575.25        46.60843
575.69        45.03258
576.12        44.50242
576.56         43.8877
576.99        45.16348
577.42        47.13885
577.86        47.02311
578.29        46.74744
578.73        49.32661
579.16        45.34899
579.60        41.31976
580.03        43.07171
580.47        45.88449
580.90        46.74348
581.33        46.08481
581.77        45.10936
582.20        49.97931
582.64        49.64927
583.07        42.16333
583.51        41.16508
583.94        40.24433
584.37        41.84161
584.81        43.79967
585.24         46.0488
585.68        47.09055
586.11        46.44566
586.54        43.15309
586.98        41.68545
587.41        41.99747
587.85        44.21905
588.28        45.65429
588.71         43.3462
589.15        42.11237
589.58        42.59526
590.01        43.00138
590.45        43.74516
590.88        43.86845
591.31        43.42056
591.75         43.2869
592.18        43.37481
592.61        44.26033
593.05        44.73244
593.48        47.08851
593.91        47.27412
594.35        43.61039
594.78        42.78816
595.21        42.76129
595.65        44.86568
596.08        46.69833
596.51        45.00508
596.94        43.81805
597.38        44.41058
597.81        46.41028
598.24        47.61145
598.68        47.32507
599.11        46.40636
599.54         48.5356
599.97        50.14202
600.41        47.23535
600.84        47.88219
601.27        49.26647
601.70        48.49672
602.14         49.1187
602.57        48.61835
603.00        49.15998
603.43        51.00817
603.87        52.48468
604.30        52.77422
604.73         51.8032
605.16        51.27156
605.60        52.30531
606.03        53.60844
606.46        54.97142
606.89        55.02555
607.32        53.79737
607.76        54.48584
608.19         56.3137
608.62        55.96047
609.05         55.3616
609.48        56.09522
609.92        56.29871
610.35         56.3637
610.78        58.71449
611.21        59.31673
611.64        57.17062
612.07        57.97066
612.50        58.52979
612.94        59.18457
613.37        59.06973
613.80        59.47877
614.23        60.25567
614.66        60.56252
615.09        61.19911
615.52        61.52922
615.96        61.62403
616.39         62.0354
616.82        61.53867
617.25        61.08817
617.68        62.05962
618.11        62.73625
618.54        63.35513
618.97        63.05907
619.40        62.24258
619.84        62.47835
620.27        63.68757
620.70        64.63577
621.13        65.07176
621.56        64.65873
621.99        63.72136
622.42         64.5022
622.85        66.56873
623.28        65.99606
623.71        65.68571
624.14        65.39012
624.57        65.34219
625.00        65.14716
625.43        65.31651
625.86        64.65024
626.29        64.50323
626.72        65.17996
627.15        64.39156
627.58         64.3233
628.01        64.19034
628.44        64.00461
628.87        63.81433
629.30        63.81532
629.73        63.86209
630.16        64.02626
630.59         63.2326
631.02           62.55
631.45        61.84388
631.88        61.23399
632.31        60.77762
632.74        60.44896
633.17        60.19004
633.60        59.87324
634.03        59.46558
634.46        59.01027
634.89         58.5397
635.32        58.10334
635.75        57.71903
636.18        57.36442
636.61        57.02631
637.04         56.6885
637.47        56.33873
637.89         55.9856
638.32        55.61555
638.75        55.24696
639.18        54.88858
639.61        54.54558
640.04        54.20576
640.47        53.84514
640.90        53.46641
641.33        53.07906
641.76        52.70844
642.18        52.47226
642.61        52.38685
643.04        52.30206
643.47        52.15166
643.90        52.50561
644.33        52.26213
644.76          52.313
645.18        52.34357
645.61        52.38772
646.04        52.44457
646.47        52.49817
646.90        52.60735
647.33        52.85835
647.75        53.28336
648.18        53.81084
648.61        54.29903
649.04        54.74205
649.47        55.02161
649.89        54.60762
650.32         53.9386
650.75        54.33125
651.18         55.7643
651.61        57.07176
652.03        57.88171
652.46        58.52866
652.89        59.18926
653.32        58.97599
653.74        58.41718
654.17        60.05535
654.60        61.27954
655.03        60.09658
655.46        61.63184
655.88        65.73222
656.31        70.23922
656.74        166.2555
657.16        108.7675
657.59        37.81039
658.02         28.2291
658.45        49.29507
658.87        63.29374
659.30         66.7242
659.73        66.21555
660.15        64.44972
660.58        67.16194
661.01         69.1404
661.44        67.09972
661.86        66.68463
662.29        67.13322
662.72        68.25554
663.14        69.78893
663.57        70.05111
664.00        69.27071
664.42        69.27151
664.85         70.1167
665.27        70.92059
665.70        70.83821
666.13          70.882
666.55          70.852
666.98        70.62577
667.41        70.35594
667.83        70.36287
668.26        70.71195
668.69        71.26511
669.11        71.81262
669.54        72.35213
669.96        72.13869
670.39        71.86877
670.82        71.52699
671.24        71.35206
671.67        71.50559
672.09        72.05468
672.52        72.71643
672.94        73.46247
673.37        72.97256
673.80        72.83415
674.22        72.78697
674.65        72.79521
675.07        72.86693
675.50        72.87865
675.92         72.8772
676.35        73.03955
676.77        73.37303
677.20        73.74797
677.62        74.10019
678.05        74.31999
678.47        74.35697
678.90        74.31332
679.32         74.2955
679.75        74.16886
680.17        74.22195
680.60        74.84151
681.02        74.87103
681.45        75.02778
681.87        74.94497
682.30        74.78065
682.72        74.63298
683.15        74.54072
683.57        74.63527
684.00        75.09756
684.42        75.90332
684.85        76.32201
685.27        76.29805
685.70        76.23199
686.12        76.14404
686.54        75.86766
686.97        75.60255
687.39        75.62775
687.82        76.22741
688.24        76.84315
688.66        76.60806
689.09        76.62009
689.51        76.69994
689.94        76.81564
690.36        76.98679
690.78        77.21225
691.21        77.44418
691.63        77.60265
692.06         77.6728
692.48        77.68732
692.90        77.70695
693.33        77.79253
693.75        77.95932
694.17        78.27807
694.60        78.54145
695.02        78.76645
695.44        78.84084
695.87        78.97057
696.29        79.19779
696.71        79.00465
697.14        78.60873
697.56         79.2747
697.98        80.67053
698.41        80.54404
698.83        79.71265
699.25        79.14555
699.68        79.19801
700.10        79.14469
700.52        79.01749
700.94        79.29911
701.37        79.75705
701.79        80.25055
702.21        80.63133
702.64        80.92776
703.06        81.15511
703.48        81.07401
703.90        80.73618
704.33        80.19549
704.75        79.63991
705.17        79.46874
705.59        79.77115
706.01        80.30222
706.44        80.87149
706.86        81.81193
707.28        81.92001
707.70        82.24394
708.12        82.44433
708.55        82.19836
708.97        81.66202
709.39        81.56962
709.81        81.91697
710.23        82.02097
710.66         81.8579
711.08         81.9036
711.50         82.1019
711.92        82.16191
712.34        82.06435
712.76        81.87219
713.19        81.71114
713.61        81.82155
714.03        82.22256
714.45        82.82759
714.87        83.41576
715.29        83.64531
715.71        83.45158
716.13        82.94791
716.56        82.35707
716.98        82.09471
717.40        82.26158
717.82        82.68524
718.24        83.20322
718.66        83.65688
719.08        83.89861
719.50        83.74007
719.92        83.30604
720.34        83.07648
720.76        83.13361
721.19        83.02528
721.61        83.15348
722.03         83.2538
722.45        83.42927
722.87         83.6589
723.29        83.91104
723.71         84.1118
724.13        84.23493
724.55        84.29897
724.97        84.31378
725.39        84.30499
725.81        84.28942
726.23        84.26327
726.65        84.25774
727.07        84.31874
727.49         84.4581
727.91        84.67613
728.33        84.92445
728.75        85.11559
729.17        85.22034
729.59        85.24709
730.01        85.26527
730.43        85.37953
730.85        85.61615
731.27        85.97462
731.69        86.33142
732.10        86.46441
732.52        86.33057
732.94        86.03613
733.36        85.76334
733.78        85.74758
734.20        86.05698
734.62        86.79367
735.04        87.60133
735.46        88.07087
735.88        86.71861
736.30        87.03581
736.72        88.55106
737.13        89.16647
737.55        88.58574
737.97        88.45229
738.39        88.80936
738.81        87.91509
739.23        86.39096
739.65        87.43472
740.06        90.34901
740.48        91.14618
740.90        88.84308
741.32        87.94015
741.74        88.45915
742.16         88.6779
742.57        88.65961
742.99        89.37808
743.41        90.58374
743.83        91.30368
744.25        91.37732
744.67         91.0544
745.08        90.60869
745.50        90.48158
745.92         90.8056
746.34        91.40901
746.75        92.09207
747.17        92.51302
747.59        92.60694
748.01         92.5349
748.42        92.47205
748.84        92.61011
749.26         93.0848
749.68        93.85203
750.09        94.73228
750.51        95.61206
750.93        96.21063
751.35        95.78542
751.76        94.66023
752.18        94.26586
752.60        94.62161
753.01        94.74117
753.43        94.64103
753.85        94.79926
754.27        95.17319
754.68        96.37977
755.10         97.0642
755.52        97.30357
755.93        98.13902
756.35        98.30666
756.77        98.36175
757.18        98.35866
757.60        98.39512
758.02        98.78596
758.43        99.08694
758.85        98.45756
759.26        96.53015
759.68        95.65035
760.10         98.0125
760.51        98.99741
760.93        98.94124
761.34        97.03249
761.76        96.48598
762.18        95.63633
762.59        95.57232
763.01        96.07451
763.42         97.0769
763.84        98.19904
764.26        99.15694
764.67        99.39861
765.09        98.98402
765.50        98.95578
765.92         99.1228
766.33        97.68407
766.75        95.22091
767.16        94.52529
767.58        95.14935
768.00        96.82751
768.41        98.96052
768.83        101.0324
769.24         102.179
769.66        101.5436
770.07        99.72027
770.49        97.63708
770.90         95.9668
771.32        96.92643
771.73        99.68896
772.15        99.08517
772.56        95.69829
772.97        95.08761
773.39        97.13458
773.80        98.04108
774.22        97.43835
774.63        97.02093
775.05        97.28664
775.46        97.36689
775.88        97.34419
776.29        97.18851
776.70        96.97817
777.12        97.00764
777.53        97.32056
777.95        97.76074
778.36         98.1462
778.77        98.15412
779.19        97.77297
779.60        97.12027
780.02        96.48241
780.43        96.37082
780.84        96.97176
781.26        97.65567
781.67        98.29406
782.09        99.75222
782.50         101.306
782.91        100.0071
783.33        96.82567
783.74         95.7844
784.15        97.10106
784.57        98.37282
784.98        99.02435
785.39        98.93494
785.81        98.16977
786.22        97.53523
786.63        97.37418
787.04        97.47239
787.46        97.89564
787.87        98.96091
788.28        100.3007
788.70        100.9739
789.11         100.805
789.52        100.2012
789.93        99.44194
790.35        98.73251
790.76        98.28436
791.17        98.35687
791.58         98.8343
792.00        99.16257
792.41        99.13229
792.82        99.03429
793.23        98.98699
793.65        98.28937
794.06        97.56352
794.47        99.21771
794.88        102.0125
795.29        102.7662
795.71        99.00278
796.12        96.26868
796.53        94.69918
796.94         94.3102
797.35        95.15476
797.76        96.59284
798.18        97.97177
798.59        99.03749
799.00        99.40026
799.41        98.66432
799.82        97.29338
800.23        96.46602
800.64         96.4163
801.06        96.68107
801.47        97.15523
801.88        97.55996
802.29         97.7673
802.70         97.9223
803.11        98.01009
803.52        97.95451
803.93        97.78728
804.34        97.49529
804.75        97.21943
805.17        97.33029
805.58        97.94167
805.99        98.52594
806.40        98.90827
806.81        99.81491
807.22        100.6578
807.63        99.23564
808.04        96.31297
808.45        95.04089
808.86        95.71593
809.27        96.78419
809.68        97.74519
810.09        98.35116
810.50        98.35292
810.91        97.86242
811.32        97.19307
811.73        96.84222
812.14        96.94005
812.55        97.29346
812.96        97.80055
813.37        98.22215
813.78          98.479
814.19        98.82087
814.60        99.01537
815.01        98.58086
815.42        97.50854
815.83        95.93501
816.24        94.44175
816.65        94.01932
817.05        94.95303
817.46        96.92876
817.87         99.1684
818.28        100.2695
818.69        99.84665
819.10        98.23289
819.51        96.27759
819.92        95.46768
820.33        96.18743
820.74        97.88947
821.14        99.76576
821.55        100.6097
821.96        100.0141
822.37        98.01901
822.78        95.48687
823.19        94.09695
823.60        94.18956
824.00         95.1712
824.41        96.46758
824.82        97.38486
825.23        97.57418
825.64        97.30118
826.04        96.78406
826.45        96.33307
826.86        96.05761
827.27        95.80114
827.68        95.60775
828.08        95.63528
828.49        95.81757
828.90        96.22588
829.31        96.66576
829.72        96.74103
830.12        96.39287
830.53        95.72581
830.94        95.07696
831.35        94.91348
831.75        95.38213
832.16        96.28048
832.57        97.39888
832.97         98.2828
833.38        98.65965
833.79        98.64365
834.20        98.42727
834.60        98.31012
835.01        98.40034
835.42        98.59485
835.82        98.70741
836.23        98.34303
836.64        97.49892
837.04        96.36079
837.45         95.2765
837.86        94.77881
838.26        95.00157
838.67        95.73817
839.08        96.71572
839.48         97.4192
839.89        97.61646
840.29        97.46815
840.70        97.09354
841.11        96.65946
841.51        96.24792
841.92        95.76312
842.33        95.30962
842.73        95.08941
843.14        95.09342
843.54        95.34879
843.95        95.60629
844.35        95.51061
844.76          94.984
845.17        94.16306
845.57        93.32597
845.98        92.91679
846.38        93.02811
846.79        93.48862
847.19         94.1183
847.60        94.47094
848.00        94.45781
848.41        94.20062
848.81         93.8528
849.22        93.56755
849.62        93.47338
850.03        93.51279
850.43        93.77044
850.84         94.2646
851.24        95.02122
851.65        95.78878
852.05         96.6387
852.46        97.47193
852.86        98.22932
853.27        98.98169
853.67        99.18212
854.07        98.14717
854.48        95.97872
854.88        92.93904
855.29         90.1293
855.69        89.14476
856.10        90.27927
856.50         93.3504
856.90        97.26605
857.31        99.49158
857.71        99.20849
858.12        97.08461
858.52        94.36036
858.92        92.71395
859.33        92.50507
859.73        93.29464
860.13        94.71241
860.54        95.97527
860.94        96.81709
861.34        97.41085
861.75        97.82267
862.15        98.24406
862.55        98.67467
862.96        98.94844
863.36        99.02322
863.76        98.81427
864.17         98.3579
864.57        97.83733
864.97        97.37406
865.38        97.10464
865.78        97.12476
866.18         97.3074
866.58         97.7471
866.99        98.56948
867.39         99.8222
867.79          101.49
868.19        103.0371
868.60        103.4647
869.00         102.576
869.40        100.5974
869.80        98.57176
870.21         98.1733
870.61        99.87212
871.01        103.1688
871.41        106.8882
871.81        109.0061
872.22        108.9239
872.62        107.2766
873.02        105.1487
873.42        104.1472
873.82        104.7458
874.22         106.707
874.63        109.2193
875.03        110.4975
875.43        109.7989
875.83        107.4676
876.23        106.0499
876.63        106.3895
877.03        109.3328
877.44        115.3826
877.84        92.64407
878.24        123.9105
878.64        121.0293
879.04        113.9852
879.44        113.1135
879.84        112.4367
880.24        110.1705
880.64         111.516
881.04        115.5868
881.44        118.2563
881.84        117.6588
882.24        114.9596
882.65         111.945
883.05        110.9953
883.45         112.523
883.85        115.7188
884.25        119.3225
884.65        121.2252
885.05        120.7241
885.45        118.6099
885.85        116.1692
886.25         115.125
886.65        115.8378
887.05        117.7229
887.45        120.0479
887.85        121.5125
888.25        121.6481
888.65         120.934
889.04        119.7608
889.44        118.7648
889.84         118.167
890.24        117.7199
890.64        117.4736
891.04        117.5526
891.44        117.9112
891.84        118.5677
892.24        119.2254
892.64        119.2878
893.04        118.7005
893.44        117.7622
893.83        116.8388
894.23        116.5143
894.63        116.8873
895.03        117.6966
895.43        118.9851
895.83        120.7864
896.23        122.9066
896.63        125.2729
897.02        127.1126
897.42        127.1774
897.82        125.3505
898.22        122.1114
898.62        118.6166
899.01        116.5663
899.41        116.3831
899.81        117.5135
900.21         119.284
900.61        120.5624
901.00         120.962
901.40        120.8741
901.80        120.4781
902.20         120.045
902.59        119.7105
902.99        119.2901
903.39         118.908
903.79        118.8299
904.18         119.098
904.58        119.7151
904.98        120.4286
905.38        120.8141
905.77        120.7506
906.17        120.3531
906.57        119.8716
906.96        119.7404
907.36        119.9966
907.76        120.5293
908.15        121.0149
908.55        120.8144
908.95         119.856
909.34        118.2906
909.74        116.7044
910.14        115.8342
910.53        115.9047
910.93        116.7828
911.33        117.9721
911.72        118.5718
912.12        118.3111
912.52        117.4721
912.91        116.6993
913.31        116.8905
913.70        118.2422
914.10        120.5398
914.49        123.1545
914.89        124.1406
915.29         122.861
915.68        119.9779
916.08        117.0544
916.47        115.5305
916.87        115.6509
917.26        116.9177
917.66        118.5147
918.05          119.17
918.45        118.5155
918.84         117.011
919.24        115.4316
919.64        114.8558
920.03        115.5677
920.42         117.207
920.82        119.0871
921.21        120.2336
921.61        120.1985
922.00        119.3753
922.40        118.2465
922.79          117.35
923.19        116.8232
923.58        116.7322
923.98        117.0202
924.37        116.7085
924.77        115.6313
925.16        117.0619
925.55        115.7162
925.95        116.5723
926.34         118.001
926.74        119.7171
927.13        121.2567
927.52         121.775
927.92        121.2516
928.31        119.9452
928.70        118.2038
929.10        116.5961
929.49        115.3295
929.89        114.3061
930.28        113.8622
930.67        114.5496
931.07        116.2357
931.46        118.7356
931.85        121.1842
932.24        122.2947
932.64        121.8095
933.03        120.0771
933.42        117.4585
933.82        114.9876
934.21        113.1467
934.60        111.7887
934.99         111.184
935.39        111.3882
935.78        112.3682
936.17        114.8325
936.56          118.42
936.96        117.3443
937.35        116.4908
937.74        112.5563
938.13        109.3862
938.53        108.7022
938.92        110.4492
939.31        114.1972
939.70        118.7298
940.09        120.9426
940.49        119.6107
940.88        115.9821
941.27        111.9466
941.66        109.7095
942.05        109.6282
942.44        110.9765
942.84        113.0775
943.23        114.9238
943.62         115.953
944.01        116.4388
944.40        116.6222
944.79        116.8623
945.18        117.2604
945.57         117.631
945.97         117.492
946.36        116.2434
946.75        114.0064
947.14        111.4816
947.53        109.4799
947.92        108.6069
948.31        108.8124
948.70        109.9088
949.09        111.5741
949.48        112.9885
949.87        113.6856
950.26        113.7637
950.65        113.4828
951.04        113.3249
951.43        113.4221
951.82        113.5986
952.21        113.5967
952.60        113.0688
952.99        111.9884
953.38        110.5446
953.77        109.1674
954.16        108.4251
954.55        108.4293
954.94         109.075
955.33         109.872
955.72        109.9889
956.11        109.2365
956.50        107.8147
956.89        106.4333
957.28        106.3879
957.66        108.0806
958.05        110.8647
958.44        113.8016
958.83        115.4975
959.22         115.594
959.61        114.4188
960.00        112.6445
960.39        111.3813
960.78        110.9635
961.16        111.1512
961.55        111.2987
961.94        110.3885
962.33        108.3007
962.72        105.5891
963.11        103.1277
963.49         101.987
963.88        102.3496
964.27        103.9611
964.66        106.2131
965.04        107.7699
965.43        107.9167
965.82        107.0565
966.21        105.9289
966.60        105.5623
966.98        106.1484
967.37        107.2844
967.76        108.3901
968.15        108.4083
968.53        107.1064
968.92        104.9914
969.31        102.7631
969.69          101.25
970.08         100.673
970.47        100.8085
970.86         101.399
971.24        102.0125
971.63        102.4281
972.02        102.7666
972.40         103.255
972.79        104.1714
973.17        105.7015
973.56        107.5056
973.95        109.1299
974.33        109.7303
974.72        109.0282
975.11        107.3238
975.49        105.4186
975.88        104.4692
976.26        104.6487
976.65         105.767
977.04         107.068
977.42         106.735
977.81        104.2086
978.19        100.2823
978.58        97.04424
978.96         96.6139
979.35         99.2389
979.74        104.4623
980.12        111.0011
980.51        114.5605
980.89        113.8629
981.28        110.2309
981.66          105.66
982.05        102.7109
982.43        101.8286
982.82        102.2192
983.20        103.5912
983.59        105.7493
983.97        108.6144
984.35        112.4124
984.74        116.4014
985.12         119.198
985.51         119.618
985.89        117.8351
986.28        114.2744
986.66         109.998
987.04        106.0851
987.43         102.866
987.81          100.62
988.20        99.55056
988.58        99.59961
988.96        100.8871
989.35        103.9312
989.73        109.2564
990.12        114.8484
990.50        119.3314
990.88        121.0778
991.27        119.9955
991.65         116.648
992.03        111.2052
992.42        105.1309
992.80        101.3895
993.18        101.0774
993.56         102.838
993.95        105.3522
994.33        107.3325
994.71        108.3833
995.10        109.1743
995.48         109.347
995.86        108.1648
996.24         105.551
996.63        101.2559
997.01        96.66118
997.39        95.51037
997.77        99.33084
998.15        107.0955
998.54        115.4503
998.92         120.021
999.30         119.523
999.68        115.0995
1000.06        108.1457
1000.45        102.3252
1000.83        99.39942
1001.21        98.29434
1001.59        98.67442
1001.97        100.1952
1002.35          102.63
1002.73        106.8155
1003.12        111.2875
1003.50        111.8902
1003.88        106.7798
1004.26        98.00702
1004.64        90.04101
1005.02        86.80465
1005.40        88.70497
1005.78        96.04246
1006.16        108.7926
1006.54        118.7325
1006.92        118.8989
1007.30        113.5658
1007.69        108.7198
1008.07         108.062
1008.45        112.4554
1008.83        123.8514
1009.21        150.4921
1009.59        205.2021
1009.97        278.6037
1010.35        280.2236
1010.73        175.6927
1011.11        119.0387
1011.49        102.8145
1011.86        100.1641
1012.24        100.8288
1012.62        101.0332
1013.00        100.5981
1013.38        100.0011
1013.76        101.8774
1014.14        113.4964
1014.52        140.4911
1014.90        184.3638
1015.28        235.1861
1015.66        267.1619
1016.04        262.2999
1016.41         220.658
1016.79        162.9938
1017.17        118.0932
1017.55        94.30196
1017.93        83.40787
1018.31        80.11382
1018.69        81.52795
1019.06        86.88102
1019.44         97.5042
1019.82        117.5367
1020.20        151.4263
1020.58        205.9911
1020.95        298.0314
1021.33        497.5649
1021.71       -2552.356
1022.09       -105.9595
1022.46        26.43704
1022.84        68.23296
1023.22        82.53004
1023.60        80.69358
1023.97       -24.41938
1024.35        171.0477
1024.73        159.6699
