SpectraSmart Spectrum 2.9.0.0
--------- Device Information -----------
Spectrum Name :  反射率_0
Saving Time :  2024/04/26 00:53:28
Spectro-Module Model Name : SE2030-DUVN
Spectro-Module Serial Number : OS361AC55029948
Wavelength Start : 200
Wavelength End : 1025
Wavelength Unit : Wavelength(nm)
Spectrum Unit : Reflectance(%)
-----------Spectrum Setting ------------
Integration Time : 20ms
Average : 10
Boxcar : 0
Background removal :  enabled
linearity correction :  enabled
SC :  disabled
Intensity correction :  disabled
DWT denoise :  enabled
savitzky-golay :  disabled
FFT :  disabled
Running average :  disabled
Kalman :  disabled
High pass :  disabled
---------------BEGIN--------------------
Wavelength(nm)             Reflectance(%)
200.29               0
200.75        82.29623
201.21        75.92291
201.67        68.19466
202.13        63.09601
202.58        61.24065
203.04        61.75884
203.50        63.80506
203.96        65.93894
204.42        67.37256
204.88        68.35219
205.34        69.21312
205.80        70.48174
206.26        72.67078
206.72        76.81647
207.18        83.46218
207.64        85.40746
208.10        74.74397
208.55        62.39611
209.01        56.16506
209.47        55.24897
209.93        57.44264
210.39        62.27251
210.85        67.53143
211.31        68.21478
211.77        62.94448
212.23        53.57357
212.69        44.44302
213.14        42.37104
213.60        48.31991
214.06         60.2501
214.52        73.60672
214.98        81.35888
215.44        81.68135
215.90        76.92115
216.36        69.94933
216.81        64.71845
217.27        62.60464
217.73        62.29499
218.19        62.11179
218.65        59.80158
219.11         54.3757
219.57        45.24137
220.02        33.63308
220.48        27.07967
220.94         29.6621
221.40         39.5432
221.86        48.91014
222.32        49.69698
222.77        42.98205
223.23        33.20621
223.69        25.30477
224.15        24.34696
224.61        29.65893
225.06        38.62988
225.52        47.43806
225.98        51.16916
226.44        49.00017
226.90        43.10406
227.36        36.23655
227.81        32.11103
228.27        31.86173
228.73         34.0087
229.19        37.28178
229.65        39.82423
230.10        41.04526
230.56        41.60299
231.02        41.88132
231.48        42.23819
231.93        42.75401
232.39        43.25153
232.85        43.60989
233.31        43.75375
233.77        43.64935
234.22        43.31966
234.68        42.90387
235.14        42.58562
235.60        42.44077
236.05        42.46747
236.51        42.46367
236.97        42.05273
237.43        41.15385
237.88        39.84587
238.34        38.42324
238.80        37.90749
239.26        38.80793
239.71        40.93523
240.17        43.63439
240.63         46.0733
241.08        47.93089
241.54        49.36223
242.00        50.24448
242.46        50.41262
242.91        49.78895
243.37        47.04316
243.83        41.06569
244.28        42.11398
244.74        82.02375
245.20        108.6613
245.66        109.0117
246.11        106.8334
246.57        104.2759
247.03         96.7644
247.48        62.59712
247.94        31.84467
248.40         56.3676
248.85        69.32055
249.31        75.57521
249.77        78.88907
250.22        81.22423
250.68        83.86358
251.14         86.2651
251.59        84.79373
252.05        77.86974
252.51        68.23118
252.96        59.79159
253.42        55.70904
253.88         55.0713
254.33        56.65719
254.79        60.08399
255.25        64.07301
255.70        67.65197
256.16        70.93167
256.62        72.58078
257.07        71.28505
257.53        67.81228
257.99        62.63226
258.44        57.56027
258.90         55.4768
259.35        55.55136
259.81        56.66976
260.27        56.81064
260.72        54.03091
261.18        49.12183
261.63        43.06353
262.09         37.7261
262.55        34.68475
263.00        33.78426
263.46        34.18328
263.91        34.68049
264.37        34.20309
264.83        32.64292
265.28        30.36578
265.74        28.16098
266.19        26.99704
266.65        27.06376
267.11         27.7991
267.56        28.55128
268.02        28.56025
268.47        27.72027
268.93        26.32011
269.38        24.66764
269.84        23.49229
270.30        23.00934
270.75        23.02229
271.21        23.22856
271.66        23.19142
272.12        22.77637
272.57        22.13136
273.03        21.48851
273.48        21.10789
273.94        21.06528
274.39        21.23163
274.85        21.39658
275.31        21.26482
275.76        20.78184
276.22        20.07196
276.67        19.35302
277.13        19.01341
277.58        19.06092
278.04        19.36932
278.49        19.65048
278.95        19.54131
279.40         18.9773
279.86        18.15679
280.31        17.27614
280.77        16.72126
281.22        16.53771
281.68        16.60153
282.13        16.77881
282.59        16.90251
283.04        16.91644
283.50        16.90228
283.95        16.83013
284.41        16.65838
284.86        16.39419
285.32        16.04909
285.77        15.74226
286.22        15.71296
286.68        15.96471
287.13        16.40413
287.59        16.81864
288.04        16.88896
288.50        16.58205
288.95        16.00348
289.41        15.36355
289.86        14.88683
290.32        14.68185
290.77        14.65796
291.22        14.77839
291.68        14.95244
292.13        15.15091
292.59        15.40372
293.04        15.70634
293.50        16.04415
293.95        16.40113
294.40         16.7454
294.86        17.06587
295.31        17.36703
295.77        17.65304
296.22        17.92973
296.68        18.18669
297.13        18.37753
297.58        18.51869
298.04        18.64298
298.49        18.81577
298.95        19.16798
299.40        19.70802
299.85         20.3849
300.31        21.09713
300.76        21.69888
301.21          22.129
301.67        22.44528
302.12        22.65637
302.58        22.81881
303.03        22.94693
303.48        23.03833
303.94        23.16476
304.39        23.40881
304.84        23.78214
305.30        24.24838
305.75        24.69804
306.20        24.96589
306.66        25.03537
307.11        24.95134
307.57        24.81293
308.02        24.70591
308.47        24.68774
308.93        24.72792
309.38        24.82667
309.83        25.01142
310.29        25.25883
310.74        25.54949
311.19        25.81415
311.65        25.94483
312.10        25.91916
312.55        25.76925
313.00        25.53425
313.46        25.29299
313.91        25.07275
314.36        24.87202
314.82        24.72751
315.27        24.68143
315.72        24.74026
316.18        24.89348
316.63        25.08238
317.08        25.18479
317.53        25.16536
317.99        25.03976
318.44        24.88453
318.89        24.82812
319.35        24.89192
319.80        25.04429
320.25        25.17616
320.70        25.11001
321.16        24.81399
321.61        24.34995
322.06        23.86024
322.51        23.55898
322.97        23.48601
323.42        23.58719
323.87        23.73198
324.32        23.69931
324.78         23.4314
325.23        23.00534
325.68        22.53831
326.13         22.2216
326.59        22.10698
327.04        22.15059
327.49        22.27243
327.94        22.34379
328.39        22.32154
328.85        22.23484
329.30        22.15222
329.75        22.15514
330.20        22.26358
330.66        22.42385
331.11        22.59201
331.56         22.6608
332.01        22.59993
332.46         22.4304
332.92        22.20598
333.37        22.04538
333.82        21.98634
334.27        22.02116
334.72        22.08217
335.17         22.0511
335.63        21.90075
336.08        21.66622
336.53        21.46773
336.98        21.49933
337.43        21.79072
337.88        22.28044
338.34        22.76459
338.79        22.95707
339.24        22.76687
339.69        22.27643
340.14        21.71226
340.59         21.4705
341.05        21.64248
341.50        22.10365
341.95        22.62966
342.40        22.89193
342.85        22.81647
343.30        22.51958
343.75        22.12612
344.20        21.85221
344.66        21.76788
345.11          21.763
345.56         21.8079
346.01        21.85878
346.46        21.88576
346.91        21.93358
347.36        21.90543
347.81        21.63681
348.26         21.1354
348.72         20.4852
349.17        19.87988
349.62        19.72001
350.07        20.08102
350.52        20.82014
350.97        21.68249
351.42        22.27774
351.87        22.49232
352.32         22.4285
352.77        22.19216
353.22         21.9603
353.67        21.79866
354.13        21.66006
354.58         21.5134
355.03        21.35164
355.48        21.17492
355.93        21.01502
356.38        20.88522
356.83        20.78693
357.28        20.71624
357.73        20.66131
358.18        20.60815
358.63        20.53818
359.08        20.44649
359.53        20.34271
359.98        20.22226
360.43         20.0799
360.88        19.92022
361.33        19.74149
361.78        19.58056
362.23        19.49793
362.68        19.49572
363.13        19.54724
363.58        19.58577
364.03        19.50712
364.48        19.29115
364.93        18.97716
365.38        18.62053
365.83        18.30961
366.28        18.08008
366.73        17.91385
367.18        17.80776
367.63        17.75496
368.08        17.74147
368.53        17.76133
368.98         17.7958
369.43        17.81151
369.88        17.79836
370.33        17.76789
370.78        17.70171
371.23        17.57705
371.68        17.39924
372.13        17.17003
372.58        16.96971
373.03        16.93269
373.48        17.07743
373.93        17.35923
374.38        17.64576
374.83         17.7319
375.28        17.57571
375.72        17.22957
376.17          16.836
376.62        16.58775
377.07          16.542
377.52        16.63542
377.97        16.78858
378.42        16.87372
378.87        16.85091
379.32        16.76627
379.77        16.65305
380.22        16.55412
380.67        16.48162
381.11        16.41463
381.56        16.34177
382.01        16.25815
382.46        16.16227
382.91        16.06299
383.36        15.96178
383.81        15.85637
384.26        15.75065
384.71        15.64893
385.15        15.55198
385.60        15.46989
386.05        15.39559
386.50        15.31841
386.95        15.24316
387.40        15.17982
387.85        15.13296
388.29         15.1061
388.74        15.07497
389.19        14.98604
389.64        14.83622
390.09        14.63312
390.54        14.44974
390.98         14.4086
391.43        14.53506
391.88        14.77439
392.33        15.00979
392.78        15.06869
393.23        14.93209
393.67        14.66181
394.12        14.38459
394.57        14.22538
395.02        14.21383
395.47        14.30143
395.91        14.44769
396.36        14.55996
396.81        14.60358
397.26        14.59249
397.71        14.53622
398.15        14.43295
398.60         14.3153
399.05         14.1932
399.50        14.05789
399.95        13.85652
400.39        13.65202
400.84        13.40868
401.29        13.21222
401.74        13.18938
402.18        13.37068
402.63        13.69539
403.08        14.04427
403.53        14.22452
403.97        14.18897
404.42        13.99221
404.87        13.72526
405.32        13.55122
405.76        13.51924
406.21        13.57945
406.66        13.68095
407.11        13.75697
407.55        13.79042
408.00        13.80207
408.45        13.79531
408.90        13.76343
409.34         13.7105
409.79        13.63642
410.24        13.56675
410.68        13.53971
411.13        13.56605
411.58        13.64212
412.03        13.74104
412.47        13.81481
412.92        13.83714
413.37        13.81495
413.81        13.78435
414.26        13.81814
414.71        13.91797
415.15        14.06488
415.60        14.17765
416.05        14.14597
416.49        13.95255
416.94        13.65082
417.39        13.33061
417.83         13.1449
418.28        13.14245
418.73        13.26186
419.17        13.44906
419.62        13.61368
420.07        13.72493
420.51         13.8117
420.96        13.84364
421.41        13.76716
421.85        13.58586
422.30        13.33914
422.74        13.10467
423.19        13.02669
423.64        13.11424
424.08          13.335
424.53        13.60131
424.98         13.7774
425.42        13.82065
425.87        13.76266
426.31        13.64286
426.76        13.56816
427.21        13.54492
427.65        13.45087
428.10        13.35919
428.54        13.46978
428.99        13.78803
429.44        14.22829
429.88        14.61477
430.33         14.7151
430.77        14.49557
431.22        14.03567
431.66        13.53857
432.11        13.36692
432.56         13.5577
433.00        13.93165
433.45        14.31848
433.89        14.60227
434.34         14.6717
434.78        14.43365
435.23        14.09449
435.67        14.08714
436.12        14.36678
436.57        14.43915
437.01        14.26685
437.46        14.15065
437.90        14.12751
438.35         14.1131
438.79        14.09809
439.24        14.10775
439.68        14.14619
440.13         14.1476
440.57         14.1323
441.02        14.32303
441.46         14.6061
441.91        14.47063
442.35        14.01244
442.80        13.79626
443.24        13.80733
443.69        13.83643
444.13        13.82462
444.58        13.67971
445.02        13.45487
445.47        13.44812
445.91        13.61943
446.36        13.65724
446.80        13.54018
447.24        13.44992
447.69        13.40862
448.13        13.35919
448.58         13.3138
449.02        13.28747
449.47         13.2762
449.91         13.2714
450.36        13.27355
450.80        13.27732
451.25        13.29723
451.69        13.34459
452.13        13.42048
452.58        13.50826
453.02         13.5867
453.47        13.61916
453.91        13.60306
454.36        13.55463
454.80        13.48936
455.24        13.43382
455.69         13.4066
456.13         13.3928
456.58        13.41564
457.02        13.48798
457.46        13.61233
457.91        13.77564
458.35        13.93551
458.79        14.01684
459.24         14.0138
459.68        13.93432
460.13         13.8413
460.57        13.79624
461.01        13.83137
461.46         13.9221
461.90        14.03189
462.34        14.09179
462.79        14.08298
463.23        14.01844
463.68        13.95325
464.12        13.97931
464.56        14.11306
465.01        14.32711
465.45        14.51014
465.89        14.55183
466.34        14.44866
466.78        14.16518
467.22         13.8408
467.67        13.83785
468.11        14.12448
468.55        14.26787
468.99        14.22598
469.44        14.21818
469.88        14.28802
470.32        14.48378
470.77         14.7277
471.21        14.78526
471.65        14.63031
472.10        14.42697
472.54        14.25663
472.98        14.20605
473.42        14.30512
473.87        14.52792
474.31        14.79157
474.75         14.9591
475.20        15.00023
475.64        14.94804
476.08        14.86242
476.52         14.8356
476.97         14.8924
477.41        15.00529
477.85         15.1269
478.29        15.21292
478.74         15.2508
479.18          15.182
479.62        15.05447
480.06        15.19449
480.50        15.29913
480.95         15.4013
481.39        15.37108
481.83        15.32835
482.27        15.27446
482.72        15.08625
483.16        14.85401
483.60         14.9251
484.04        15.31765
484.48        15.56562
484.93        15.81578
485.37         16.2644
485.81          16.804
486.25        16.81787
486.69        21.98705
487.14        17.54055
487.58        11.62039
488.02        14.18136
488.46        16.19189
488.90        16.21748
489.34         16.1797
489.79        16.07055
490.23        16.98963
490.67        17.55168
491.11         17.4991
491.55        17.36928
491.99        17.14552
492.43        16.93363
492.88         16.8149
493.32        16.81682
493.76        16.83348
494.20        17.01257
494.64        17.30175
495.08        17.65649
495.52        18.02885
495.96        18.36887
496.41        18.60604
496.85        18.72837
497.29        18.75197
497.73        18.52382
498.17        18.27741
498.61        18.46118
499.05        19.07094
499.49        19.20531
499.93        19.32137
500.37        19.45142
500.82        19.54101
501.26        19.78296
501.70         20.0754
502.14        20.24907
502.58        20.27847
503.02        20.31939
503.46        20.37658
503.90        20.34785
504.34        20.25899
504.78        20.20193
505.22        20.19461
505.66        20.22412
506.10        20.27154
506.54        20.30146
506.98        20.30846
507.42        20.30615
507.86         20.3343
508.30        20.45249
508.74        20.66297
509.18        20.93483
509.62        21.20539
510.06        21.37362
510.50        21.41599
510.94        21.37136
511.38         21.2813
511.82        21.21311
512.26        21.19226
512.70        21.19314
513.14         21.2321
513.58        21.33495
514.02        21.48516
514.46         21.6704
514.90        21.82266
515.34        21.79691
515.78        21.54729
516.22         21.2744
516.66        21.07982
517.10        20.68141
517.54        20.11288
517.98        20.95884
518.42        20.83533
518.86        21.22319
519.30        21.38777
519.74        21.56489
520.18         21.7116
520.62        21.72975
521.06        21.63898
521.50        21.44491
521.93        21.21369
522.37        21.06726
522.81        21.03796
523.25        21.09734
523.69         21.2055
524.13        21.29628
524.57        21.34482
525.01        21.36573
525.45        21.36651
525.89        21.35873
526.32        21.34371
526.76        21.31611
527.20        21.26209
527.64        21.17233
528.08        21.05352
528.52        20.89339
528.96        20.72013
529.40        20.63235
529.83        20.65114
530.27        20.54012
530.71        20.65812
531.15        20.60353
531.59        20.48652
532.03        20.31737
532.46         20.1695
532.90        20.16334
533.34        20.30923
533.78        20.55898
534.22        20.81387
534.66        20.93009
535.09        20.87208
535.53        20.69528
535.97        20.46475
536.41        20.28865
536.85        20.20545
537.28         20.1882
537.72         20.2145
538.16        20.24894
538.60        20.27845
539.04        20.30073
539.47        20.32955
539.91        20.43357
540.35        20.59225
540.79        20.71029
541.22        20.77312
541.66        20.84336
542.10        20.91877
542.54        20.95097
542.97        20.97314
543.41        21.07335
543.85         21.2584
544.29        21.51368
544.72        21.76872
545.16        21.92164
545.60         21.9529
546.04        21.88951
546.47        21.83235
546.91        21.95142
547.35        22.26581
547.79        22.72304
548.22         23.1824
548.66        23.40454
549.10        23.35712
549.53         23.1533
549.97        22.93661
550.41        22.86795
550.84        23.00093
551.28         23.2972
551.72        23.68316
552.15        24.02441
552.59        24.26619
553.03        24.44129
553.46        24.56683
553.90        24.68802
554.34        24.82326
554.77        24.93063
555.21        24.99435
555.65          25.069
556.08        25.16947
556.52        24.98356
556.96        25.12964
557.39        25.18401
557.83        25.33286
558.27        25.53309
558.70        25.75446
559.14        25.93241
559.57         26.0383
560.01        26.10383
560.45        26.12387
560.88        26.09624
561.32        26.04922
561.75        25.95877
562.19        25.88896
562.63        25.91209
563.06        26.03244
563.50        26.23024
563.93        26.44643
564.37        26.60028
564.80        26.66241
565.24        26.66822
565.68        26.65034
566.11        26.66247
566.55        26.74019
566.98        26.85852
567.42        27.01867
567.85        27.21502
568.29        27.45605
568.72        27.66126
569.16         27.8547
569.60        28.18499
570.03        28.53094
570.47        28.54925
570.90        28.35888
571.34        28.09748
571.77        28.41529
572.21        28.51055
572.64        28.63451
573.08         28.1904
573.51        27.34575
573.95        28.59919
574.38        30.52688
574.82        29.81626
575.25         29.6232
575.69        28.56659
576.12        28.06792
576.56        28.03833
576.99        28.78318
577.42         29.8977
577.86        29.81214
578.29        29.44339
578.73        31.03548
579.16        28.56446
579.60        26.12121
580.03        27.31438
580.47        29.17783
580.90        29.49105
581.33        28.97883
581.77        28.61298
582.20        30.95503
582.64        30.55255
583.07        26.14115
583.51        25.68711
583.94        25.27708
584.37        26.26419
584.81        27.26148
585.24        28.59459
585.68         29.4347
586.11        28.67298
586.54        26.71345
586.98        25.96429
587.41        26.19607
587.85        27.37832
588.28        28.15872
588.71        26.98274
589.15        25.98568
589.58        26.59536
590.01        26.87125
590.45        27.33502
590.88        27.37157
591.31        27.01649
591.75        26.92156
592.18        27.02981
592.61        27.63346
593.05        28.19716
593.48         29.1977
593.91        29.48581
594.35         27.2871
594.78        26.86867
595.21        26.82151
595.65        28.07522
596.08        29.18172
596.51        28.08027
596.94        27.62147
597.38        28.06347
597.81        29.24905
598.24        30.34252
598.68        29.85741
599.11        29.67808
599.54        30.93579
599.97        31.66989
600.41         30.2789
600.84        30.71201
601.27        31.51875
601.70        31.40663
602.14        31.67208
602.57        31.65004
603.00        32.38707
603.43        33.57747
603.87        34.63554
604.30        34.73749
604.73        34.09658
605.16        33.67513
605.60        34.70789
606.03        35.59148
606.46         36.3704
606.89        36.42609
607.32        35.87732
607.76        36.51872
608.19         37.6495
608.62        37.35799
609.05        36.97917
609.48         37.6081
609.92        37.86372
610.35        38.50772
610.78        39.64932
611.21        39.97849
611.64         38.8895
612.07        39.58242
612.50        40.02124
612.94        40.53031
613.37         40.5326
613.80        40.86023
614.23        41.43963
614.66        41.62941
615.09        41.98401
615.52        42.19334
615.96        42.36036
616.39        42.61031
616.82        42.21316
617.25        42.49403
617.68        43.13765
618.11        43.71902
618.54        44.05358
618.97        43.90641
619.40        43.52645
619.84        43.74092
620.27        44.50437
620.70        45.09689
621.13        45.37084
621.56        45.13533
621.99        44.63018
622.42        45.23742
622.85        46.58381
623.28        46.56741
623.71        46.20428
624.14        45.88606
624.57        45.68568
625.00        45.56993
625.43        45.51311
625.86        45.12771
626.29        45.26599
626.72        45.34793
627.15        45.11588
627.58        45.00371
628.01         44.8913
628.44        44.77633
628.87        44.68155
629.30        44.69781
629.73        44.73626
630.16        44.60213
630.59         44.2847
631.02        43.63958
631.45        43.21367
631.88        42.73387
632.31        42.37004
632.74        42.08165
633.17        41.83201
633.60        41.55041
634.03        41.21077
634.46        40.84421
634.89        40.45876
635.32        40.06499
635.75        39.67309
636.18        39.27863
636.61        38.89238
637.04         38.5322
637.47        38.19607
637.89        37.88089
638.32        37.57126
638.75        37.25068
639.18        36.91739
639.61        36.61171
640.04        36.33411
640.47        35.94075
640.90        35.65771
641.33        35.31216
641.76        34.99662
642.18        34.80177
642.61        34.74142
643.04        34.70518
643.47         34.6311
643.90        34.87387
644.33        34.69445
644.76        34.69455
645.18        34.66743
645.61         34.6447
646.04        34.62765
646.47         34.6052
646.90         34.6356
647.33        34.78475
647.75        35.07808
648.18        35.52855
648.61        36.00494
649.04         36.3038
649.47        36.39575
649.89        36.23444
650.32        36.08685
650.75        36.51937
651.18        37.47986
651.61        38.43253
652.03        39.11361
652.46        39.39561
652.89        39.55359
653.32        39.68541
653.74        39.91512
654.17        41.45236
654.60         41.7103
655.03        40.88603
655.46        41.72552
655.88        44.95969
656.31        48.02533
656.74        109.0393
657.16        71.03829
657.59        24.99408
658.02        19.30932
658.45        33.71647
658.87        43.70082
659.30        46.27656
659.73        45.79762
660.15        44.44806
660.58        46.74164
661.01        48.27036
661.44        46.91731
661.86        46.58909
662.29        46.81611
662.72        47.61782
663.14        48.80865
663.57        49.00558
664.00        48.36535
664.42         48.3727
664.85        49.09331
665.27        49.57178
665.70        49.67178
666.13        49.73161
666.55        49.74213
666.98        49.60085
667.41        49.42413
667.83         49.4423
668.26         49.7046
668.69        50.12384
669.11        50.53355
669.54        50.91042
669.96        50.73094
670.39         50.4545
670.82        50.12841
671.24        50.09187
671.67        50.42397
672.09        50.97125
672.52        51.49133
672.94        52.00451
673.37        51.60316
673.80        51.49454
674.22        51.49871
674.65        51.50004
675.07        51.50953
675.50        51.51768
675.92        51.56104
676.35        51.72084
676.77        51.99897
677.20        52.31867
677.62        52.62179
678.05        52.81591
678.47        52.87031
678.90        52.82288
679.32        52.75228
679.75         52.6904
680.17          52.874
680.60        53.09548
681.02        53.33263
681.45         53.4298
681.87        53.36748
682.30         53.1909
682.72        52.99928
683.15        52.98108
683.57        53.18943
684.00         53.4352
684.42        53.85807
684.85        54.12663
685.27        54.25723
685.70        54.29258
686.12        54.27266
686.54        54.29842
686.97         54.3875
687.39        54.52229
687.82        54.65599
688.24        54.75652
688.66        54.79792
689.09        54.80099
689.51        54.81435
689.94        54.89241
690.36        55.05304
690.78        55.27317
691.21        55.50168
691.63        55.66014
692.06        55.73112
692.48        55.74432
692.90        55.74767
693.33          55.805
693.75        55.93374
694.17        56.11662
694.60        56.31939
695.02        56.46268
695.44        56.49644
695.87         56.6076
696.29        56.80505
696.71        56.60468
697.14        56.20582
697.56        56.70714
697.98        57.83558
698.41        57.88451
698.83        57.20317
699.25        56.78407
699.68        56.83582
700.10        56.82896
700.52        56.79523
700.94        57.03709
701.37        57.46683
701.79         57.8516
702.21        58.10371
702.64        58.29103
703.06        58.39189
703.48          58.366
703.90        58.23287
704.33        58.00404
704.75        57.75051
705.17        57.66587
705.59        57.80006
706.01        58.01308
706.44        58.21442
706.86        58.75639
707.28        58.81406
707.70        59.01891
708.12        59.13852
708.55        59.17456
708.97        59.12465
709.39        59.02152
709.81        58.92482
710.23        58.90336
710.66        58.98012
711.08        59.17022
711.50        59.37817
711.92        59.45344
712.34         59.3672
712.76        59.15934
713.19        58.93948
713.61        58.90797
714.03        59.09777
714.45        59.44759
714.87        59.81918
715.29        59.99466
715.71        59.92459
716.13        59.67818
716.56        59.38215
716.98        59.26483
717.40        59.38018
717.82        59.66056
718.24         59.9929
718.66        60.19465
719.08        60.22506
719.50        60.10337
719.92        59.90193
720.34        59.87482
720.76        60.08863
721.19        59.89482
721.61        60.29448
722.03        60.38261
722.45        60.44459
722.87        60.48182
723.29        60.52652
723.71         60.6036
724.13        60.70796
724.55        60.83576
724.97        60.98455
725.39        61.07927
725.81        61.09604
726.23        61.19473
726.65         61.4108
727.07        61.03801
727.49        61.29536
727.91        61.21746
728.33        61.18363
728.75        61.19526
729.17        61.26514
729.59        61.36636
730.01        61.48009
730.43        61.60097
730.85        61.72211
731.27         61.8705
731.69        62.00748
732.10        62.05147
732.52        61.99198
732.94        61.88459
733.36        61.83325
733.78        61.89011
734.20        62.06732
734.62        62.60216
735.04        63.30273
735.46        63.26248
735.88        62.63836
736.30        62.89708
736.72        63.96272
737.13        64.38731
737.55        63.96365
737.97        63.86154
738.39        64.11942
738.81         63.5774
739.23        62.59444
739.65        63.23862
740.06        65.09512
740.48         65.2804
740.90        63.88617
741.32        63.30736
741.74        63.75186
742.16        64.00616
742.57        64.10096
742.99        64.71088
743.41        65.65633
743.83        66.25526
744.25        66.39103
744.67        66.24123
745.08        65.98194
745.50         65.8998
745.92        66.08542
746.34        66.43102
746.75          66.835
747.17        67.08888
747.59        67.14812
748.01        67.17738
748.42        67.25827
748.84        67.25452
749.26        67.31131
749.68        67.92045
750.09        68.88126
750.51        69.36107
750.93        69.28354
751.35        69.01598
751.76        68.71352
752.18        68.64019
752.60        68.78282
753.01         68.7774
753.43        68.67872
753.85        68.87478
754.27        69.37922
754.68        70.12282
755.10        70.89175
755.52        71.19141
755.93        71.06573
756.35        71.16084
756.77        71.54227
757.18        71.63702
757.60        71.44681
758.02        71.70058
758.43         72.1053
758.85        71.53382
759.26        69.55797
759.68          69.604
760.10        71.18299
760.51        71.75605
760.93        71.00388
761.34        70.24346
761.76          69.874
762.18         69.4743
762.59          69.313
763.01        69.88578
763.42        71.06777
763.84         71.8453
764.26        72.05754
764.67        72.07408
765.09        71.93481
765.50        71.67812
765.92        71.30622
766.33         70.3362
766.75        69.13119
767.16        68.81648
767.58        69.48698
768.00        70.58073
768.41        71.84981
768.83        73.00315
769.24        73.56052
769.66         73.0554
770.07        71.88424
770.49        70.53953
770.90        69.46207
771.32        70.29449
771.73        72.42609
772.15        72.06442
772.56        69.61125
772.97        69.14601
773.39        70.60906
773.80        71.11761
774.22        70.49062
774.63        70.47659
775.05        71.01819
775.46        71.28749
775.88        71.18843
776.29        70.95234
776.70        70.70189
777.12        70.66525
777.53         70.9008
777.95        71.27963
778.36        71.62302
778.77        71.62949
779.19        71.28023
779.60        70.68786
780.02         70.0861
780.43        69.92995
780.84        70.35702
781.26         70.7717
781.67        71.13009
782.09        72.32432
782.50         73.7799
782.91        73.01468
783.33        70.67437
783.74        69.89857
784.15        70.84994
784.57        71.49313
784.98        71.54272
785.39        71.57161
785.81        71.51235
786.22        71.08369
786.63        70.56632
787.04        70.50975
787.46        70.96384
787.87        71.74223
788.28        72.59024
788.70        73.03051
789.11        72.94199
789.52        72.61003
789.93        72.18419
790.35        71.61771
790.76        71.12262
791.17        71.18567
791.58         71.7074
792.00        72.10409
792.41        72.17861
792.82         71.9781
793.23        71.68684
793.65        71.35781
794.06        71.26376
794.47        72.29058
794.88        73.72023
795.29         73.7037
795.71        71.46788
796.12        69.76041
796.53        68.85542
796.94         68.6057
797.35        69.08001
797.76        70.19594
798.18        71.44161
798.59        72.22041
799.00         72.2272
799.41        71.43638
799.82        70.26539
800.23          69.564
800.64        69.52781
801.06        69.83382
801.47        70.36314
801.88        70.82161
802.29        71.08085
802.70        71.25071
803.11        71.35358
803.52        71.40054
803.93        71.42495
804.34        71.38488
804.75        71.31393
805.17        71.40427
805.58        71.72818
805.99        71.86304
806.40        71.77476
806.81        72.34989
807.22        73.11391
807.63        71.97264
808.04        69.54394
808.45        68.59744
808.86        69.35736
809.27         70.4252
809.68        71.33855
810.09        71.86763
810.50        71.78844
810.91        71.19311
811.32         70.3964
811.73        69.91056
812.14        69.87831
812.55        70.11496
812.96         70.5217
813.37        70.90621
813.78        71.16959
814.19        71.43344
814.60        71.54382
815.01        71.24166
815.42        70.52386
815.83        69.42257
816.24        68.35628
816.65         68.0701
817.05        68.76938
817.46        70.21786
817.87        71.82653
818.28        72.53304
818.69        72.05357
819.10        70.65513
819.51        69.00877
819.92        68.25917
820.33         68.7075
820.74        70.00375
821.14        71.53158
821.55        72.18999
821.96        71.73502
822.37        70.55706
822.78        69.18676
823.19        68.40018
823.60        68.41092
824.00        69.00156
824.41        69.84437
824.82        70.48597
825.23        70.70971
825.64        70.68193
826.04        70.49254
826.45        70.25484
826.86         70.0212
827.27        69.71164
827.68        69.38482
828.08        69.19446
828.49        69.12885
828.90        69.24149
829.31        69.41085
829.72        69.38812
830.12        69.14491
830.53        68.72669
830.94        68.38724
831.35        68.47711
831.75        69.09109
832.16        70.06969
832.57        71.15387
832.97        71.80768
833.38        71.80343
833.79        71.29971
834.20         70.6312
834.60        70.30495
835.01        70.46976
835.42        70.96625
835.82        71.53085
836.23        71.64315
836.64        71.21091
837.04        70.42785
837.45        69.59216
837.86        69.16914
838.26        69.28272
838.67        69.75174
839.08        70.36888
839.48        70.76205
839.89         70.7765
840.29        70.55324
840.70        70.19247
841.11        69.82352
841.51        69.51566
841.92        69.20282
842.33        68.95282
842.73        68.90014
843.14        69.02107
843.54        69.31091
843.95        69.60982
844.35        69.69999
844.76        69.51522
845.17         69.1491
845.57        68.69736
845.98        68.31421
846.38        68.05849
846.79        67.85952
847.19        67.78409
847.60        67.87118
848.00        68.13671
848.41        68.52969
848.81        68.93023
849.22        69.08008
849.62         68.9761
850.03        68.68119
850.43        68.35408
850.84        68.23244
851.24        68.43314
851.65        68.73119
852.05         69.1785
852.46        69.68603
852.86        70.19823
853.27        70.77071
853.67        71.00249
854.07        70.38583
854.48        68.97043
854.88        66.93659
855.29        64.99647
855.69        64.18248
856.10         64.6897
856.50        66.40244
856.90        68.68684
857.31        70.05667
857.71        70.04848
858.12        69.01727
858.52        67.65515
858.92        66.87096
859.33        66.86969
859.73        67.39589
860.13         68.2534
860.54        69.02802
860.94        69.57921
861.34        70.00525
861.75        70.30252
862.15        70.55276
862.55         70.7461
862.96        70.82379
863.36        70.82323
863.76        70.80476
864.17        70.79345
864.57         70.8503
864.97        70.97713
865.38        71.15183
865.78        71.41356
866.18        71.68504
866.58        71.98838
866.99        72.35564
867.39        72.82032
867.79          73.391
868.19        73.82942
868.60         73.6987
869.00         72.9277
869.40        71.66667
869.80        70.54004
870.21         70.5093
870.61        71.85299
871.01        74.27526
871.41        77.00357
871.81         78.7044
872.22         79.0038
872.62        78.25722
873.02        77.11314
873.42        76.84518
873.82        77.50307
874.22        78.21942
874.63        78.77908
875.03        78.86147
875.43        78.26694
875.83        78.41071
876.23        76.70629
876.63        75.75072
877.03         75.2088
877.44        75.22327
877.84        107.2092
878.24        81.78366
878.64        82.75246
879.04        84.44483
879.44        78.98118
879.84        76.29712
880.24        82.39578
880.64        84.87544
881.04        85.07498
881.44         85.0223
881.84        84.46522
882.24        83.38324
882.65        82.44019
883.05         82.0733
883.45        82.37273
883.85        83.53602
884.25        85.10342
884.65        85.92685
885.05        85.69463
885.45        84.79488
885.85        83.77576
886.25        83.39382
886.65        83.80554
887.05         84.7373
887.45        85.87083
887.85        86.64533
888.25        86.84463
888.65        86.67021
889.04        86.25013
889.44        85.82493
889.84        85.47456
890.24        85.09068
890.64        84.76569
891.04        84.65792
891.44        84.77127
891.84        85.11614
892.24        85.45179
892.64        85.31865
893.04        84.69028
893.44        83.79393
893.83        83.01277
894.23        82.90411
894.63        83.54327
895.03        84.67497
895.43        86.11991
895.83        87.51557
896.23        88.62905
896.63        89.56546
897.02        89.98088
897.42        89.36244
897.82         87.7661
898.22        85.42227
898.62        83.19386
899.01        82.34393
899.41        83.09804
899.81        85.03393
900.21        87.35474
900.61        88.74496
901.00        88.82246
901.40        87.97021
901.80        86.71883
902.20        85.90202
902.59        85.77302
902.99        86.08675
903.39        86.52135
903.79        86.54878
904.18        86.05006
904.58        85.29876
904.98        84.68352
905.38        84.76773
905.77        85.60555
906.17        86.90247
906.57          88.251
906.96        89.12559
907.36        89.31471
907.76        88.99699
908.15        88.30968
908.55        87.37422
908.95        86.36359
909.34        85.25726
909.74        84.25238
910.14        83.46192
910.53         82.9564
910.93        82.79348
911.33        83.02737
911.72        83.72126
912.12        84.69396
912.52        85.74617
912.91        86.71548
913.31        87.44512
913.70        87.96371
914.10        88.31892
914.49        88.27992
914.89        87.39227
915.29         85.7327
915.68        83.57684
916.08        81.83455
916.47        81.29568
916.87        81.96519
917.26        83.59741
917.66        85.39619
918.05        86.05309
918.45         85.2384
918.84        83.41517
919.24        81.40744
919.64        80.42287
920.03         80.7938
920.42        82.13728
920.82        83.96026
921.21        85.52061
921.61        86.32325
922.00        86.60137
922.40        86.39496
922.79        85.80489
923.19        85.02277
923.58        83.85216
923.98          82.312
924.37        81.29077
924.77        81.32329
925.16        78.45399
925.55        80.04176
925.95         80.8433
926.34        82.96049
926.74        85.78276
927.13        88.48364
927.52        89.40784
927.92        88.32846
928.31        85.83231
928.70        82.73688
929.10        80.44876
929.49        79.37222
929.89        79.12519
930.28        79.70428
930.67        81.08896
931.07        82.96236
931.46        85.39379
931.85        87.50178
932.24        87.95393
932.64        86.55303
933.03        83.46941
933.42        79.61189
933.82        77.05873
934.21        76.45735
934.60         77.2841
934.99        78.52947
935.39        79.20708
935.78        79.15352
936.17        78.02039
936.56        75.61469
936.96        77.09343
937.35        75.55981
937.74        76.46281
938.13        77.31401
938.53         78.2425
938.92        79.30119
939.31        80.65379
939.70        82.06902
940.09        82.62584
940.49        82.05331
940.88        80.70882
941.27        79.26017
941.66        78.51696
942.05        78.59407
942.44        79.23965
942.84        80.19631
943.23        81.08432
943.62        81.64879
944.01        81.97992
944.40        82.06767
944.79        81.89629
945.18        81.46166
945.57        80.69389
945.97        79.62715
946.36        78.47302
946.75        77.54734
947.14        76.95567
947.53         76.6748
947.92        76.57627
948.31        76.59492
948.70        76.75542
949.09        77.04881
949.48        77.42702
949.87        77.80868
950.26        78.10641
950.65        78.30264
951.04        78.41608
951.43        78.46152
951.82        78.47201
952.21        78.31858
952.60        77.83045
952.99        77.01103
953.38        75.88016
953.77        74.85356
954.16        74.52735
954.55        74.96793
954.94        76.07607
955.33        77.13371
955.72        76.91405
956.11         75.1778
956.50        72.25423
956.89        69.27026
957.28        68.32278
957.66        70.06685
958.05        73.61308
958.44        77.65214
958.83        80.22463
959.22        80.78312
959.61        79.83743
960.00        78.01367
960.39        76.34705
960.78        75.22845
961.16        74.39367
961.55        73.59718
961.94        72.48438
962.33        71.06917
962.72         69.6785
963.11        68.67884
963.49        68.45623
963.88         69.0294
964.27         70.2721
964.66        71.83804
965.04        72.95802
965.43        73.20834
965.82        72.84621
966.21        72.23026
966.60        71.88047
966.98        71.94499
967.37        72.18834
967.76        72.60157
968.15        73.12965
968.53        73.67057
968.92        74.20743
969.31        74.55342
969.69        74.39216
970.08        73.72195
970.47        72.65092
970.86        71.43172
971.24        70.54922
971.63        70.19715
972.02        70.26904
972.40        70.68833
972.79        71.25916
973.17        71.93855
973.56        72.67495
973.95        73.31786
974.33        73.54857
974.72        73.18676
975.11        72.25945
975.49        71.16649
975.88        70.53199
976.26        70.42042
976.65        70.77335
977.04        71.01189
977.42        69.87402
977.81        67.18105
978.19        63.55041
978.58         60.6809
978.96        60.22618
979.35        62.39113
979.74        66.94361
980.12        72.80238
980.51        76.34422
980.89        76.40565
981.28        73.90162
981.66        70.74323
982.05        69.40202
982.43        70.20748
982.82        72.20241
983.20        74.65563
983.59        76.57774
983.97        77.72544
984.35        78.48565
984.74        78.61145
985.12        77.91679
985.51        76.25984
985.89         73.5367
986.28        70.53579
986.66         68.3849
987.04        67.57594
987.43        67.93198
987.81        68.50539
988.20        67.97615
988.58        65.87385
988.96        61.74003
989.35        56.13043
989.73         53.1103
990.12        55.83685
990.50        62.82143
990.88        69.24438
991.27        71.21263
991.65        69.24233
992.03        64.48875
992.42        59.40432
992.80        58.20798
993.18        61.82222
993.56        67.71308
993.95        73.53311
994.33         77.2774
994.71        78.56168
995.10        78.49374
995.48        77.32915
995.86        75.18779
996.24        72.22002
996.63        67.97158
997.01        63.39988
997.39        61.63126
997.77        63.93304
998.15         69.7171
998.54         75.7356
998.92        77.46054
999.30        73.60583
999.68        65.27621
1000.06        54.76369
1000.45         47.7165
1000.83        46.31824
1001.21        48.59048
1001.59        52.60055
1001.97        56.36049
1002.35        59.39758
1002.73         62.8195
1003.12        65.55279
1003.50        64.32435
1003.88         58.4049
1004.26         49.7663
1004.64        42.13139
1005.02        38.47052
1005.40        38.90457
1005.78        43.43002
1006.16        52.96724
1006.54        63.55124
1006.92        68.70912
1007.30        68.94703
1007.69        67.27394
1008.07        66.27918
1008.45        66.14233
1008.83         66.2918
1009.21        64.65722
1009.59        49.29931
1009.97       -13.03753
1010.35       -123.9718
1010.73        -125.566
1011.11       -61.05393
1011.49       -8.610024
1011.86        29.56829
1012.24          50.925
1012.62        58.33926
1013.00        56.56528
1013.38         47.4781
1013.76        33.77031
1014.14          27.479
1014.52        39.85721
1014.90        74.76782
1015.28        122.5169
1015.66        149.3375
1016.04        134.7945
1016.41        86.01737
1016.79        33.35015
1017.17        9.413288
1017.55        10.78648
1017.93        20.91701
1018.31        31.36132
1018.69        37.95247
1019.06        41.06089
1019.44         41.8996
1019.82        42.15463
1020.20        46.18441
1020.58        59.80041
1020.95        92.06873
1021.33        152.7699
1021.71       -329.0421
1022.09        91.84417
1022.46        125.8825
1022.84        143.2069
1023.22        159.3096
1023.60        190.5775
1023.97        478.7748
1024.35       -4.319659
1024.73        53.93573
