SpectraSmart Spectrum 2.9.0.0
--------- Device Information -----------
Spectrum Name :  反射率_0
Saving Time :  2024/04/26 00:55:50
Spectro-Module Model Name : SE2030-DUVN
Spectro-Module Serial Number : OS361AC55029948
Wavelength Start : 200
Wavelength End : 1025
Wavelength Unit : Wavelength(nm)
Spectrum Unit : Reflectance(%)
-----------Spectrum Setting ------------
Integration Time : 20ms
Average : 10
Boxcar : 0
Background removal :  enabled
linearity correction :  enabled
SC :  disabled
Intensity correction :  disabled
DWT denoise :  enabled
savitzky-golay :  disabled
FFT :  disabled
Running average :  disabled
Kalman :  disabled
High pass :  disabled
---------------BEGIN--------------------
Wavelength(nm)             Reflectance(%)
200.29               0
200.75        98.07815
201.21        89.97472
201.67        80.13197
202.13        74.02784
202.58         72.4468
203.04        74.28278
203.50        77.70543
203.96        79.54861
204.42        79.04691
204.88        77.45167
205.34        76.24691
205.80        77.10257
206.26        81.04967
206.72         90.3084
207.18         108.848
207.64        126.9008
208.10        119.4296
208.55        98.95435
209.01        85.50233
209.47        81.16605
209.93        82.25683
210.39        86.88169
210.85        92.05284
211.31        91.58509
211.77        83.92713
212.23        71.71143
212.69        60.26068
213.14        57.63472
213.60        65.05698
214.06          80.057
214.52        97.11451
214.98        107.7029
215.44        109.5487
215.90         105.435
216.36        98.69558
216.81        93.90804
217.27        92.68882
217.73        93.44975
218.19        94.52455
218.65        93.85952
219.11        90.67835
219.57        84.69666
220.02        77.33573
220.48         74.7955
220.94        79.74544
221.40        89.91739
221.86        97.91235
222.32         96.5518
222.77        87.46704
223.23        75.70537
223.69        66.22269
224.15        64.14626
224.61        68.86155
225.06        77.70243
225.52        87.27232
225.98        93.11988
226.44        94.29439
226.90        92.54091
227.36        89.86133
227.81        88.95338
228.27        90.71581
228.73        93.80473
229.19        97.14939
229.65        99.27232
230.10        99.77832
230.56        99.62307
231.02        99.19912
231.48        98.92922
231.93        98.89478
232.39        99.01364
232.85        99.32379
233.31        100.0661
233.77        101.2014
234.22        102.6845
234.68        104.0681
235.14        104.5291
235.60        103.8235
236.05        102.2207
236.51        100.1396
236.97        98.07697
237.43        96.07854
237.88        93.98882
238.34        91.65197
238.80        89.69243
239.26        88.52178
239.71        88.52373
240.17        88.87426
240.63        88.53024
241.08        87.30403
241.54         85.4718
242.00        83.74417
242.46         82.9498
242.91         83.7572
243.37        86.78274
243.83        97.52437
244.28        135.7641
244.74        182.5332
245.20        160.2764
245.66        138.8828
246.11        134.8348
246.57        142.7761
247.03        171.4331
247.48        252.0922
247.94        200.2332
248.40        111.6886
248.85        85.63575
249.31        78.40033
249.77        78.44852
250.22         82.8054
250.68        91.82938
251.14        105.5999
251.59        116.0998
252.05        114.5719
252.51        104.2099
252.96        91.96373
253.42        85.01011
253.88        83.25404
254.33          84.242
254.79        87.84303
255.25        93.25013
255.70        99.05615
256.16        105.1065
256.62         109.628
257.07        110.7931
257.53         109.499
257.99        106.2645
258.44        102.3536
258.90        100.3899
259.35        99.54896
259.81        99.32628
260.27        98.37203
260.72        95.37406
261.18        91.15617
261.63        86.11008
262.09        81.55039
262.55        78.11813
263.00        75.73411
263.46        74.25302
263.91        72.99712
264.37        71.74727
264.83        70.22202
265.28        68.40353
265.74        66.58718
266.19        64.86091
266.65        63.53272
267.11        62.50176
267.56        61.53797
268.02        60.42428
268.47         59.0116
268.93        57.40852
269.38        55.82511
269.84         54.8448
270.30        54.59371
270.75        54.89088
271.21        55.33744
271.66        55.32207
272.12        54.70462
272.57        53.65459
273.03        52.50659
273.48        51.66055
273.94        51.26192
274.39        51.10093
274.85        51.02092
275.31        50.74546
275.76        50.18644
276.22        49.49899
276.67         48.7283
277.13        48.07794
277.58         47.5218
278.04        47.06254
278.49        46.58568
278.95        46.06601
279.40        45.42697
279.86        44.76135
280.31        44.05314
280.77        43.43719
281.22        42.87897
281.68        42.40974
282.13         41.9505
282.59        41.47453
283.04        40.94679
283.50        40.42923
283.95        39.93183
284.41        39.52687
284.86         39.1978
285.32        38.93101
285.77        38.69367
286.22        38.52155
286.68        38.38823
287.13        38.25278
287.59        38.03555
288.04        37.57975
288.50        36.91833
288.95        36.08614
289.41        35.25186
289.86         34.5377
290.32        34.04062
290.77        33.68304
291.22        33.46384
291.68         33.3335
292.13        33.26075
292.59        33.26674
293.04        33.30326
293.50        33.30672
293.95        33.25518
294.40        33.14388
294.86         33.0312
295.31        33.01346
295.77        33.11441
296.22        33.30962
296.68        33.51697
297.13        33.57429
297.58        33.46865
298.04        33.26885
298.49        33.10229
298.95        33.20533
299.40        33.60171
299.85        34.20219
300.31        34.84627
300.76        35.29525
301.21         35.4697
301.67         35.4717
302.12        35.34505
302.58        35.21788
303.03        35.10919
303.48        34.99982
303.94        34.94433
304.39        34.98984
304.84        35.14439
305.30        35.38777
305.75        35.61512
306.20        35.67646
306.66        35.56567
307.11        35.31682
307.57        35.03602
308.02        34.80113
308.47        34.67027
308.93        34.61219
309.38        34.61785
309.83        34.70908
310.29        34.86172
310.74        35.05272
311.19        35.21587
311.65        35.24591
312.10        35.11905
312.55        34.86967
313.00        34.53727
313.46        34.20337
313.91        33.89898
314.36        33.62497
314.82         33.4238
315.27         33.3383
315.72        33.37514
316.18        33.51738
316.63        33.70218
317.08        33.79922
317.53        33.76883
317.99        33.62856
318.44        33.44748
318.89        33.34488
319.35        33.33955
319.80          33.403
320.25        33.44411
320.70        33.31762
321.16        33.00024
321.61        32.54738
322.06        32.07248
322.51        31.74389
322.97        31.58995
323.42        31.57153
323.87        31.59137
324.32        31.48746
324.78        31.21692
325.23        30.84251
325.68        30.44333
326.13         30.1507
326.59         29.9995
327.04        29.96982
327.49        30.01201
327.94        30.04986
328.39         30.0573
328.85        30.04498
329.30        30.06932
329.75        30.17659
330.20        30.37371
330.66        30.61642
331.11        30.86793
331.56          31.029
332.01        31.07397
332.46        31.01503
332.92        30.90017
333.37        30.86216
333.82        30.92493
334.27        31.07082
334.72        31.21411
335.17        31.20809
335.63        31.02067
336.08        30.70769
336.53        30.39688
336.98        30.29749
337.43        30.45282
337.88        30.80042
338.34        31.17415
338.79          31.352
339.24         31.2519
339.69        30.94686
340.14         30.5883
340.59        30.43952
341.05        30.56092
341.50        30.86003
341.95        31.21021
342.40        31.43173
342.85         31.4803
343.30        31.42968
343.75        31.30803
344.20        31.16477
344.66         31.0289
345.11        30.84531
345.56        30.68736
346.01        30.66667
346.46         30.7851
346.91        31.03041
347.36        31.22386
347.81        31.07539
348.26        30.56155
348.72        29.81272
349.17        29.07319
349.62        28.82277
350.07        29.16176
350.52        29.91312
350.97        30.81239
351.42        31.45643
351.87        31.72288
352.32        31.72954
352.77        31.54883
353.22        31.30095
353.67        31.04813
354.13        30.75611
354.58        30.46842
355.03        30.30127
355.48         30.2739
355.93        30.37925
356.38        30.52644
356.83        30.55104
357.28        30.41235
357.73        30.14872
358.18        29.84688
358.63        29.64913
359.08        29.58817
359.53        29.61967
359.98        29.65619
360.43        29.56429
360.88        29.31787
361.33        28.96292
361.78        28.59562
362.23        28.36937
362.68        28.31355
363.13        28.36688
363.58        28.43184
364.03        28.35793
364.48        28.11016
364.93        27.74931
365.38        27.33296
365.83        26.95056
366.28         26.6415
366.73        26.37899
367.18        26.18467
367.63        26.09501
368.08        26.10233
368.53        26.19371
368.98        26.29881
369.43        26.30163
369.88        26.17916
370.33         25.9656
370.78        25.71416
371.23        25.52331
371.68        25.42435
372.13        25.37901
372.58        25.38602
373.03        25.44013
373.48        25.52432
373.93        25.64684
374.38        25.73667
374.83         25.6816
375.28        25.46874
375.72         25.1154
376.17        24.75977
376.62        24.59084
377.07        24.65041
377.52        24.87699
377.97        25.13939
378.42        25.22542
378.87        25.08481
379.32        24.79076
379.77        24.44781
380.22        24.20514
380.67        24.09647
381.11        24.07283
381.56        24.07078
382.01        23.99657
382.46        23.82909
382.91        23.61271
383.36         23.3936
383.81        23.23918
384.26        23.16885
384.71        23.15273
385.15        23.16267
385.60        23.17971
386.05        23.17923
386.50        23.16154
386.95         23.1143
387.40        23.01891
387.85        22.88554
388.29        22.72761
388.74        22.57633
389.19        22.42379
389.64        22.27195
390.09        22.11182
390.54        21.99133
390.98        21.98646
391.43        22.11034
391.88        22.32664
392.33        22.52796
392.78         22.5557
393.23        22.39779
393.67        22.10308
394.12        21.82053
394.57        21.68832
395.02        21.73566
395.47        21.90891
395.91        22.14334
396.36        22.28973
396.81        22.30462
397.26        22.22091
397.71        22.07991
398.15        21.92266
398.60            21.8
399.05        21.70195
399.50        21.61032
399.95        21.43928
400.39        21.27972
400.84        21.08055
401.29        20.91833
401.74        20.88535
402.18         21.0088
402.63        21.23029
403.08        21.48057
403.53        21.64462
403.97        21.68862
404.42        21.64462
404.87        21.53633
405.32        21.41019
405.76        21.28908
406.21        21.16932
406.66        21.07487
407.11         21.0475
407.55        21.09484
408.00        21.20221
408.45        21.32303
408.90        21.35356
409.34        21.26567
409.79        21.09506
410.24        20.91195
410.68        20.81393
411.13        20.82665
411.58        20.92149
412.03        21.05352
412.47        21.14684
412.92        21.16186
413.37        21.12678
413.81         21.0771
414.26        21.08585
414.71        21.15582
415.15         21.2583
415.60        21.33999
416.05        21.33807
416.49        21.23807
416.94        21.07821
417.39        20.88145
417.83        20.68641
418.28        20.52519
418.73        20.38339
419.17        20.29888
419.62        20.32103
420.07        20.44621
420.51        20.65877
420.96        20.86986
421.41        20.92584
421.85        20.78956
422.30        20.53551
422.74        20.25393
423.19        20.11867
423.64        20.14682
424.08        20.29951
424.53        20.49285
424.98        20.61792
425.42        20.64407
425.87        20.59121
426.31        20.49917
426.76         20.4855
427.21        20.54107
427.65        20.49639
428.10        20.41694
428.54        20.54113
428.99        20.87477
429.44         21.3066
429.88        21.65523
430.33        21.70924
430.77        21.43721
431.22        20.91011
431.66        20.34454
432.11        20.18251
432.56        20.45786
433.00        20.85488
433.45         21.1737
433.89        21.55009
434.34        21.77915
434.78        21.26112
435.23        20.39466
435.67        20.27605
436.12        20.84466
436.57        21.14043
437.01        21.04382
437.46        21.00024
437.90        21.03668
438.35        21.02534
438.79        20.96571
439.24        20.91784
439.68         20.9014
440.13         20.8164
440.57        20.72695
441.02        21.00046
441.46        21.47526
441.91        21.42953
442.35        20.93637
442.80         20.6455
443.24        20.57509
443.69        20.64074
444.13        20.75405
444.58        20.57786
445.02        20.19147
445.47        20.15882
445.91        20.42053
446.36        20.45598
446.80        20.23652
447.24        20.05437
447.69        19.95193
448.13        19.86202
448.58        19.80398
449.02        19.79225
449.47        19.81012
449.91        19.82903
450.36          19.843
450.80        19.84946
451.25        19.86819
451.69        19.91775
452.13        20.00053
452.58        20.09379
453.02         20.1734
453.47        20.20532
453.91        20.18558
454.36        20.13413
454.80        20.05911
455.24        19.97116
455.69         19.8927
456.13        19.81443
456.58        19.78716
457.02        19.85407
457.46         20.0239
457.91        20.27047
458.35        20.52152
458.79        20.65996
459.24        20.66963
459.68         20.5666
460.13        20.43421
460.57        20.35703
461.01        20.37825
461.46        20.46824
461.90        20.57878
462.34        20.62999
462.79        20.59661
463.23         20.4955
463.68        20.39724
464.12        20.42497
464.56        20.59906
465.01        20.89126
465.45        21.14292
465.89        21.20339
466.34         21.0667
466.78        20.66859
467.22        20.21851
467.67        20.25421
468.11        20.73082
468.55        21.01929
468.99        21.01592
469.44        20.98161
469.88         20.9751
470.32        21.08179
470.77        21.26896
471.21        21.32807
471.65         21.2436
472.10        21.20201
472.54        21.21489
472.98         21.2273
473.42         21.2459
473.87        21.30173
474.31        21.36921
474.75        21.40262
475.20        21.40056
475.64        21.36204
476.08        21.32936
476.52        21.36756
476.97        21.48758
477.41        21.67121
477.85        21.85298
478.29        21.96884
478.74        22.00431
479.18        21.87226
479.62        21.64761
480.06         21.8124
480.50        21.93591
480.95        22.06369
481.39        22.01658
481.83        21.97436
482.27        21.93452
482.72        21.71272
483.16        21.41571
483.60        21.49546
484.04        21.95899
484.48        22.17874
484.93        22.37744
485.37        22.83422
485.81        23.49187
486.25        23.60101
486.69        30.76958
487.14        25.04469
487.58        16.14839
488.02        19.57607
488.46        22.36654
488.90        22.46434
489.34        22.61757
489.79        22.44292
490.23        23.54552
490.67        24.16463
491.11        24.02521
491.55        23.91834
491.99        23.78068
492.43        23.56684
492.88        23.36341
493.32        23.34858
493.76        23.37598
494.20        23.57823
494.64        23.88406
495.08        24.26264
495.52        24.65663
495.96        25.00449
496.41        25.21776
496.85        25.27924
497.29        25.22728
497.73        24.87976
498.17        24.54945
498.61        24.82661
499.05        25.67844
499.49        25.84359
499.93        25.92279
500.37        25.97284
500.82        25.94644
501.26        26.13406
501.70        26.41444
502.14        26.56302
502.58        26.53989
503.02        26.53532
503.46        26.55447
503.90        26.46979
504.34        26.33624
504.78        26.30521
505.22        26.39882
505.66        26.58087
506.10        26.78333
506.54        26.88989
506.98        26.87306
507.42        26.77098
507.86        26.66779
508.30        26.69311
508.74        26.87085
509.18        27.15238
509.62        27.45485
510.06         27.6431
510.50        27.68316
510.94        27.62753
511.38        27.53009
511.82        27.47433
512.26         27.4891
512.70        27.54004
513.14        27.63098
513.58        27.76979
514.02        27.93571
514.46        28.12262
514.90        28.27298
515.34        28.26162
515.78        28.04845
516.22        27.81248
516.66        27.64654
517.10        27.29225
517.54        26.77997
517.98        27.56484
518.42        27.45561
518.86        27.79808
519.30        27.92041
519.74          28.045
520.18        28.14957
520.62        28.17083
521.06        28.13197
521.50        28.02831
521.93        27.90309
522.37        27.83928
522.81        27.85449
523.25        27.92565
523.69        28.02259
524.13        28.09584
524.57        28.12773
525.01        28.13212
525.45        28.10864
525.89        28.05732
526.32        27.98078
526.76        27.87997
527.20         27.7686
527.64        27.67909
528.08        27.62377
528.52        27.57043
528.96        27.50115
529.40        27.46148
529.83        27.46312
530.27        27.21897
530.71        27.26588
531.15         27.1679
531.59        27.09136
532.03        27.01834
532.46         26.9929
532.90        27.08232
533.34        27.27652
533.78        27.54299
534.22        27.79101
534.66        27.88887
535.09        27.80685
535.53        27.59863
535.97        27.33162
536.41        27.12252
536.85        27.01254
537.28        26.97459
537.72        26.98862
538.16        27.02126
538.60        27.05957
539.04        27.09838
539.47        27.13961
539.91        27.25279
540.35        27.40777
540.79        27.48272
541.22        27.49128
541.66        27.56904
542.10         27.7181
542.54        27.85637
542.97        27.97547
543.41        28.10945
543.85        28.25227
544.29        28.41078
544.72        28.54764
545.16        28.61634
545.60        28.61188
546.04         28.5435
546.47        28.50031
546.91        28.63456
547.35        28.95592
547.79        29.42259
548.22        29.88312
548.66        30.07718
549.10        29.97471
549.53        29.70308
549.97        29.42771
550.41        29.33249
550.84        29.47671
551.28        29.81569
551.72        30.25824
552.15        30.63443
552.59        30.88157
553.03        31.04711
553.46         31.1518
553.90        31.25483
554.34        31.37967
554.77        31.47059
555.21        31.52674
555.65        31.64921
556.08        31.85549
556.52        31.73372
556.96        32.02081
557.39        32.10414
557.83        32.21214
558.27        32.32137
558.70        32.44055
559.14        32.56633
559.57        32.67836
560.01        32.78656
560.45        32.87282
560.88        32.88441
561.32         32.8397
561.75        32.81036
562.19        32.82088
562.63        32.70458
563.06        32.54348
563.50        32.69872
563.93        33.10143
564.37        33.34827
564.80        33.39478
565.24        33.47266
565.68        33.57909
566.11        33.62162
566.55        33.63076
566.98        33.62355
567.42        33.64803
567.85        33.77413
568.29        34.03036
568.72        34.29129
569.16        34.57771
569.60        34.98799
570.03        35.35143
570.47        35.39487
570.90        35.28817
571.34        34.61673
571.77        35.23034
572.21        35.22616
572.64        35.25004
573.08        34.77321
573.51        33.85057
573.95        35.31229
574.38        37.41584
574.82        36.34914
575.25        36.14655
575.69        34.88104
576.12        34.34249
576.56        34.11543
576.99        35.08982
577.42        36.66382
577.86        36.58676
578.29        36.39169
578.73        37.90346
579.16         35.0983
579.60        32.12508
580.03        33.67961
580.47        35.93223
580.90        36.14365
581.33        35.47588
581.77        35.20994
582.20        38.54399
582.64        38.23258
583.07        32.46594
583.51        31.82786
583.94        31.39031
584.37        32.72713
584.81        34.08002
585.24        35.75006
585.68         36.6949
586.11        35.82893
586.54        33.38309
586.98        32.45022
587.41        32.67181
587.85        34.18258
588.28        35.50219
588.71         33.7265
589.15        32.63503
589.58        33.31678
590.01        33.81286
590.45        33.96235
590.88        34.37226
591.31        33.90345
591.75        33.73206
592.18         33.8806
592.61        34.73236
593.05        35.07646
593.48        36.43041
593.91        36.62021
594.35        33.77877
594.78        33.31528
595.21        33.44839
595.65         34.9743
596.08        36.10588
596.51        34.85044
596.94        34.25452
597.38        34.90485
597.81        36.51425
598.24        37.25897
598.68        36.81442
599.11        36.70073
599.54        38.00714
599.97        39.17185
600.41        37.04538
600.84        37.50957
601.27        38.47537
601.70        38.25248
602.14        38.41633
602.57        38.32791
603.00        39.26067
603.43        40.51359
603.87        41.54855
604.30         41.6717
604.73        41.15632
605.16        40.43699
605.60        41.67807
606.03        42.72466
606.46        43.76178
606.89        43.89457
607.32        43.05521
607.76        43.50521
608.19        45.16249
608.62        44.91951
609.05        44.50943
609.48        45.26379
609.92        45.62865
610.35        45.99376
610.78        47.43491
611.21        48.44578
611.64        46.58897
612.07        47.46121
612.50        48.03065
612.94        48.64657
613.37        48.59256
613.80        48.86091
614.23        49.51675
614.66        49.71877
615.09        50.22273
615.52        50.54019
615.96        50.77865
616.39        51.09814
616.82        50.61382
617.25        50.86111
617.68        51.51088
618.11        52.23057
618.54        52.78628
618.97        52.71773
619.40        52.28581
619.84        52.53954
620.27        53.44204
620.70        54.11056
621.13        54.39755
621.56        54.18106
621.99        53.72135
622.42        54.38696
622.85        55.77808
623.28        55.65422
623.71        55.20014
624.14        54.96554
624.57        54.95734
625.00         54.7154
625.43        54.99838
625.86        54.60838
626.29        54.76204
626.72        55.22239
627.15        54.72734
627.58        54.56541
628.01        54.33826
628.44        54.15734
628.87        54.04509
629.30        54.08413
629.73        54.16875
630.16         53.9943
630.59        53.52579
631.02        52.90315
631.45        52.23824
631.88        51.66888
632.31        51.24019
632.74        50.90646
633.17        50.62537
633.60        50.32803
634.03        49.98689
634.46        49.62971
634.89        49.24519
635.32        48.81071
635.75        48.33114
636.18        47.81084
636.61        47.28979
637.04        46.83361
637.47        46.45218
637.89        46.13078
638.32        45.82335
638.75        45.48254
639.18         45.0991
639.61         44.7013
640.04        44.30356
640.47        43.92146
640.90        43.56724
641.33        43.23316
641.76        42.93136
642.18        42.74734
642.61        42.68606
643.04        42.62538
643.47        42.50482
643.90        42.77658
644.33        42.54192
644.76        42.53404
645.18        42.49674
645.61        42.46123
646.04        42.42867
646.47        42.38735
646.90        42.40863
647.33        42.57711
647.75        42.91751
648.18        43.42902
648.61        43.95313
649.04        44.25273
649.47        44.29292
649.89         44.0264
650.32        43.76011
650.75        44.15286
651.18        45.17622
651.61         46.2001
652.03         46.9822
652.46        47.52075
652.89        47.99464
653.32        48.18516
653.74        48.36945
654.17        49.45983
654.60        50.62376
655.03        49.40623
655.46        50.16179
655.88        53.90281
656.31        57.37191
656.74        129.1429
657.16        83.93164
657.59        29.49513
658.02        22.90227
658.45        40.35826
658.87        52.29952
659.30        55.35809
659.73        55.13042
660.15        53.54799
660.58        55.91753
661.01        57.70118
661.44        56.30021
661.86        56.10175
662.29        56.47979
662.72        57.50257
663.14        58.92585
663.57        59.03878
664.00        58.11435
664.42        58.08714
664.85        59.06037
665.27        59.83929
665.70         60.1945
666.13        60.42674
666.55        60.49715
666.98        60.32148
667.41        60.07064
667.83        60.06441
668.26        60.37691
668.69        60.88601
669.11        61.38709
669.54        61.85233
669.96        61.64321
670.39        61.32696
670.82        60.94475
671.24        60.87633
671.67        61.21832
672.09        61.80095
672.52        62.37082
672.94        63.01306
673.37        62.63845
673.80        62.68297
674.22        62.89916
674.65        63.09066
675.07        63.24222
675.50        63.36257
675.92        63.48876
676.35          63.689
676.77        63.96774
677.20        64.33414
677.62        64.58396
678.05        64.80957
678.47         64.9342
678.90        64.98833
679.32        65.03142
679.75        65.02583
680.17        65.24824
680.60        65.51545
681.02        65.80706
681.45        65.84251
681.87        65.65523
682.30        65.51957
682.72        65.53935
683.15        65.69987
683.57        66.03829
684.00        66.51612
684.42        67.15422
684.85        67.49781
685.27        67.52724
685.70        67.34727
686.12        67.07865
686.54         66.9632
686.97        67.05129
687.39        67.27039
687.82        67.53056
688.24        67.76823
688.66        67.91308
689.09        67.93479
689.51         67.9028
689.94        67.97827
690.36        68.19862
690.78         68.4423
691.21        68.67529
691.63        68.96121
692.06        69.24365
692.48        69.34879
692.90        69.33426
693.33        69.44196
693.75        69.69978
694.17        69.98648
694.60        70.26739
695.02        70.54147
695.44        70.75887
695.87        71.02044
696.29        71.32291
696.71         71.3205
697.14        71.15428
697.56         71.5878
697.98        72.37057
698.41        72.48906
698.83         71.5853
699.25        71.24968
699.68        71.43227
700.10        71.52621
700.52        71.53539
700.94        71.84349
701.37         72.3744
701.79        72.85822
702.21        73.19946
702.64        73.47434
703.06        73.64067
703.48        73.62876
703.90        73.45888
704.33        73.15236
704.75        72.81895
705.17        72.72672
705.59        72.94492
706.01        73.29413
706.44        73.63116
706.86        74.35389
707.28        74.41104
707.70        74.60928
708.12        74.70414
708.55        74.78811
708.97        74.86347
709.39        74.91544
709.81        74.96932
710.23        75.05486
710.66        75.17838
711.08        75.36714
711.50        75.54992
711.92        75.62763
712.34        75.58407
712.76        75.43555
713.19         75.2882
713.61        75.34446
714.03         75.6275
714.45        76.08452
714.87        76.54178
715.29        76.72167
715.71        76.57302
716.13        76.18562
716.56        75.75745
716.98        75.64216
717.40        75.91491
717.82        76.46491
718.24        77.10191
718.66        77.50201
719.08        77.57035
719.50        77.40701
719.92        77.12965
720.34        76.94804
720.76        76.93298
721.19        76.89416
721.61        77.04788
722.03        77.20503
722.45        77.41064
722.87        77.67437
723.29        77.95891
723.71         78.1866
724.13        78.33141
724.55        78.39769
724.97        78.42066
725.39        78.46976
725.81        78.56464
726.23        78.69281
726.65        78.81847
727.07        78.88212
727.49         78.8802
727.91         78.8418
728.33        78.82476
728.75        78.92236
729.17        79.14539
729.59        79.44527
730.01        79.76468
730.43        80.00504
730.85        80.14332
731.27        80.24474
731.69        80.29088
732.10        80.22817
732.52        80.06637
732.94        79.86884
733.36        79.78137
733.78        79.88488
734.20        80.18779
734.62        80.99456
735.04        82.03451
735.46        82.04379
735.88        81.29214
736.30        81.63702
736.72         82.9965
737.13        83.50282
737.55        82.90414
737.97        82.65532
738.39        82.86932
738.81        82.29247
739.23        81.33646
739.65        82.32727
740.06        84.70779
740.48        84.99779
740.90        83.31319
741.32        82.58369
741.74        83.10487
742.16        83.43297
742.57        83.62209
742.99        84.52292
743.41        85.85455
743.83        86.62909
744.25        86.69048
744.67        86.35438
745.08         85.9067
745.50        85.75524
745.92        86.04879
746.34        86.65548
746.75        87.38757
747.17        87.91695
747.59        88.16597
748.01        88.22995
748.42        88.27339
748.84        88.53186
749.26        89.06416
749.68        89.75475
750.09        90.42856
750.51        90.82712
750.93        90.89588
751.35        90.62301
751.76        90.18405
752.18        90.10324
752.60        90.34286
753.01        90.41485
753.43        90.36703
753.85        90.57945
754.27        91.04317
754.68        92.14019
755.10        92.72765
755.52        93.26052
755.93        93.42924
756.35        93.58444
756.77        93.84535
757.18        93.90936
757.60        93.81643
758.02        94.32181
758.43        94.96939
758.85        94.05234
759.26        91.61771
759.68        91.19147
760.10        93.47289
760.51        94.44749
760.93        94.01437
761.34        92.84559
761.76         92.9031
762.18        92.12363
762.59        91.41959
763.01        91.72247
763.42        93.04257
763.84        94.33372
764.26        95.26675
764.67        95.48623
765.09        95.04813
765.50        95.04057
765.92         95.3372
766.33        93.58549
766.75        91.72235
767.16        90.80137
767.58        91.54871
768.00        93.26796
768.41        95.54605
768.83        97.54364
769.24        98.39706
769.66        97.48221
770.07        95.47843
770.49        93.37763
770.90         91.8368
771.32         92.9329
771.73        95.79999
772.15         95.3279
772.56        92.02875
772.97        91.37909
773.39        93.32961
773.80        94.09207
774.22        93.42297
774.63        93.61251
775.05        94.54848
775.46        95.07496
775.88        95.03872
776.29        94.76281
776.70         94.4048
777.12         94.2578
777.53        94.41846
777.95        94.73406
778.36        95.02604
778.77         94.9836
779.19        94.59279
779.60        93.95911
780.02        93.36047
780.43        93.30866
780.84        93.95335
781.26        94.63857
781.67        95.23012
782.09        96.52518
782.50        97.88361
782.91        96.64723
783.33        93.69402
783.74        92.69354
784.15        93.84971
784.57        94.84707
784.98        95.24874
785.39        95.34217
785.81        95.07226
786.22        94.58812
786.63        94.21402
787.04         94.1413
787.46        94.50522
787.87        95.59257
788.28        97.00505
788.70        97.66127
789.11        97.37885
789.52        96.68759
789.93        95.91584
790.35        95.25411
790.76        94.92003
791.17        95.23738
791.58        96.00106
792.00        96.40662
792.41        96.29985
792.82        96.18166
793.23         96.2496
793.65        95.92625
794.06        95.54659
794.47        96.91323
794.88        99.13299
795.29         98.6754
795.71        95.80814
796.12        93.49903
796.53        92.43327
796.94        91.74429
797.35         91.7279
797.76        93.43534
798.18         96.0829
798.59        97.62375
799.00        97.53268
799.41        96.46877
799.82         95.0348
800.23        94.12128
800.64        94.00349
801.06         94.3106
801.47        94.89198
801.88        95.38301
802.29        95.62891
802.70        95.78027
803.11        95.85674
803.52          95.841
803.93         95.7691
804.34          95.627
804.75        95.49215
805.17        95.56261
805.58        95.97855
805.99        96.41976
806.40        96.71991
806.81        97.52792
807.22         98.2192
807.63        96.48162
808.04        93.18505
808.45        91.78363
808.86        92.60313
809.27        93.93939
809.68        95.19381
810.09        96.00389
810.50        96.05441
810.91        95.46844
811.32        94.64645
811.73        94.20842
812.14        94.31618
812.55        94.83443
812.96        95.56419
813.37        95.86305
813.78        95.72237
814.19        95.97651
814.60         96.3952
815.01        96.03851
815.42        94.89424
815.83         93.3812
816.24         92.0584
816.65         91.7339
817.05        92.66918
817.46        94.58869
817.87        96.76847
818.28        97.90031
818.69        97.61139
819.10        96.20021
819.51        94.41101
819.92        93.54356
820.33         93.9482
820.74        95.20276
821.14        96.63554
821.55        97.12348
821.96        96.39092
822.37        94.72693
822.78        92.80869
823.19        91.75278
823.60        91.81866
824.00        92.66929
824.41         93.8233
824.82        94.65553
825.23        94.87443
825.64        94.70637
826.04        94.34395
826.45        94.07182
826.86        93.97976
827.27        93.91796
827.68        93.89853
828.08        94.01708
828.49        94.19321
828.90        94.51031
829.31        94.79942
829.72         94.7235
830.12        94.25738
830.53        93.49952
830.94        92.80029
831.35        92.64144
831.75        93.15928
832.16        94.14179
832.57        95.34648
832.97        96.25076
833.38        96.56697
833.79        96.44357
834.20        96.07941
834.60        95.78381
835.01        95.68237
835.42        95.66578
835.82        95.63718
836.23        95.35249
836.64        94.82373
837.04        94.18507
837.45        93.61048
837.86        93.36245
838.26        93.50618
838.67        93.88966
839.08        94.40443
839.48        94.83813
839.89        95.05357
840.29        95.13632
840.70        95.03529
841.11        94.65115
841.51        94.02055
841.92        93.15001
842.33        92.32401
842.73        92.03082
843.14        92.32234
843.54         93.1043
843.95        93.96156
844.35        94.26601
844.76        93.84616
845.17        92.92715
845.57        91.84821
845.98         91.1415
846.38        90.95415
846.79        91.09803
847.19        91.46081
847.60        91.73024
848.00        91.83757
848.41        91.85581
848.81         91.8548
849.22        91.85258
849.62         91.9308
850.03        92.06881
850.43        92.31336
850.84        92.62975
851.24        93.06113
851.65        93.38682
852.05        93.82509
852.46        94.52871
852.86        95.47935
853.27        96.64374
853.67         97.3425
854.07        96.67916
854.48        94.68564
854.88          91.701
855.29        88.80142
855.69        87.53751
856.10        88.21988
856.50        90.64931
856.90        93.92489
857.31        95.94756
857.71        96.02252
858.12        94.66867
858.52        92.80556
858.92        91.68907
859.33        91.59863
859.73        92.20444
860.13        93.24284
860.54        94.16956
860.94        94.84261
861.34        95.37694
861.75        95.82832
862.15         96.3733
862.55        96.98937
862.96        97.52265
863.36        97.90511
863.76        97.98379
864.17        97.75405
864.57        97.39902
864.97        96.99026
865.38         96.6023
865.78        96.34376
866.18        96.11941
866.58         96.1468
866.99        96.76187
867.39        98.07096
867.79        100.0141
868.19        101.9559
868.60        102.6931
869.00        101.9404
869.40        99.96838
869.80        97.85403
870.21        97.33769
870.61          98.924
871.01        102.0946
871.41        105.6899
871.81         107.722
872.22        107.6052
872.62        105.9682
873.02        103.8918
873.42        102.9836
873.82        103.6849
874.22        105.7176
874.63        108.2378
875.03        109.3967
875.43         108.456
875.83        105.9078
876.23        104.1104
876.63        104.0237
877.03        106.3943
877.44        111.6228
877.84        94.06956
878.24        119.8757
878.64        117.6903
879.04        111.8212
879.44        111.1013
879.84        110.5845
880.24        108.7433
880.64        109.9593
881.04        113.5478
881.44        116.0342
881.84        115.8032
882.24          113.84
882.65         111.527
883.05        110.7535
883.45        111.8724
883.85        114.1816
884.25        116.8246
884.65        118.4269
885.05        118.4723
885.45        117.4772
885.85        116.2018
886.25        115.6611
886.65         116.083
887.05        117.0954
887.45        118.3325
887.85        119.1542
888.25        119.3181
888.65        119.1134
889.04        118.6196
889.44        117.9871
889.84        117.3164
890.24        116.5284
890.64        115.9218
891.04        115.9829
891.44        116.7355
891.84        118.0498
892.24        119.3922
892.64        119.7684
893.04        119.0154
893.44        117.5924
893.83        116.0657
894.23        115.2859
894.63        115.4246
895.03        116.1381
895.43        117.4362
895.83        119.2939
896.23         121.491
896.63        124.0067
897.02        126.0262
897.42        126.2141
897.82        124.4374
898.22        121.1704
898.62        117.6704
899.01         115.807
899.41        116.0153
899.81        117.6804
900.21        119.9663
900.61        121.4823
901.00        121.7863
901.40          121.35
901.80        120.5264
902.20        119.8546
902.59        119.5412
902.99        119.3401
903.39        119.2271
903.79        119.2095
904.18        119.2661
904.58        119.4862
904.98        119.7972
905.38        120.0463
905.77         120.157
906.17        120.1325
906.57        120.0313
906.96        120.0145
907.36        120.0552
907.76        120.1234
908.15        120.0452
908.55        119.4245
908.95        118.2754
909.34        116.7149
909.74        115.2033
910.14        114.2625
910.53         114.086
910.93        114.6209
911.33        115.5864
911.72        116.4453
912.12        116.9281
912.52        117.0668
912.91        117.2257
913.31        118.0115
913.70        119.5769
914.10        121.8054
914.49        124.0171
914.89        124.2538
915.29        122.0283
915.68        118.0986
916.08        114.3465
916.47        112.5189
916.87        112.8265
917.26        114.7175
917.66        117.0364
918.05        117.8947
918.45        116.7942
918.84        114.3865
919.24        111.8885
919.64        111.0762
920.03        112.3965
920.42        115.2861
920.82        118.6681
921.21        120.8181
921.61        121.0183
922.00        119.8871
922.40        118.2284
922.79        117.0258
923.19        116.5294
923.58        116.6525
923.98        117.2064
924.37        116.9598
924.77          115.67
925.16        116.7221
925.55        115.0102
925.95        115.5593
926.34        116.8418
926.74        118.5216
927.13        120.1154
927.52        120.7481
927.92        120.3675
928.31        119.2287
928.70        117.6526
929.10        116.1628
929.49        114.9477
929.89        113.9168
930.28        113.3934
930.67         113.914
931.07        115.3741
931.46        117.6284
931.85        119.8748
932.24        120.9241
932.64        120.5268
933.03        118.9587
933.42        116.5868
933.82        114.4221
934.21        112.8826
934.60        111.8314
934.99        111.3419
935.39        111.2011
935.78        111.3384
936.17        112.3653
936.56        114.1179
936.96        112.8385
937.35        112.4632
937.74         110.183
938.13        108.5009
938.53        108.4216
938.92        109.9013
939.31        112.7444
939.70        115.9736
940.09        117.1768
940.49        115.5347
940.88        112.0716
941.27        108.4846
941.66        106.7556
942.05        107.1531
942.44        109.0309
942.84          111.63
943.23        113.7395
943.62          114.74
944.01        114.9401
944.40        114.6795
944.79          114.49
945.18        114.5391
945.57        114.6216
945.97        114.3383
946.36        113.2069
946.75        111.3486
947.14        109.3708
947.53        107.9298
947.92        107.5242
948.31        108.1114
948.70        109.5181
949.09        111.4423
949.48        113.0728
949.87         113.925
950.26        114.1084
950.65        113.7965
951.04        113.3516
951.43        112.9089
951.82        112.3183
952.21        111.6019
952.60         110.868
952.99        110.1558
953.38        109.5061
953.77        108.9229
954.16        108.3233
954.55        107.7211
954.94        107.2451
955.33        106.8284
955.72        106.3489
956.11        105.8404
956.50        105.3062
956.89        105.2028
957.28        106.3146
957.66        108.7883
958.05        112.0801
958.44        115.2745
958.83        117.0492
959.22        117.0835
959.61        115.6254
960.00        113.4286
960.39         111.766
960.78        111.0307
961.16        111.0276
961.55        110.9939
961.94        109.6799
962.33        106.9701
962.72         103.527
963.11        100.5053
963.49        99.35374
963.88        100.2945
964.27        102.9634
964.66        106.4213
965.04        108.5866
965.43        108.4647
965.82        106.7302
966.21        104.5158
966.60        103.3365
966.98        103.5041
967.37        104.4778
967.76        105.6684
968.15        106.0018
968.53        105.1639
968.92        103.6216
969.31        101.9459
969.69        100.7887
970.08         100.329
970.47        100.3708
970.86        100.6446
971.24        100.7259
971.63        100.4455
972.02        99.95779
972.40        99.64674
972.79        100.0749
973.17        101.5189
973.56        103.5966
973.95        105.7819
974.33        107.0212
974.72        106.8939
975.11        105.7248
975.49        104.1815
975.88        103.2804
976.26        103.2033
976.65        103.7329
977.04        104.3818
977.42        103.9864
977.81        102.1973
978.19         99.5754
978.58        97.62992
978.96        97.80575
979.35        100.2515
979.74        104.6121
980.12        109.9916
980.51        113.0326
980.89        112.7774
981.28        110.1921
981.66        106.6065
982.05        103.7475
982.43         102.005
982.82        100.9477
983.20        100.7518
983.59        101.8672
983.97        104.3738
984.35        108.3202
984.74        112.7682
985.12        115.8182
985.51        116.0836
985.89        113.9602
986.28        110.0874
986.66        105.8381
987.04        102.3495
987.43        99.68916
987.81         98.1357
988.20        98.04563
988.58         99.4788
988.96        102.8338
989.35        108.4412
989.73        115.1152
990.12        119.4304
990.50        120.7627
990.88        119.2657
991.27        116.1566
991.65        111.8654
992.03        106.0859
992.42        100.0686
992.80        96.38998
993.18        96.00593
993.56        97.78179
993.95        100.2003
994.33        101.7122
994.71        101.9742
995.10        101.7292
995.48        101.0632
995.86        100.0006
996.24        98.64671
996.63        96.61642
997.01         94.8389
997.39        95.76856
997.77        100.0924
998.15        106.9316
998.54         113.282
998.92        115.3659
999.30        112.1678
999.68        104.7179
1000.06        94.86666
1000.45        87.40207
1000.83         84.5126
1001.21        84.77676
1001.59        87.18266
1001.97        90.69524
1002.35        95.00957
1002.73        101.2333
1003.12        107.7418
1003.50        109.4501
1003.88         104.003
1004.26        93.77169
1004.64        84.09435
1005.02        79.67603
1005.40        81.01449
1005.78         88.3044
1006.16        101.9569
1006.54        114.1627
1006.92        116.9014
1007.30        113.4695
1007.69        109.8908
1008.07        110.4466
1008.45        116.5458
1008.83        130.9751
1009.21        163.3811
1009.59          226.35
1009.97        300.1105
1010.35        273.3539
1010.73         146.263
1011.11         96.3907
1011.49        92.39119
1011.86        99.87207
1012.24        107.0606
1012.62        110.5531
1013.00        111.3855
1013.38        110.9357
1013.76        112.2193
1014.14        123.2881
1014.52        150.2034
1014.90        194.1441
1015.28        242.9807
1015.66         266.424
1016.04          245.93
1016.41        186.7128
1016.79         119.358
1017.17        78.92522
1017.55        66.75496
1017.93          67.741
1018.31        73.53709
1018.69         79.9809
1019.06        87.26629
1019.44         97.9071
1019.82        116.0306
1020.20        146.4589
1020.58        196.3132
1020.95        280.3357
1021.33        462.8896
1021.71       -2347.834
1022.09       -94.79352
1022.46        26.65356
1022.84        63.91698
1023.22        74.25092
1023.60         64.6984
1023.97       -112.0041
1024.35        202.8481
1024.73        175.1907
