SpectraSmart Spectrum 2.9.0.0
--------- Device Information -----------
Spectrum Name :  反射率_0
Saving Time :  2024/04/26 00:37:57
Spectro-Module Model Name : SE2030-DUVN
Spectro-Module Serial Number : OS361AC55029948
Wavelength Start : 200
Wavelength End : 1025
Wavelength Unit : Wavelength(nm)
Spectrum Unit : Reflectance(%)
-----------Spectrum Setting ------------
Integration Time : 20ms
Average : 10
Boxcar : 0
Background removal :  enabled
linearity correction :  enabled
SC :  disabled
Intensity correction :  disabled
DWT denoise :  enabled
savitzky-golay :  disabled
FFT :  disabled
Running average :  disabled
Kalman :  disabled
High pass :  disabled
---------------BEGIN--------------------
Wavelength(nm)             Reflectance(%)
200.29               0
200.75        94.79571
201.21        85.84476
201.67        74.92363
202.13         68.8098
202.58        68.40429
203.04        71.92494
203.50        76.90017
203.96        79.13599
204.42        77.73798
204.88        74.67928
205.34          71.716
205.80         70.3848
206.26        71.11157
206.72        74.29083
207.18        81.44221
207.64        88.88088
208.10        86.38261
208.55        78.68118
209.01        73.40443
209.47        71.44427
209.93        71.38424
210.39         72.5139
210.85        73.50581
211.31        71.83944
211.77        67.21081
212.23        60.91932
212.69        55.63708
213.14        55.51103
213.60        60.92958
214.06        70.60548
214.52        81.71746
214.98        89.93028
215.44        93.70384
215.90        94.08952
216.36        92.08231
216.81        88.99351
217.27        85.98493
217.73        82.96494
218.19        79.66231
218.65        75.45715
219.11        69.72914
219.57        61.53041
220.02        51.89223
220.48        47.01738
220.94        50.02716
221.40        59.44407
221.86        67.93755
222.32        67.97721
222.77        60.70765
223.23        50.47542
223.69        42.12782
224.15         40.7016
224.61        45.56028
225.06        54.19304
225.52        62.83087
225.98        66.57462
226.44        64.62008
226.90        59.06205
227.36        52.79288
227.81        49.73534
228.27        50.95893
228.73        54.80063
229.19        59.48088
229.65        62.40495
230.10        62.98261
230.56        62.39624
231.02        61.49615
231.48        61.20414
231.93        61.62253
232.39         62.3252
232.85        63.09211
233.31        63.73544
233.77        64.13383
234.22        64.43127
234.68        64.40601
235.14        63.60267
235.60        62.05505
236.05        60.02086
236.51        58.04179
236.97         56.7875
237.43        56.40886
237.88         56.8783
238.34        58.04691
238.80        59.57758
239.26        61.08613
239.71        62.69355
240.17        63.88655
240.63        64.45832
241.08        64.53123
241.54        64.08266
242.00        63.56805
242.46        63.64994
242.91        64.92841
243.37        68.29481
243.83        79.94978
244.28        123.4835
244.74        183.0509
245.20         162.993
245.66        138.4447
246.11        131.6052
246.57        135.8943
247.03        154.9682
247.48        208.4888
247.94        167.6713
248.40        106.9675
248.85        89.89624
249.31        85.59879
249.77         85.9193
250.22        88.99178
250.68        95.22923
251.14        104.1495
251.59        108.9842
252.05        103.8015
252.51        92.01701
252.96        80.37144
253.42        75.15919
253.88        75.63984
254.33        79.41716
254.79        84.90456
255.25        89.30164
255.70        91.62257
256.16        93.03637
256.62        93.24603
257.07        91.83608
257.53        89.45041
257.99        85.88909
258.44        81.99055
258.90        79.78538
259.35        78.50005
259.81        77.77258
260.27        76.25281
260.72        72.59061
261.18        67.55437
261.63        61.68533
262.09         56.4659
262.55        52.92403
263.00        50.96451
263.46        50.14509
263.91        49.55369
264.37        48.52074
264.83        46.86079
265.28        44.74066
265.74        42.72877
266.19        41.42068
266.65        41.01902
267.11        41.12589
267.56        41.25023
268.02        40.83899
268.47        39.77039
268.93        38.27479
269.38        36.58471
269.84        35.31702
270.30        34.66098
270.75        34.45158
271.21        34.46802
271.66        34.38027
272.12        34.06647
272.57        33.61918
273.03        33.14853
273.48        32.72334
273.94        32.39848
274.39         32.0975
274.85        31.76629
275.31        31.32049
275.76        30.74101
276.22         30.0944
276.67        29.45252
277.13         29.0151
277.58        28.75435
278.04        28.64223
278.49        28.50815
278.95        28.17725
279.40        27.59467
279.86        26.89039
280.31         26.1497
280.77        25.62043
281.22        25.30691
281.68        25.15332
282.13        25.07453
282.59        24.99092
283.04        24.86123
283.50           24.75
283.95          24.605
284.41        24.37017
284.86         24.0387
285.32        23.63086
285.77        23.26958
286.22        23.20745
286.68        23.44508
287.13        23.87255
287.59        24.25096
288.04        24.21047
288.50        23.72359
288.95        22.91332
289.41         22.0388
289.86        21.38148
290.32        21.06999
290.77        20.99063
291.22        21.08521
291.68        21.22708
292.13        21.37151
292.59        21.56058
293.04        21.79396
293.50        22.06799
293.95        22.36811
294.40        22.65763
294.86        22.92407
295.31        23.16794
295.77         23.3964
296.22         23.6219
296.68        23.83945
297.13        24.00902
297.58        24.15025
298.04        24.29451
298.49        24.50948
298.95        24.93402
299.40        25.57012
299.85        26.35765
300.31        27.17715
300.76        27.85329
301.21         28.3171
301.67        28.63925
302.12        28.83182
302.58        28.96902
303.03        29.07044
303.48        29.13765
303.94        29.25565
304.39        29.52187
304.84        29.94822
305.30        30.48689
305.75        31.01348
306.20        31.34265
306.66         31.4527
307.11        31.39518
307.57        31.25927
308.02        31.10568
308.47        31.00023
308.93        30.92072
309.38        30.91546
309.83        31.09361
310.29        31.44069
310.74        31.90309
311.19        32.34437
311.65        32.55048
312.10        32.47488
312.55        32.18808
313.00        31.77569
313.46        31.39685
313.91        31.10844
314.36        30.88333
314.82        30.75314
315.27        30.74805
315.72        30.86347
316.18        31.09032
316.63        31.34217
317.08        31.44708
317.53        31.35887
317.99         31.1045
318.44        30.78955
318.89        30.59388
319.35        30.55161
319.80        30.61883
320.25        30.67603
320.70        30.52618
321.16        30.13569
321.61        29.58496
322.06        29.01146
322.51        28.61738
322.97        28.44081
323.42        28.42385
323.87        28.46885
324.32        28.41489
324.78        28.20899
325.23        27.90778
325.68        27.55464
326.13        27.22362
326.59        26.93807
327.04        26.68905
327.49        26.47277
327.94        26.29186
328.39        26.14611
328.85        26.03452
329.30        25.97652
329.75        25.95786
330.20        25.97127
330.66        25.99631
331.11        26.03405
331.56         26.0427
332.01        26.00757
332.46        25.92147
332.92        25.79588
333.37        25.68823
333.82        25.60779
334.27        25.56231
334.72        25.50897
335.17        25.37427
335.63        25.14794
336.08        24.85457
336.53        24.60157
336.98        24.56309
337.43        24.76424
337.88         25.1549
338.34         25.5414
338.79        25.65346
339.24        25.40343
339.69        24.86608
340.14        24.26205
340.59        23.98006
341.05        24.10838
341.50        24.52509
341.95        25.00209
342.40        25.20296
342.85        25.05389
343.30        24.67493
343.75        24.20094
344.20        23.86747
344.66        23.75241
345.11        23.73953
345.56          23.795
346.01        23.86843
346.46        23.92243
346.91        23.99802
347.36        23.98865
347.81         23.7152
348.26        23.18278
348.72        22.48128
349.17        21.80819
349.62        21.57261
350.07        21.85726
350.52        22.51948
350.97        23.32214
351.42        23.89836
351.87        24.13793
352.32        24.14074
352.77        23.98021
353.22        23.78178
353.67        23.59881
354.13        23.39059
354.58        23.17182
355.03         23.0105
355.48         22.9179
355.93        22.90319
356.38        22.90587
356.83        22.81222
357.28          22.599
357.73         22.2934
358.18        21.97662
358.63        21.77851
359.08        21.72721
359.53        21.78793
359.98        21.86449
360.43        21.80735
360.88        21.58882
361.33        21.25485
361.78        20.92144
362.23        20.77661
362.68        20.85095
363.13        21.06622
363.58        21.29162
364.03        21.32614
364.48        21.12405
364.93        20.76376
365.38        20.32628
365.83        19.93968
366.28        19.65717
366.73        19.44025
367.18        19.30725
367.63        19.28867
368.08        19.36879
368.53        19.53429
368.98        19.70279
369.43         19.7386
369.88        19.61677
370.33        19.37959
370.78        19.08936
371.23        18.86132
371.68        18.73562
372.13        18.67062
372.58         18.6759
373.03        18.76275
373.48        18.91155
373.93        19.12123
374.38        19.29457
374.83        19.27921
375.28        19.05454
375.72        18.65175
376.17        18.22807
376.62        18.00351
377.07        18.03466
377.52        18.25532
377.97        18.54017
378.42        18.68349
378.87        18.63115
379.32        18.45156
379.77        18.23302
380.22        18.10169
380.67         18.0856
381.11        18.13779
381.56        18.19868
382.01        18.18442
382.46        18.07158
382.91        17.89284
383.36        17.69235
383.81        17.53511
384.26        17.44263
384.71        17.39868
385.15        17.36504
385.60         17.2972
386.05        17.17763
386.50          17.016
386.95        16.85837
387.40        16.78158
387.85        16.80237
388.29         16.8927
388.74        16.98486
389.19        16.96889
389.64        16.83171
390.09         16.5942
390.54        16.35812
390.98        16.29394
391.43        16.43822
391.88        16.72097
392.33         16.9874
392.78        17.01081
393.23        16.76996
393.67        16.35183
394.12        15.93338
394.57        15.70019
395.02        15.69136
395.47        15.83957
395.91        16.06507
396.36        16.20304
396.81        16.20039
397.26        16.09628
397.71        15.94272
398.15        15.79915
398.60        15.71087
399.05        15.66219
399.50        15.61385
399.95        15.46924
400.39        15.28989
400.84         15.0489
401.29        14.84725
401.74        14.83343
402.18        15.04389
402.63        15.40474
403.08        15.78907
403.53        15.99507
403.97        15.97169
404.42        15.77787
404.87        15.49949
405.32        15.29049
405.76        15.20251
406.21        15.19258
406.66        15.22666
407.11        15.26127
407.55        15.28305
408.00        15.30652
408.45        15.32161
408.90        15.29451
409.34        15.22205
409.79        15.11466
410.24        15.00944
410.68        14.96112
411.13        14.98291
411.58        15.06038
412.03        15.16614
412.47        15.25183
412.92        15.28796
413.37        15.28722
413.81        15.26619
414.26        15.26791
414.71         15.2923
415.15        15.32662
415.60        15.33397
416.05        15.27615
416.49        15.14733
416.94        14.97876
417.39        14.79706
417.83        14.64689
418.28        14.55484
418.73        14.50117
419.17        14.49753
419.62        14.55114
420.07        14.65305
420.51        14.79594
420.96        14.92087
421.41        14.92593
421.85        14.79046
422.30        14.57069
422.74        14.33272
423.19        14.20338
423.64        14.19483
424.08        14.27921
424.53        14.40116
424.98        14.49259
425.42         14.5321
425.87        14.53167
426.31        14.50054
426.76        14.49679
427.21        14.50685
427.65        14.41478
428.10        14.29429
428.54        14.35465
428.99        14.60983
429.44        14.97233
429.88        15.28136
430.33        15.33302
430.77        15.09656
431.22        14.63939
431.66        14.15664
432.11        14.00346
432.56        14.21051
433.00        14.59249
433.45        14.95977
433.89        15.19187
434.34        15.17265
434.78        14.78196
435.23        14.28947
435.67        14.23493
436.12        14.57958
436.57        14.78418
437.01        14.76015
437.46        14.74108
437.90        14.73837
438.35        14.68169
438.79        14.58973
439.24        14.53485
439.68        14.53619
440.13        14.51333
440.57        14.47614
441.02        14.63647
441.46        14.87469
441.91        14.68176
442.35         14.1728
442.80        13.93585
443.24        13.95531
443.69        14.01138
444.13        14.02933
444.58        13.89102
445.02        13.64495
445.47         13.6028
445.91        13.73292
446.36        13.73661
446.80        13.59925
447.24        13.49795
447.69        13.45558
448.13        13.41676
448.58        13.39044
449.02         13.3893
449.47        13.39956
449.91        13.39585
450.36        13.37607
450.80         13.3423
451.25        13.31546
451.69        13.31815
452.13        13.35637
452.58        13.40889
453.02        13.46373
453.47        13.49755
453.91        13.50744
454.36        13.50768
454.80        13.48859
455.24        13.43407
455.69        13.35656
456.13        13.25613
456.58        13.19335
457.02        13.23691
457.46        13.39829
457.91        13.64445
458.35        13.89989
458.79        14.03723
459.24        14.03699
459.68        13.92454
460.13        13.78307
460.57        13.70497
461.01        13.73127
461.46        13.82588
461.90         13.9448
462.34        14.00834
462.79        13.99471
463.23        13.92423
463.68         13.8527
464.12        13.87111
464.56        13.99781
465.01        14.20416
465.45        14.38596
465.89        14.44401
466.34        14.37364
466.78         14.1336
467.22        13.85069
467.67        13.86843
468.11        14.15071
468.55        14.27112
468.99        14.19551
469.44        14.15611
469.88        14.20299
470.32         14.3815
470.77        14.62132
471.21        14.70043
471.65        14.59155
472.10        14.45275
472.54        14.34901
472.98        14.34035
473.42        14.44903
473.87        14.65519
474.31        14.88755
474.75        15.02857
475.20        15.05469
475.64        14.99573
476.08        14.90601
476.52        14.86853
476.97         14.9075
477.41        15.00068
477.85        15.11057
478.29        15.20746
478.74        15.28001
479.18        15.26143
479.62        15.18624
480.06        15.36406
480.50        15.48433
480.95        15.58766
481.39        15.54736
481.83        15.49096
482.27        15.42348
482.72         15.2208
483.16        14.98015
483.60        15.05076
484.04        15.44386
484.48        15.71626
484.93        16.00472
485.37        16.41086
485.81        16.86319
486.25        16.96858
486.69        22.32662
487.14        17.85746
487.58        11.62355
488.02        14.17533
488.46        16.20086
488.90        16.37591
489.34        16.47768
489.79        16.36249
490.23        17.16587
490.67        17.67017
491.11        17.65738
491.55         17.6082
491.99        17.48233
492.43        17.33485
492.88        17.23497
493.32        17.25698
493.76        17.29734
494.20        17.48746
494.64        17.77668
495.08         18.1298
495.52        18.50063
495.96        18.84047
496.41        19.08065
496.85        19.20992
497.29        19.25096
497.73        19.05518
498.17         18.8591
498.61        19.11849
499.05        19.81975
499.49        20.00402
499.93        20.13588
500.37        20.25523
500.82        20.30963
501.26        20.50629
501.70        20.74666
502.14        20.85932
502.58        20.83374
503.02        20.85246
503.46        20.92587
503.90        20.94421
504.34        20.92161
504.78        20.93238
505.22        20.98481
505.66        21.06349
506.10        21.14885
506.54        21.20614
506.98        21.22932
507.42        21.23333
507.86        21.24868
508.30        21.32174
508.74        21.45835
509.18        21.63568
509.62        21.82324
510.06        21.97168
510.50        22.06523
510.94        22.12308
511.38        22.14683
511.82        22.13927
512.26        22.10893
512.70         22.0513
513.14        22.00287
513.58        22.02512
514.02        22.11823
514.46        22.25947
514.90        22.39052
515.34        22.38194
515.78        22.18623
516.22        21.99973
516.66        21.89643
517.10        21.55042
517.54        20.98471
517.98           21.78
518.42        21.60327
518.86        21.96243
519.30         22.1415
519.74         22.3595
520.18        22.56215
520.62        22.63371
521.06        22.58481
521.50        22.42611
521.93        22.21772
522.37        22.07142
522.81        22.01813
523.25        22.02988
523.69         22.0784
524.13         22.1165
524.57        22.12543
525.01        22.11996
525.45        22.09798
525.89        22.05362
526.32        21.98728
526.76        21.90112
527.20        21.80185
527.64        21.71126
528.08        21.63945
528.52        21.56003
528.96        21.47329
529.40        21.43734
529.83        21.46314
530.27        21.31797
530.71        21.39581
531.15        21.31384
531.59        21.19593
532.03        21.04251
532.46        20.91797
532.90        20.92758
533.34        21.07656
533.78        21.32262
534.22        21.57112
534.66        21.68337
535.09        21.62422
535.53        21.44501
535.97        21.20757
536.41        21.01645
536.85        20.90942
537.28        20.86268
537.72        20.85502
538.16        20.85238
538.60        20.84561
539.04        20.83558
539.47        20.84174
539.91        20.94165
540.35        21.11481
540.79        21.25944
541.22        21.35859
541.66        21.47289
542.10        21.59637
542.54        21.67925
542.97        21.74411
543.41        21.86463
543.85        22.04555
544.29        22.27608
544.72        22.50328
545.16        22.64969
545.60        22.69941
546.04        22.68404
546.47        22.68433
546.91        22.80534
547.35        23.07482
547.79        23.52532
548.22        24.01068
548.66        24.21835
549.10        24.11831
549.53        23.86968
549.97        23.62999
550.41        23.55901
550.84        23.70831
551.28        24.05303
551.72        24.51482
552.15        24.89589
552.59        25.12275
553.03        25.44015
553.46        25.50212
553.90        25.63639
554.34        25.75767
554.77        25.83143
555.21        25.85462
555.65        25.91325
556.08        26.03087
556.52        25.87382
556.96        26.06117
557.39        26.11947
557.83        26.23678
558.27        26.38255
558.70        26.54771
559.14        26.70154
559.57        26.82124
560.01        26.92359
560.45        26.99117
560.88        26.99777
561.32        26.96717
561.75        26.89621
562.19        26.83307
562.63        26.81616
563.06        26.85241
563.50        26.93161
563.93        27.03897
564.37        27.17449
564.80        27.31361
565.24        27.44252
565.68        27.54554
566.11        27.62296
566.55        27.69516
566.98        27.74875
567.42        27.82121
567.85        27.97145
568.29        28.22033
568.72        28.46416
569.16        28.72778
569.60        29.09333
570.03         29.4185
570.47        29.50272
570.90        29.46322
571.34        28.85801
571.77         29.3819
572.21        29.35201
572.64        29.30316
573.08        29.18781
573.51        28.19625
573.95         29.5302
574.38        31.41277
574.82        30.81507
575.25        30.54246
575.69        29.43932
576.12        28.87317
576.56        28.81582
576.99        29.57617
577.42        30.89069
577.86        30.76845
578.29        30.45688
578.73         31.9545
579.16        29.40908
579.60         26.9668
580.03        28.19826
580.47        30.01213
580.90        30.49392
581.33         29.9229
581.77        29.51857
582.20        32.20288
582.64        31.76457
583.07        27.06093
583.51        26.46994
583.94        25.96119
584.37        27.03887
584.81        28.26712
585.24        29.60954
585.68        30.17972
586.11        29.51382
586.54        27.57076
586.98        26.60495
587.41         26.9324
587.85         28.3245
588.28        28.89244
588.71        27.62221
589.15        26.67987
589.58        27.31113
590.01        27.55234
590.45        28.09494
590.88        28.01073
591.31        27.70435
591.75        27.72239
592.18        27.87726
592.61        28.45992
593.05        28.99577
593.48        29.99603
593.91        30.27088
594.35        27.83861
594.78        27.32223
595.21        27.35437
595.65        28.66881
596.08        29.81185
596.51        28.85697
596.94        28.32723
597.38        28.87175
597.81        30.26637
598.24        30.96782
598.68        30.49301
599.11        30.37247
599.54        31.89893
599.97        32.41576
600.41        31.02756
600.84        31.38243
601.27        32.19739
601.70        32.06142
602.14        32.29329
602.57        32.16105
603.00        32.75999
603.43        34.02155
603.87        35.22048
604.30        35.43573
604.73        34.81535
605.16        34.49432
605.60        35.44774
606.03        36.49684
606.46        37.51767
606.89        37.42936
607.32        36.74759
607.76        37.00174
608.19        38.41211
608.62        38.19819
609.05        37.84396
609.48        38.38982
609.92        38.59765
610.35        38.74744
610.78         40.5167
611.21        41.30113
611.64        39.71568
612.07        40.33896
612.50         40.7909
612.94        41.27765
613.37        41.18399
613.80        41.64222
614.23         42.2598
614.66        42.37254
615.09        42.53052
615.52        42.77617
615.96        43.16376
616.39        43.51467
616.82        43.08216
617.25        43.14315
617.68        43.81012
618.11        44.47092
618.54        45.00803
618.97        44.88405
619.40        44.36041
619.84        44.53991
620.27        45.38128
620.70         45.9785
621.13        46.19862
621.56        45.91024
621.99        45.44861
622.42        46.00499
622.85        47.31664
623.28        46.99853
623.71        46.77605
624.14        46.64157
624.57        46.74566
625.00        46.37719
625.43        46.55212
625.86        45.98947
626.29        45.90339
626.72        46.10184
627.15        45.74102
627.58        45.73211
628.01        45.71894
628.44        45.65204
628.87        45.52961
629.30        45.50213
629.73        45.51907
630.16        45.38536
630.59        45.01094
631.02         44.5787
631.45        44.11629
631.88        43.66011
632.31        43.23349
632.74        42.82943
633.17        42.45303
633.60         42.1094
634.03        41.79562
634.46        41.51394
634.89        41.23206
635.32        40.89384
635.75        40.48952
636.18        40.03587
636.61        39.56826
637.04        39.14363
637.47        38.77283
637.89        38.43785
638.32        38.11354
638.75         37.7829
639.18        37.44257
639.61        37.11781
640.04        36.80109
640.47        36.45905
640.90        36.09286
641.33        35.75948
641.76        35.40566
642.18        35.22383
642.61        35.20166
643.04        35.22604
643.47        35.21239
643.90        35.48278
644.33        35.28006
644.76        35.22719
645.18        35.14258
645.61        35.10531
646.04        35.12826
646.47        35.18462
646.90        35.30661
647.33        35.51888
647.75        35.83242
648.18        36.26939
648.61        36.71415
649.04         36.9872
649.47        37.06861
649.89        36.91337
650.32        36.77446
650.75        37.19253
651.18        38.13037
651.61        39.05618
652.03        39.71508
652.46         40.0959
652.89        40.42527
653.32        40.42949
653.74        40.32046
654.17        41.81413
654.60        42.61319
655.03        41.44644
655.46        42.70539
655.88        45.71809
656.31        48.92334
656.74        110.1239
657.16        71.38829
657.59        25.41982
658.02        19.57649
658.45        34.35178
658.87        44.69056
659.30        47.39399
659.73        46.61202
660.15        45.60994
660.58        47.74348
661.01        49.39991
661.44        48.02349
661.86         47.6476
662.29        47.78978
662.72        48.42509
663.14         49.4413
663.57        49.66681
664.00        49.22525
664.42        49.32964
664.85        50.02905
665.27        50.51864
665.70        50.65944
666.13        50.71133
666.55        50.66635
666.98         50.4491
667.41        50.19056
667.83         50.1436
668.26        50.36477
668.69        50.75709
669.11        51.15273
669.54        51.53107
669.96        51.36657
670.39        51.11569
670.82        50.79861
671.24        50.77806
671.67        51.14532
672.09        51.51897
672.52        51.98291
672.94        52.59218
673.37        52.43676
673.80        52.31016
674.22        52.07509
674.65        52.03235
675.07        52.21128
675.50         52.3674
675.92        52.47102
676.35        52.61327
676.77        52.78294
677.20         52.8889
677.62        52.96209
678.05        53.06025
678.47        53.15752
678.90        53.23904
679.32        53.34064
679.75        53.13063
680.17        53.41096
680.60        53.48886
681.02        53.56515
681.45        53.55255
681.87        53.45314
682.30        53.32507
682.72        53.22785
683.15        53.17786
683.57        53.26847
684.00        53.61526
684.42        54.29243
684.85        54.59308
685.27         54.5093
685.70        54.28836
686.12        54.04115
686.54        53.89767
686.97        53.90063
687.39         54.0234
687.82        54.19334
688.24        54.33237
688.66        54.39499
689.09        54.41222
689.51         54.4291
689.94        54.49535
690.36        54.62917
690.78        54.80434
691.21         54.9785
691.63        55.09198
692.06        55.13543
692.48        55.13877
692.90        55.14829
693.33        55.22296
693.75        55.37504
694.17        55.58401
694.60        55.81735
695.02        55.98963
695.44        56.04558
695.87        56.19629
696.29         56.4281
696.71          56.164
697.14        55.63243
697.56        56.07723
697.98        57.22704
698.41        57.28565
698.83        56.56136
699.25        56.14703
699.68        56.23626
700.10        56.26374
700.52        56.25304
700.94         56.5078
701.37        56.94244
701.79        57.32882
702.21        57.57861
702.64        57.75864
703.06        57.82878
703.48        57.72128
703.90        57.45798
704.33        57.06546
704.75          56.659
705.17        56.49963
705.59        56.65046
706.01          56.952
706.44        57.27201
706.86        57.87919
707.28        57.93612
707.70        58.09515
708.12        58.14748
708.55        58.10728
708.97        57.99237
709.39        57.86514
709.81        57.77886
710.23        57.75442
710.66        57.81075
711.08        57.99712
711.50        58.21344
711.92        58.28541
712.34        58.18212
712.76        57.94515
713.19        57.70042
713.61         57.6748
714.03        57.90479
714.45        58.30803
714.87        58.71821
715.29        58.86232
715.71        58.68603
716.13        58.31169
716.56        57.88239
716.98        57.60921
717.40        57.59243
717.82        57.83424
718.24        58.23438
718.66        58.61721
719.08        58.85546
719.50        58.80649
719.92        58.54452
720.34        58.40667
720.76        58.44301
721.19        58.37425
721.61         58.3882
722.03        58.46165
722.45        58.64382
722.87        58.90331
723.29        59.18696
723.71        59.39609
724.13         59.4979
724.55        59.51355
724.97        59.47721
725.39        59.45185
725.81         59.4574
726.23        59.47516
726.65        59.49107
727.07        59.48112
727.49        59.44442
727.91        59.40449
728.33        59.37006
728.75        59.35058
729.17        59.34957
729.59        59.35531
730.01        59.39182
730.43        59.48918
730.85        59.65138
731.27        59.89354
731.69        60.13338
732.10        60.22025
732.52        60.12813
732.94        59.92126
733.36        59.72806
733.78        59.73835
734.20        60.00001
734.62        60.56146
735.04         61.1259
735.46        61.58836
735.88        60.42546
736.30        60.76199
736.72        61.99921
737.13        62.46832
737.55        61.93793
737.97        61.74812
738.39         61.9841
738.81         61.4505
739.23        60.51267
739.65        61.22149
740.06        63.13932
740.48        63.37833
740.90        62.00667
741.32        61.37782
741.74        61.72609
742.16        61.90761
742.57        61.96412
742.99        62.59922
743.41         63.5967
743.83         64.0713
744.25        63.96788
744.67        63.83354
745.08        63.80362
745.50        63.77767
745.92        63.82104
746.34        64.03913
746.75        64.36698
747.17        64.57043
747.59        64.62596
748.01        64.67648
748.42        64.77216
748.84        64.84903
749.26         65.0057
749.68        65.43252
750.09        66.03887
750.51        66.59624
750.93        66.94662
751.35        66.76398
751.76        66.20063
752.18        66.00269
752.60        66.17199
753.01        66.08631
753.43        65.79848
753.85        65.86032
754.27        66.31169
754.68        66.92375
755.10        67.54044
755.52         68.0449
755.93        68.34541
756.35        68.41341
756.77        68.37493
757.18        68.33083
757.60        68.32634
758.02        68.68715
758.43        69.08597
758.85        68.59431
759.26        66.98845
759.68        66.89703
760.10        67.93917
760.51        69.03674
760.93        68.71405
761.34         67.6366
761.76        67.46568
762.18        66.65332
762.59        66.06293
763.01         66.4256
763.42        67.65637
763.84        68.48438
764.26        68.69298
764.67        68.66385
765.09        68.48148
765.50        68.46429
765.92        68.50684
766.33         67.6133
766.75         66.1926
767.16        65.84971
767.58        66.70161
768.00        67.93607
768.41        69.25751
768.83        70.33785
769.24        70.71702
769.66        70.17965
770.07        69.08881
770.49        67.58526
770.90        66.15964
771.32        66.95689
771.73        69.06454
772.15        68.81529
772.56        66.47726
772.97        66.09628
773.39        67.60091
773.80        68.21771
774.22        67.70774
774.63        67.54222
775.05        67.73524
775.46        67.81845
775.88         67.7442
776.29        67.58082
776.70        67.37061
777.12        67.27133
777.53        67.32327
777.95        67.43454
778.36        67.53184
778.77        67.49456
779.19        67.34464
779.60        67.08132
780.02        66.81623
780.43        66.93922
780.84         67.5613
781.26        67.66534
781.67          68.095
782.09        69.01028
782.50        70.17194
782.91        69.25384
783.33          66.905
783.74        66.09698
784.15        66.98394
784.57        67.66714
784.98        67.86078
785.39        68.05917
785.81         68.1693
786.22        67.91571
786.63        67.53908
787.04        67.53304
787.46        67.94798
787.87        68.62071
788.28         69.3199
788.70        69.63519
789.11        69.46828
789.52        69.02737
789.93        68.50507
790.35        68.02229
790.76        67.71222
791.17        67.85995
791.58        68.34415
792.00        68.52966
792.41        68.29614
792.82         68.3997
793.23        68.19259
793.65        68.11985
794.06        68.12475
794.47        69.09882
794.88         70.3688
795.29        70.15878
795.71        67.93559
796.12        66.12322
796.53         65.0783
796.94        64.68419
797.35        65.08279
797.76        66.41623
798.18          68.085
798.59        69.07714
799.00        69.02802
799.41        68.12196
799.82        66.83876
800.23        66.04353
800.64        65.95976
801.06        66.25456
801.47         66.8065
801.88        67.31917
802.29         67.6561
802.70        67.93792
803.11        68.13871
803.52        68.17794
803.93        68.06308
804.34        67.78622
804.75        67.46935
805.17        67.34846
805.58        67.53219
805.99        67.86707
806.40         68.1856
806.81        68.55846
807.22        68.69222
807.63        67.72408
808.04          66.122
808.45        65.45309
808.86        65.88316
809.27        66.65953
809.68        67.44658
810.09        67.92934
810.50        67.92368
810.91        67.53944
811.32        66.98168
811.73        66.58335
812.14        66.44434
812.55        66.43047
812.96        66.51888
813.37        66.66821
813.78         66.8392
814.19        67.10198
814.60        67.28831
815.01        67.12045
815.42        66.57346
815.83        65.68932
816.24        64.82652
816.65        64.62125
817.05        65.25019
817.46        66.49521
817.87        67.85208
818.28         68.4151
818.69        67.94653
819.10        66.67961
819.51        65.19948
819.92         64.5097
820.33        64.87691
820.74        65.97082
821.14        67.26393
821.55         67.8755
821.96        67.55901
822.37        66.48436
822.78        65.14849
823.19        64.42068
823.60        64.50116
824.00        65.10476
824.41        65.89964
824.82        66.46411
825.23        66.59146
825.64        66.43085
826.04        66.12728
826.45          65.876
826.86        65.74327
827.27        65.64297
827.68        65.54084
828.08        65.42457
828.49        65.24313
828.90        65.07469
829.31        64.93916
829.72          64.848
830.12        64.83115
830.53        64.84618
830.94        64.93624
831.35        65.15005
831.75        65.52295
832.16        65.98181
832.57        66.45362
832.97        66.75852
833.38        66.79117
833.79        66.59466
834.20        66.31997
834.60        66.19533
835.01        66.29702
835.42        66.56118
835.82        66.82008
836.23        66.71799
836.64        66.21989
837.04        65.45499
837.45        64.68951
837.86        64.34643
838.26        64.52763
838.67        65.08302
839.08         65.7787
839.48        66.18618
839.89        66.14865
840.29        65.81723
840.70        65.35369
841.11          64.993
841.51        64.81776
841.92         64.7207
842.33         64.7028
842.73        64.78547
843.14        64.91351
843.54        65.12216
843.95        65.27753
844.35        65.20435
844.76        64.86712
845.17        64.34896
845.57        63.78726
845.98        63.39817
846.38        63.23973
846.79        63.22114
847.19        63.33638
847.60        63.49471
848.00        63.67685
848.41        63.88417
848.81        64.04765
849.22        63.98343
849.62        63.71839
850.03        63.29655
850.43        62.91277
850.84        62.88478
851.24        63.32597
851.65        63.99059
852.05        64.81728
852.46         65.5333
852.86        66.03513
853.27        66.43182
853.67        66.41254
854.07        65.60992
854.48        64.12249
854.88        62.10391
855.29        60.24568
855.69        59.55317
856.10         60.2159
856.50        62.12757
856.90        64.66645
857.31         66.3309
857.71        66.60589
858.12        65.80763
858.52        64.58537
858.92        63.81467
859.33        63.70332
859.73        63.99503
860.13        64.53124
860.54        64.99577
860.94        65.30003
861.34        65.55853
861.75        65.74525
862.15        65.87531
862.55        65.93084
862.96         65.8912
863.36        65.84415
863.76        65.93523
864.17         66.1879
864.57        66.59373
864.97        67.08086
865.38        67.53378
865.78        67.94951
866.18        68.26157
866.58        68.47242
866.99        68.58925
867.39        68.65443
867.79        68.70168
868.19        68.56773
868.60        67.95924
869.00        66.87636
869.40        65.48161
869.80        64.39941
870.21        64.55945
870.61        66.20582
871.01        69.03278
871.41        72.21593
871.81        74.33245
872.22        74.96642
872.62        74.45926
873.02        73.44138
873.42        73.22479
873.82        73.83308
874.22        74.28067
874.63        74.44218
875.03        74.23783
875.43        73.57252
875.83         74.0549
876.23        72.28228
876.63        71.02306
877.03        69.71741
877.44        68.38734
877.84        109.8164
878.24        74.15029
878.64        76.02084
879.04        79.55185
879.44         73.6668
879.84        70.75519
880.24        77.96017
880.64        80.29276
881.04        79.37479
881.44        78.44044
881.84        77.71116
882.24        76.90433
882.65        76.45132
883.05        76.37582
883.45        76.68638
883.85         77.8122
884.25        79.32171
884.65        80.01249
885.05        79.60892
885.45        78.50632
885.85         77.3298
886.25        76.96387
886.65        77.57405
887.05        78.83856
887.45        80.36036
887.85         81.4261
888.25        81.74482
888.65        81.54373
889.04        80.95958
889.44         80.2497
889.84         79.5392
890.24         78.7612
890.64        78.05436
891.04        77.63994
891.44        77.54579
891.84        77.75444
892.24        78.10078
892.64         78.2401
893.04        78.10617
893.44        77.83929
893.83        77.58348
894.23        77.55857
894.63        77.79591
895.03        78.14014
895.43        78.62501
895.83         79.3037
896.23        80.11504
896.63        81.07812
897.02        81.75784
897.42        81.46139
897.82        80.15459
898.22         78.1174
898.62        76.17357
899.01        75.53101
899.41        76.39629
899.81        78.32592
900.21        80.56991
900.61        81.90667
901.00        81.98544
901.40        81.19001
901.80        79.98184
902.20        79.08094
902.59        78.71753
902.99        78.65984
903.39        78.74169
903.79        78.70033
904.18        78.45881
904.58        78.21448
904.98        78.05789
905.38        78.09159
905.77        78.31882
906.17        78.62859
906.57        78.99039
906.96        79.42972
907.36        79.85001
907.76        80.26643
908.15        80.53311
908.55        80.30306
908.95        79.59324
909.34        78.48836
909.74        77.37988
910.14        76.70799
910.53        76.60091
910.93        76.97385
911.33        77.63744
911.72        78.26049
912.12        78.61291
912.52        78.74464
912.91        78.74309
913.31        78.66023
913.70        78.55972
914.10        78.42529
914.49        78.09888
914.89        77.36461
915.29        76.30294
915.68        75.06727
916.08        74.25474
916.47        74.37889
916.87         75.4047
917.26        77.13257
917.66        78.88558
918.05        79.56696
918.45        78.90661
918.84        77.33001
919.24        75.50678
919.64        74.40623
920.03        74.32019
920.42        74.92636
920.82        76.02428
921.21         77.3782
921.61        78.59643
922.00        79.72706
922.40        80.36326
922.79        80.02893
923.19        78.83453
923.58        76.65697
923.98        73.80271
924.37        72.18578
924.77        72.71389
925.16        69.49075
925.55        72.53576
925.95        73.67608
926.34        75.72328
926.74        78.18856
927.13        80.47058
927.52        81.19773
927.92        80.19126
928.31        77.92834
928.70        75.12232
929.10        73.03975
929.49        72.03196
929.89        71.79341
930.28        72.30322
930.67        73.50252
931.07        75.10117
931.46        77.18259
931.85        78.99603
932.24        79.41829
932.64        78.28806
933.03        75.70132
933.42        72.42928
933.82        70.23368
934.21        69.65714
934.60        70.30263
934.99        71.22476
935.39        71.61945
935.78        71.37831
936.17        69.80495
936.56        66.71087
936.96        69.21132
937.35        67.81454
937.74        69.74961
938.13          71.336
938.53        72.42071
938.92        73.09451
939.31        73.61032
939.70        73.96584
940.09        73.83281
940.49        73.24887
940.88        72.38478
941.27        71.62038
941.66        71.42526
942.05         71.8243
942.44        72.63577
942.84        73.66035
943.23         74.5833
943.62        75.17162
944.01        75.50416
944.40        75.43365
944.79        74.72838
945.18        73.34322
945.57        71.22821
945.97        68.84977
946.36        67.34427
946.75        67.26443
947.14        68.21825
947.53        69.44985
947.92          70.145
948.31        70.22062
948.70        69.93747
949.09        69.48784
949.48        69.29843
949.87        69.54335
950.26        69.97527
950.65        70.54409
951.04        71.23912
951.43        71.99175
951.82         72.8236
952.21        73.39139
952.60        73.13616
952.99        72.00293
953.38        70.18984
953.77        68.28398
954.16        67.14377
954.55        66.95467
954.94        67.54987
955.33        68.38696
955.72        68.51951
956.11        67.73209
956.50        66.30604
956.89        64.93959
957.28        64.89621
957.66        66.57127
958.05        69.27857
958.44        72.20078
958.83        74.16685
959.22        74.83174
959.61        74.47723
960.00        73.43909
960.39         72.2772
960.78        71.21468
961.16        70.12194
961.55        68.91046
961.94        67.47672
962.33        65.92578
962.72        64.51193
963.11         63.4396
963.49         62.8594
963.88         62.7527
964.27        63.06576
964.66        63.72554
965.04        64.54807
965.43        65.29307
965.82        65.94745
966.21        66.46059
966.60        66.86293
966.98        67.20404
967.37        67.39451
967.76        67.48573
968.15        67.56026
968.53         67.6355
968.92        67.67055
969.31        67.59666
969.69        67.26576
970.08        66.66758
970.47        65.86301
970.86        64.97272
971.24        64.20991
971.63        63.68425
972.02        63.36397
972.40        63.18947
972.79        63.04397
973.17        62.94852
973.56        62.85971
973.95        62.86502
974.33        63.06239
974.72        63.31335
975.11        63.46663
975.49        63.51752
975.88        63.60366
976.26        63.71491
976.65        63.88063
977.04        63.71655
977.42        62.43135
977.81        60.05626
978.19        57.06768
978.58        54.79169
978.96          54.452
979.35         56.1857
979.74        59.79975
980.12        64.63175
980.51        68.04064
980.89        69.08413
981.28        68.25864
981.66        66.56593
982.05        65.33712
982.43        64.87928
982.82        64.71622
983.20        64.85027
983.59           65.31
983.97        66.13192
984.35        67.49738
984.74        68.87532
985.12        69.22048
985.51        67.95923
985.89        65.10773
986.28        61.84616
986.66        59.94816
987.04        59.99099
987.43         61.4426
987.81        62.87506
988.20        62.43332
988.58        59.49984
988.96        53.46515
989.35        45.12709
989.73        40.30887
990.12        43.78264
990.50        53.35544
990.88        62.30881
991.27        65.08354
991.65        62.26001
992.03        55.52366
992.42        48.03531
992.80        45.43583
993.18        49.12855
993.56        55.91148
993.95        62.87489
994.33        67.50771
994.71        69.28477
995.10        69.53033
995.48        68.56338
995.86         66.5267
996.24        63.61482
996.63        59.37129
997.01        54.74154
997.39        52.97491
997.77         55.3959
998.15        61.36475
998.54        67.72662
998.92          70.114
999.30        67.24171
999.68        60.19321
1000.06         50.8306
1000.45         43.8895
1000.83        41.38254
1001.21        41.80374
1001.59         43.9195
1001.97        46.42065
1002.35        48.88245
1002.73        52.21769
1003.12        55.31042
1003.50         54.4955
1003.88        48.85295
1004.26        40.50011
1004.64        33.08648
1005.02        29.53622
1005.40        29.99733
1005.78        34.32591
1006.16        43.63782
1006.54        54.70213
1006.92        60.95465
1007.30        62.25132
1007.69        61.10387
1008.07        59.89734
1008.45        58.61715
1008.83        55.94565
1009.21         47.3522
1009.59        15.20152
1009.97       -77.95496
1010.35       -208.5135
1010.73       -183.3689
1011.11        -94.9374
1011.49       -31.16669
1011.86        12.46548
1012.24        37.02023
1012.62        47.96439
1013.00         50.7844
1013.38        48.30714
1013.76        41.85929
1014.14        36.43119
1014.52        36.40335
1014.90        41.79441
1015.28        49.98997
1015.66        51.74688
1016.04        42.36339
1016.41        26.90674
1016.79        14.68135
1017.17        11.56533
1017.55        15.04786
1017.93        20.03323
1018.31        24.81769
1018.69        29.41351
1019.06         34.2868
1019.44        39.83684
1019.82        46.80351
1020.20        53.11913
1020.58        54.08974
1020.95        42.80542
1021.33       -14.12308
1021.71        1051.481
1022.09        205.0656
1022.46        164.8928
1022.84        157.0338
1023.22        165.3326
1023.60        201.3361
1023.97        580.6172
1024.35       -66.45037
1024.73        3.764839
