SpectraSmart Spectrum 2.9.0.0
--------- Device Information -----------
Spectrum Name :  反射率_0
Saving Time :  2024/04/26 00:40:57
Spectro-Module Model Name : SE2030-DUVN
Spectro-Module Serial Number : OS361AC55029948
Wavelength Start : 200
Wavelength End : 1025
Wavelength Unit : Wavelength(nm)
Spectrum Unit : Reflectance(%)
-----------Spectrum Setting ------------
Integration Time : 20ms
Average : 10
Boxcar : 0
Background removal :  enabled
linearity correction :  enabled
SC :  disabled
Intensity correction :  disabled
DWT denoise :  enabled
savitzky-golay :  disabled
FFT :  disabled
Running average :  disabled
Kalman :  disabled
High pass :  disabled
---------------BEGIN--------------------
Wavelength(nm)             Reflectance(%)
200.29               0
200.75        77.89496
201.21        72.56583
201.67        66.40059
202.13        62.69688
202.58        61.84808
203.04        63.28788
203.50        65.74786
203.96        67.03286
204.42        66.61516
204.88        65.31342
205.34        64.16696
205.80        64.30421
206.26        66.25053
206.72        71.06681
207.18         80.4513
207.64        87.95802
208.10        81.22364
208.55        69.36643
209.01        62.11623
209.47         59.8747
209.93        60.54808
210.39        63.17621
210.85        66.38319
211.31        67.22113
211.77        64.79225
212.23        60.27482
212.69        55.97383
213.14        55.54342
213.60        59.34637
214.06        66.31153
214.52         74.0285
214.98         78.8898
215.44        79.82201
215.90         77.8569
216.36        74.53359
216.81        71.86926
217.27        70.78266
217.73        70.76599
218.19         70.5014
218.65        68.15711
219.11        62.90065
219.57        53.73771
220.02        42.25661
220.48        36.87776
220.94        41.66711
221.40        54.20553
221.86        64.93867
222.32        64.17191
222.77        53.81306
223.23        39.79498
223.69        28.44908
224.15        26.23056
224.61        32.30975
225.06        43.24851
225.52         54.6301
225.98        60.68713
226.44        60.26507
226.90        55.76561
227.36         49.8795
227.81        46.23179
228.27        46.02564
228.73        47.76671
229.19        50.43735
229.65        52.61757
230.10        53.79314
230.56        54.55267
231.02        55.09967
231.48        55.58812
231.93         56.0492
232.39        56.37743
232.85        56.52245
233.31         56.5222
233.77        56.36951
234.22        56.09214
234.68        55.66519
235.14        55.01552
235.60        54.21743
236.05        53.40004
236.51        52.70522
236.97        52.24007
237.43        52.03485
237.88        52.13703
238.34        52.56537
238.80        53.50451
239.26        54.89848
239.71        56.73552
240.17        58.42636
240.63        59.54327
241.08        60.06067
241.54        60.01138
242.00        59.75633
242.46        59.79658
242.91        60.54553
243.37        62.31856
243.83        68.85419
244.28        96.29685
244.74        138.3724
245.20        128.9741
245.66        113.1452
246.11        107.1611
246.57        106.1421
247.03        107.8436
247.48        105.4704
247.94        71.26253
248.40        64.69912
248.85        66.85004
249.31        69.12553
249.77        71.05006
250.22        73.14593
250.68        76.17171
251.14        79.92837
251.59        81.14016
252.05        77.57295
252.51        71.25022
252.96         64.9829
253.42        61.54706
253.88        60.45593
254.33        60.62493
254.79        62.67919
255.25        66.78333
255.70        71.84032
256.16        77.18467
256.62        80.63095
257.07        80.01668
257.53        76.29543
257.99        70.45241
258.44        64.63402
258.90        62.14396
259.35        62.12645
259.81        63.25401
260.27        63.51546
260.72        60.98841
261.18        56.44291
261.63         50.8297
262.09        45.79127
262.55        42.58194
263.00         41.1283
263.46        40.80309
263.91        40.72546
264.37        40.22353
264.83        39.12318
265.28        37.59665
265.74        36.09493
266.19        35.03095
266.65        34.59114
267.11         34.5057
267.56        34.42798
268.02        33.94265
268.47        32.96338
268.93        31.65218
269.38        30.23858
269.84        29.31764
270.30        29.03606
270.75        29.23948
271.21        29.59169
271.66        29.59579
272.12        29.12132
272.57        28.31507
273.03        27.48108
273.48        26.99785
273.94        26.96468
274.39        27.20559
274.85        27.46143
275.31         27.3463
275.76        26.78817
276.22        25.96598
276.67        25.10225
277.13        24.60582
277.58        24.49393
278.04        24.63416
278.49        24.78862
278.95        24.68567
279.40         24.2457
279.86        23.63718
280.31        22.93768
280.77        22.36538
281.22        21.94717
281.68        21.64503
282.13        21.44088
282.59        21.34634
283.04        21.33149
283.50        21.41218
283.95        21.49535
284.41        21.45268
284.86        21.25079
285.32        20.93237
285.77        20.59518
286.22        20.45081
286.68        20.51414
287.13        20.70093
287.59        20.86022
288.04        20.76211
288.50        20.39311
288.95         19.8257
289.41        19.22863
289.86        18.75215
290.32        18.48884
290.77        18.37065
291.22        18.37476
291.68        18.42903
292.13          18.514
292.59        18.65521
293.04        18.86144
293.50        19.14458
293.95        19.48957
294.40        19.85445
294.86        20.20864
295.31        20.52314
295.77        20.78978
296.22        21.01869
296.68        21.19897
297.13        21.28696
297.58        21.30461
298.04        21.28798
298.49        21.31336
298.95        21.52899
299.40        21.94925
299.85         22.5246
300.31        23.15375
300.76         23.6873
301.21        24.06276
301.67        24.33826
302.12        24.51625
302.58        24.64905
303.03        24.74259
303.48        24.78772
303.94        24.85559
304.39        25.02765
304.84        25.31747
305.30        25.69621
305.75        26.04243
306.20        26.17483
306.66        26.08244
307.11        25.81722
307.57        25.52304
308.02        25.34792
308.47        25.35427
308.93         25.4907
309.38        25.69173
309.83        25.88202
310.29        26.01895
310.74        26.11545
311.19        26.17285
311.65        26.19165
312.10        26.17402
312.55         26.1197
313.00        26.00861
313.46        25.82164
313.91        25.56129
314.36        25.25948
314.82         25.0041
315.27        24.91418
315.72        25.01123
316.18        25.25194
316.63        25.53832
317.08        25.68642
317.53        25.64296
317.99        25.44924
318.44         25.1981
318.89        25.04193
319.35        25.01381
319.80        25.07113
320.25        25.12377
320.70        25.02768
321.16        24.75371
321.61        24.35689
322.06        23.93401
322.51        23.62536
322.97        23.45638
323.42        23.39174
323.87        23.35261
324.32        23.21055
324.78        22.93402
325.23        22.57261
325.68        22.19499
326.13        21.91201
326.59        21.75163
327.04        21.69454
327.49        21.69363
327.94        21.67374
328.39        21.61069
328.85        21.51847
329.30        21.44696
329.75        21.44834
330.20        21.53387
330.66        21.66175
331.11         21.8039
331.56        21.87663
332.01         21.8532
332.46        21.74187
332.92         21.5771
333.37        21.44423
333.82        21.36794
334.27        21.34791
334.72        21.32569
335.17        21.20086
335.63        20.95781
336.08        20.63206
336.53        20.35043
336.98         20.3143
337.43        20.55561
337.88        21.01416
338.34        21.48419
338.79        21.67281
339.24        21.48499
339.69        21.00066
340.14        20.44129
340.59        20.19748
341.05        20.35617
341.50        20.79076
341.95        21.27965
342.40        21.49725
342.85        21.37376
343.30        21.03416
343.75        20.60027
344.20        20.28252
344.66        20.15528
345.11        20.10852
345.56        20.14195
346.01        20.25751
346.46        20.41937
346.91        20.64359
347.36        20.77248
347.81        20.54796
348.26        19.95918
348.72        19.12681
349.17        18.28728
349.62        17.91523
350.07        18.12185
350.52        18.75088
350.97        19.56442
351.42        20.19216
351.87        20.51472
352.32         20.6299
352.77        20.59253
353.22        20.49533
353.67        20.38174
354.13        20.21726
354.58        20.01968
355.03        19.86602
355.48         19.7743
355.93        19.75005
356.38        19.75176
356.83        19.69606
357.28        19.56197
357.73        19.36804
358.18        19.16302
358.63        19.02264
359.08        18.96658
359.53        18.98139
359.98        19.00247
360.43        18.93077
360.88         18.7517
361.33        18.49117
361.78        18.25505
362.23        18.21431
362.68        18.38754
363.13        18.70191
363.58        19.00532
364.03        19.06354
364.48        18.82923
364.93        18.38978
365.38        17.86645
365.83        17.45429
366.28        17.22231
366.73        17.11526
367.18        17.11097
367.63        17.17012
368.08        17.25893
368.53         17.3861
368.98        17.50314
369.43        17.52762
369.88        17.44699
370.33        17.28306
370.78        17.07614
371.23        16.90573
371.68         16.8019
372.13        16.74024
372.58        16.73661
373.03        16.81206
373.48        16.95297
373.93        17.14934
374.38        17.32373
374.83         17.3553
375.28        17.22526
375.72         16.9599
376.17         16.6675
376.62         16.4868
377.07        16.45938
377.52        16.54053
377.97         16.6777
378.42        16.78327
378.87        16.82324
379.32        16.82353
379.77        16.79057
380.22        16.73093
380.67        16.65166
381.11        16.54947
381.56        16.43023
382.01        16.31672
382.46        16.21719
382.91        16.12875
383.36         16.0567
383.81        16.00385
384.26         15.9694
384.71        15.95762
385.15        15.94028
385.60        15.88477
386.05         15.7801
386.50         15.6269
386.95        15.47262
387.40        15.40194
387.85        15.42919
388.29        15.52244
388.74        15.60913
389.19        15.57428
389.64        15.40521
390.09        15.13294
390.54        14.85124
390.98        14.71804
391.43        14.77837
391.88        14.97155
392.33        15.18375
392.78        15.24713
393.23        15.13664
393.67        14.90586
394.12        14.67428
394.57        14.55578
395.02         14.5748
395.47        14.68601
395.91        14.83123
396.36        14.88949
396.81        14.82876
397.26        14.67885
397.71        14.49583
398.15        14.34511
398.60        14.26764
399.05        14.24752
399.50        14.23338
399.95        14.11313
400.39        13.93698
400.84        13.68407
401.29        13.45788
401.74        13.41675
402.18        13.60254
402.63        13.94379
403.08        14.30993
403.53        14.49208
403.97        14.44086
404.42         14.2202
404.87        13.93386
405.32        13.76388
405.76        13.76103
406.21        13.86259
406.66        14.00595
407.11        14.10997
407.55        14.15201
408.00        14.15727
408.45        14.12143
408.90        14.02645
409.34        13.88271
409.79        13.70139
410.24        13.53297
410.68        13.44734
411.13        13.45895
411.58        13.55404
412.03        13.69181
412.47        13.79657
412.92        13.83033
413.37        13.80802
413.81        13.76223
414.26        13.76148
414.71        13.81026
415.15        13.88846
415.60        13.93419
416.05         13.8709
416.49        13.68503
416.94        13.41799
417.39        13.13347
417.83        12.93844
418.28        12.87308
418.73        12.89914
419.17        12.97971
419.62        13.04736
420.07        13.08118
420.51        13.09948
420.96        13.09297
421.41        13.04298
421.85        12.94881
422.30        12.83123
422.74        12.71376
423.19        12.66453
423.64        12.68106
424.08        12.75022
424.53        12.83092
424.98        12.87811
425.42        12.88025
425.87        12.84559
426.31        12.77501
426.76        12.70953
427.21        12.63801
427.65        12.46783
428.10        12.29184
428.54        12.33202
428.99        12.60545
429.44        13.01865
429.88        13.39696
430.33        13.50898
430.77        13.31546
431.22         12.8912
431.66        12.42653
432.11        12.25853
432.56        12.42144
433.00        12.75141
433.45        13.07877
433.89        13.27763
434.34        13.24898
434.78        12.92298
435.23        12.52517
435.67        12.48522
436.12        12.76513
436.57        12.91099
437.01        12.84448
437.46         12.7596
437.90        12.67228
438.35        12.53495
438.79        12.37703
439.24        12.27849
439.68        12.26107
440.13        12.24935
440.57        12.25559
441.02        12.46445
441.46        12.76645
441.91        12.71132
442.35        12.35813
442.80        12.17646
443.24        12.14819
443.69        12.09656
444.13         11.9792
444.58        11.73935
445.02        11.43988
445.47        11.33747
445.91        11.40464
446.36        11.39316
446.80        11.28708
447.24        11.23147
447.69        11.23811
448.13        11.24531
448.58        11.25463
449.02        11.27831
449.47        11.29656
449.91        11.27809
450.36         11.2229
450.80        11.13536
451.25        11.05792
451.69        11.04777
452.13        11.11641
452.58        11.23355
453.02        11.35984
453.47        11.42637
453.91        11.42158
454.36        11.37306
454.80        11.29813
455.24        11.22779
455.69        11.18355
456.13        11.14651
456.58        11.15023
457.02        11.22803
457.46        11.38186
457.91         11.5931
458.35         11.7976
458.79        11.88349
459.24        11.83884
459.68         11.6854
460.13        11.51081
460.57        11.41838
461.01        11.44704
461.46        11.55634
461.90        11.69138
462.34        11.75133
462.79        11.71167
463.23        11.60186
463.68        11.48461
464.12         11.4614
464.56        11.56029
465.01        11.74858
465.45          11.938
465.89        12.04354
466.34        12.05593
466.78        11.93646
467.22        11.78096
467.67        11.86547
468.11        12.15468
468.55        12.28596
468.99        12.22576
469.44        12.17274
469.88        12.17473
470.32        12.27192
470.77        12.42165
471.21        12.46526
471.65        12.38544
472.10        12.31086
472.54        12.27469
472.98        12.29257
473.42         12.3765
473.87        12.52236
474.31         12.6883
474.75        12.80189
475.20        12.84954
475.64        12.84356
476.08        12.82196
476.52          12.845
476.97         12.9264
477.41        13.04972
477.85        13.17381
478.29        13.25855
478.74        13.29389
479.18         13.2274
479.62         13.1045
480.06        13.21729
480.50        13.30409
480.95        13.39186
481.39        13.36759
481.83        13.33473
482.27        13.29599
482.72        13.14632
483.16        12.96071
483.60        13.04789
484.04         13.4219
484.48        13.65302
484.93         13.8906
485.37        14.35318
485.81        14.87752
486.25        14.99096
486.69        19.38839
487.14        15.35801
487.58        10.28256
488.02        12.72003
488.46        14.22906
488.90        14.32485
489.34        14.53196
489.79        14.45341
490.23        15.08202
490.67        15.54278
491.11        15.61718
491.55        15.54001
491.99        15.29446
492.43        15.10141
492.88        15.03589
493.32        15.06604
493.76        15.09741
494.20        15.28028
494.64        15.56617
495.08        15.91015
495.52        16.26505
495.96        16.57839
496.41         16.7871
496.85        16.88813
497.29         16.8984
497.73        16.68347
498.17        16.45652
498.61         16.6182
499.05        17.17564
499.49        17.33555
499.93        17.50749
500.37        17.71194
500.82        17.86916
501.26        18.11067
501.70        18.33758
502.14        18.41313
502.58        18.34797
503.02        18.33737
503.46        18.40103
503.90        18.42962
504.34        18.43215
504.78        18.46908
505.22        18.54436
505.66        18.65033
506.10        18.75775
506.54        18.81364
506.98        18.80998
507.42        18.76459
507.86        18.72962
508.30        18.78724
508.74        18.94867
509.18        19.17957
509.62        19.42339
510.06        19.58643
510.50        19.64416
510.94        19.63492
511.38        19.58311
511.82         19.5269
512.26        19.48779
512.70        19.44909
513.14        19.44408
513.58         19.5396
514.02        19.72858
514.46         19.9623
514.90        20.15782
515.34        20.25175
515.78        20.02197
516.22        19.81194
516.66        19.65837
517.10        19.25042
517.54        18.62049
517.98        19.39559
518.42         19.1829
518.86        19.54617
519.30        19.74695
519.74        20.00786
520.18        20.25543
520.62        20.34054
521.06        20.26763
521.50        20.05731
521.93        19.78622
522.37        19.59488
522.81        19.52521
523.25        19.54309
523.69        19.61656
524.13        19.69247
524.57        19.74747
525.01        19.79545
525.45        19.83129
525.89        19.84358
526.32        19.82782
526.76        19.78346
527.20        19.70991
527.64        19.61908
528.08        19.52258
528.52        19.40423
528.96        19.27836
529.40        19.21794
529.83        19.23972
530.27        19.12955
530.71        19.23666
531.15        19.21045
531.59        19.15552
532.03        19.06933
532.46         19.0012
532.90        19.03291
533.34        19.16542
533.78        19.36632
534.22        19.55273
534.66        19.60423
535.09        19.49568
535.53        19.27621
535.97        19.01908
536.41        18.84428
536.85        18.78975
537.28         18.8266
537.72        18.91294
538.16         18.9791
538.60        19.00522
539.04        18.99987
539.47        18.99694
539.91        19.09423
540.35        19.27841
540.79         19.4449
541.22         19.5649
541.66        19.67445
542.10        19.76358
542.54        19.79572
542.97        19.80055
543.41        19.85814
543.85        19.98022
544.29        20.15737
544.72        20.34213
545.16        20.46772
545.60        20.52142
546.04        20.51988
546.47        20.54006
546.91        20.71267
547.35        21.04442
547.79        21.49014
548.22         21.9236
548.66        22.13014
549.10        22.08323
549.53        21.88669
549.97        21.66973
550.41        21.57494
550.84        21.65293
551.28        21.87253
551.72        22.18201
552.15        22.48246
552.59        22.72798
553.03        22.94229
553.46         23.1161
553.90         23.2536
554.34        23.36501
554.77        23.41965
555.21        23.43021
555.65        23.49261
556.08        23.62902
556.52         23.5305
556.96        23.74458
557.39        23.82079
557.83        23.92612
558.27        24.03925
558.70        24.16469
559.14        24.29344
559.57        24.40985
560.01        24.52394
560.45        24.60884
560.88        24.62278
561.32        24.58556
561.75        24.50277
562.19        24.42943
562.63        24.41516
563.06        24.46865
563.50        24.57663
563.93        24.72052
564.37        24.88137
564.80        25.03743
565.24        25.20244
565.68         25.3461
566.11        25.42502
566.55        25.45532
566.98        25.44194
567.42        25.44734
567.85        25.56312
568.29         25.8168
568.72        26.10635
569.16        26.42119
569.60        26.77293
570.03        27.01832
570.47        27.01839
570.90        26.94684
571.34        26.29495
571.77        26.86885
572.21         26.9374
572.64        27.05773
573.08        26.69378
573.51        25.99107
573.95        27.12714
574.38        28.72965
574.82         28.3223
575.25        27.89305
575.69        27.03918
576.12        26.75641
576.56        26.69301
576.99        27.14923
577.42        28.42986
577.86        28.19343
578.29        28.26866
578.73        29.46731
579.16        27.17567
579.60        24.92834
580.03         26.1194
580.47        27.93441
580.90          28.148
581.33        27.39652
581.77        27.47479
582.20        29.69368
582.64        29.14932
583.07        25.06687
583.51        24.56974
583.94        24.12729
584.37         25.1034
584.81        26.16792
585.24        27.38565
585.68        27.98285
586.11        27.21668
586.54         25.3313
586.98        24.67773
587.41         24.9677
587.85        25.99402
588.28        26.70962
588.71        25.41041
589.15        24.59879
589.58        25.18236
590.01         25.3649
590.45        25.93305
590.88        25.97335
591.31        25.68321
591.75        25.57096
592.18        25.62681
592.61        26.17047
593.05        26.47972
593.48        27.75948
593.91        27.80301
594.35         25.6767
594.78        25.27851
595.21        25.39852
595.65        26.67538
596.08        27.69048
596.51        26.69383
596.94        26.05039
597.38        26.46062
597.81        27.73967
598.24        28.41516
598.68        27.95144
599.11        28.09654
599.54        29.35619
599.97        30.15601
600.41        28.81647
600.84         29.2284
601.27        30.01812
601.70        29.85928
602.14        30.00887
602.57        29.89417
603.00        30.52475
603.43        31.65247
603.87        32.81042
604.30        32.87185
604.73        32.05083
605.16        31.93282
605.60        32.68768
606.03         33.6894
606.46        34.61394
606.89        34.77826
607.32        34.22169
607.76        34.75591
608.19        35.90238
608.62        35.61561
609.05        35.21258
609.48        35.67902
609.92        35.80848
610.35         36.3251
610.78        37.95011
611.21        38.33438
611.64        37.27028
612.07        37.87836
612.50        38.30775
612.94        38.82538
613.37        38.88689
613.80        39.24291
614.23        39.89235
614.66        40.15488
615.09        40.57572
615.52        40.81433
615.96        40.97435
616.39        41.23734
616.82        40.90274
617.25        41.18345
617.68        41.79594
618.11        42.46275
618.54        42.96564
618.97        42.88227
619.40        42.45637
619.84        42.62586
620.27        43.37893
620.70        43.99791
621.13        44.33264
621.56        44.13477
621.99         43.7235
622.42        44.19347
622.85         45.3263
623.28        45.17982
623.71        44.63828
624.14        45.00286
624.57        44.60722
625.00        44.33232
625.43        44.68346
625.86        44.33599
626.29        44.40144
626.72        44.76123
627.15        44.43566
627.58        44.41156
628.01        44.32822
628.44        44.22971
628.87        44.13258
629.30        44.10096
629.73        44.05157
630.16        44.01741
630.59        43.49155
631.02          42.989
631.45        42.45447
631.88        42.00053
632.31        41.65592
632.74        41.39468
633.17         41.1684
633.60         40.8825
634.03        40.51157
634.46        40.08789
634.89        39.63645
635.32         39.1967
635.75        38.78581
636.18        38.39029
636.61        38.00851
637.04        37.63825
637.47        37.27181
637.89         36.9124
638.32         36.5466
638.75        36.17456
639.18        35.80283
639.61        35.44307
640.04        35.09344
640.47        34.74565
640.90         34.4034
641.33        34.06798
641.76         33.7613
642.18        33.56921
642.61        33.50012
643.04        33.45174
643.47        33.36095
643.90        33.55784
644.33        33.33339
644.76        33.27205
645.18        33.18985
645.61        33.14429
646.04        33.13947
646.47         33.1495
646.90        33.22107
647.33        33.40287
647.75        33.71465
648.18         34.1762
648.61        34.63791
649.04        34.89129
649.47        34.91196
649.89         34.5956
650.32        34.26756
650.75        34.72576
651.18        35.87777
651.61        36.84137
652.03        37.33201
652.46        37.58507
652.89         37.8692
653.32        37.85846
653.74        37.74513
654.17        39.47979
654.60        39.92168
655.03        39.13893
655.46        40.16523
655.88        42.59667
656.31        45.57544
656.74        102.9097
657.16        67.07148
657.59        23.77457
658.02        18.24079
658.45        31.98538
658.87        41.59371
659.30        43.94582
659.73        43.52075
660.15        42.26719
660.58        44.18039
661.01         45.7928
661.44        44.88386
661.86        44.69427
662.29        44.79287
662.72        45.61099
663.14        46.97966
663.57        47.26476
664.00        46.62256
664.42        46.67297
664.85        47.48833
665.27        48.07983
665.70        48.28296
666.13         48.3907
666.55        48.38934
666.98        48.20615
667.41        47.98968
667.83        48.01061
668.26        48.33064
668.69        48.85154
669.11        49.38921
669.54        49.88187
669.96        49.80312
670.39        49.61643
670.82        49.36473
671.24        49.37539
671.67        49.72993
672.09         50.2765
672.52         50.8004
672.94        51.36221
673.37         51.0705
673.80        51.10645
674.22        51.25763
674.65          51.346
675.07         51.3656
675.50        51.32688
675.92        51.30122
676.35        51.42371
676.77        51.71397
677.20        52.08378
677.62        52.45351
678.05        52.69355
678.47        52.75833
678.90        52.69553
679.32        52.60715
679.75        52.53804
680.17        52.72433
680.60        53.01666
681.02        53.35277
681.45        53.35116
681.87        53.05439
682.30        52.90617
682.72        52.97509
683.15        53.01206
683.57        53.09081
684.00        53.41288
684.42         54.0871
684.85        54.45937
685.27         54.5249
685.70        54.47589
686.12        54.38968
686.54         54.3736
686.97        54.45964
687.39        54.62662
687.82        54.80611
688.24         54.9323
688.66        54.96866
689.09        54.94324
689.51        54.92649
689.94        55.00801
690.36        55.21325
690.78         55.5091
691.21        55.81454
691.63        56.00414
692.06        56.05334
692.48        56.00966
692.90        55.96276
693.33        56.04135
693.75        56.27581
694.17        56.62635
694.60        57.01817
695.02        57.30521
695.44         57.4164
695.87        57.55527
696.29        57.74702
696.71         57.5586
697.14        57.20721
697.56        57.73497
697.98        58.84767
698.41        59.04757
698.83        58.28292
699.25        57.89348
699.68        57.96786
700.10         57.9686
700.52        57.92595
700.94        58.15354
701.37        58.58577
701.79        59.01336
702.21        59.35102
702.64        59.65525
703.06        59.87256
703.48        59.91226
703.90        59.78447
704.33        59.51918
704.75        59.21385
705.17        59.10682
705.59        59.26254
706.01        59.52346
706.44        59.79404
706.86        60.43214
707.28        60.58115
707.70        60.88551
708.12        61.08519
708.55        61.16405
708.97        61.11008
709.39         60.9356
709.81        60.73878
710.23        60.67973
710.66        60.80281
711.08        61.09707
711.50        61.42254
711.92        61.56476
712.34        61.47781
712.76        61.21363
713.19        60.93747
713.61        60.94198
714.03        61.27385
714.45        61.84021
714.87         62.4168
715.29        62.65138
715.71         62.4745
716.13        62.00058
716.56        61.45231
716.98        61.23135
717.40        61.42769
717.82         61.8577
718.24         62.5195
718.66        62.89219
719.08        62.90503
719.50         63.0819
719.92         62.7782
720.34        62.68811
720.76        62.66272
721.19        62.63701
721.61        62.78459
722.03        62.90466
722.45        63.04361
722.87        63.24285
723.29        63.46807
723.71        63.62606
724.13        63.69457
724.55        63.68702
724.97        63.64991
725.39        63.66854
725.81        63.76031
726.23        63.89963
726.65        64.03309
727.07        64.07292
727.49         64.0106
727.91        63.89361
728.33        63.77915
728.75        63.76114
729.17         63.8632
729.59        64.03685
730.01        64.27747
730.43        64.57054
730.85        64.89578
731.27         65.2804
731.69        65.61115
732.10        65.68675
732.52        65.48002
732.94        65.08481
733.36        64.72527
733.78        64.64287
734.20        64.90177
734.62        65.71191
735.04        66.76595
735.46        66.89862
735.88        66.28584
736.30        66.44295
736.72        67.40036
737.13        67.85226
737.55        67.58173
737.97        67.64748
738.39        68.01392
738.81        67.36223
739.23        66.11788
739.65        66.71756
740.06         68.7443
740.48        68.95396
740.90        67.44527
741.32        66.88532
741.74        67.48231
742.16        67.84573
742.57        67.98793
742.99        68.66158
743.41        69.65908
743.83        70.22768
744.25        70.24759
744.67        69.91019
745.08        69.46584
745.50        69.32589
745.92        69.60764
746.34        70.16792
746.75        70.81299
747.17        71.18771
747.59        71.21338
748.01        71.08286
748.42        70.96507
748.84           70.91
749.26        71.08149
749.68         71.8225
750.09        72.89165
750.51        73.48466
750.93        73.49756
751.35        73.24987
751.76         72.9092
752.18        72.79504
752.60        72.90542
753.01        72.85155
753.43         72.6707
753.85        72.78922
754.27        73.23473
754.68        73.80738
755.10        74.37429
755.52        74.86493
755.93        75.20286
756.35        75.34135
756.77        75.37004
757.18        75.37675
757.60        75.39343
758.02        75.67695
758.43        75.94749
758.85        75.61472
759.26         73.8289
759.68        74.01469
760.10        75.56774
760.51        76.18246
760.93         75.5217
761.34        74.71156
761.76        74.08234
762.18        73.65355
762.59        73.62426
763.01        73.95474
763.42        74.60774
763.84        75.43417
764.26         76.2324
764.67        76.30763
765.09        75.75175
765.50        75.67906
765.92        75.98218
766.33        74.78394
766.75        73.35356
767.16        72.86655
767.58        73.74128
768.00        75.29117
768.41        77.13748
768.83        78.40769
769.24        78.70792
769.66        77.97738
770.07        76.73031
770.49        75.12556
770.90        73.71172
771.32        74.62766
771.73        77.16179
772.15        76.88708
772.56        74.19646
772.97        73.58013
773.39         75.0121
773.80        75.57696
774.22        75.03637
774.63        74.90404
775.05        75.18586
775.46        75.41878
775.88        75.53246
776.29        75.55885
776.70         75.5043
777.12        75.50276
777.53        75.58056
777.95         75.6316
778.36        75.62321
778.77        75.48474
779.19        75.25143
779.60        75.00489
780.02        74.82221
780.43        74.81789
780.84         75.1335
781.26        75.45216
781.67        75.77463
782.09        76.95843
782.50        78.38966
782.91        77.39713
783.33        74.72538
783.74        73.84568
784.15        74.93748
784.57         75.8266
784.98        76.14105
785.39        76.24651
785.81        76.10001
786.22        75.78719
786.63        75.43452
787.04        75.47284
787.46        75.94574
787.87        76.63818
788.28        77.20602
788.70         78.1189
789.11        77.46136
789.52        76.91234
789.93        76.21569
790.35        75.79261
790.76         75.7307
791.17        75.96474
791.58         76.3987
792.00        76.68279
792.41        76.70309
792.82        76.83476
793.23        77.11372
793.65        76.59804
794.06         75.7541
794.47        76.84205
794.88        79.03433
795.29        78.87782
795.71        76.61301
796.12        74.00796
796.53        73.35703
796.94         72.9415
797.35          73.372
797.76        74.67757
798.18        76.27084
798.59        77.31129
799.00        77.41525
799.41        76.64756
799.82         75.4528
800.23        74.72278
800.64        74.67136
801.06        74.94511
801.47        75.43076
801.88        75.84711
802.29        76.06795
802.70        76.21421
803.11        76.28594
803.52         76.2485
803.93        76.13617
804.34        75.92606
804.75        75.70563
805.17        75.76662
805.58        76.20119
805.99        76.50851
806.40        76.60223
806.81        77.37328
807.22        78.26825
807.63        77.01241
808.04        74.28488
808.45        73.13313
808.86        73.81657
809.27        74.79066
809.68         75.6138
810.09          76.158
810.50        76.20409
810.91        75.82227
811.32        75.24752
811.73        74.85906
812.14        74.76861
812.55        74.82093
812.96        75.00131
813.37        75.27699
813.78        75.59642
814.19           76.03
814.60        76.34462
815.01        76.16139
815.42        75.44647
815.83        74.27308
816.24        73.09869
816.65        72.73339
817.05        73.40897
817.46        74.86061
817.87        76.49015
818.28        77.22182
818.69        76.76259
819.10        75.38562
819.51        73.75099
819.92        72.98902
820.33        73.39925
820.74         74.6119
821.14        76.02503
821.55        76.62235
821.96        76.14261
822.37        74.84132
822.78        73.28582
823.19        72.41288
823.60        72.45213
824.00         73.1232
824.41         74.0495
824.82        74.73487
825.23        74.94384
825.64         74.8448
826.04        74.61368
826.45        74.50265
826.86        74.57893
827.27        74.71516
827.68        74.82996
828.08        74.84351
828.49        74.66907
828.90        74.41764
829.31        74.10845
829.72        73.76048
830.12        73.44101
830.53        73.13102
830.94        72.95921
831.35        73.08381
831.75        73.55495
832.16        74.26936
832.57        75.07214
832.97        75.61432
833.38        75.71988
833.79        75.47938
834.20        75.09927
834.60        74.90488
835.01         75.0012
835.42        75.27843
835.82        75.57884
836.23        75.55537
836.64        75.17226
837.04        74.58155
837.45         73.9735
837.86        73.64546
838.26        73.68501
838.67        73.95186
839.08        74.37326
839.48        74.80648
839.89          75.133
840.29        75.39637
840.70        75.50526
841.11        75.30672
841.51        74.81149
841.92        74.04985
842.33        73.24569
842.73        72.78558
843.14        72.73829
843.54        73.05061
843.95        73.48653
844.35        73.69941
844.76        73.57542
845.17        73.23398
845.57        72.83872
845.98        72.64928
846.38        72.72639
846.79        72.94582
847.19        73.22148
847.60        73.32772
848.00        73.23887
848.41        73.02021
848.81          72.758
849.22        72.49276
849.62        72.30408
850.03         72.1767
850.43        72.19231
850.84        72.42387
851.24        72.90307
851.65          73.422
852.05        74.01601
852.46        74.56485
852.86        75.02007
853.27        75.45495
853.67        75.47186
854.07        74.58665
854.48        72.88522
854.88        70.55494
855.29        68.41855
855.69         67.6688
856.10        68.52274
856.50        70.84553
856.90        73.82233
857.31        75.54606
857.71        75.40408
858.12        73.87683
858.52        71.89846
858.92        70.70869
859.33        70.58205
859.73        71.17717
860.13        72.23175
860.54        73.18858
860.94        73.84607
861.34        74.35261
861.75        74.71181
862.15        75.00988
862.55        75.24049
862.96        75.31283
863.36        75.28527
863.76        75.26407
864.17        75.28635
864.57        75.41284
864.97        75.60332
865.38        75.76591
865.78        75.92912
866.18         76.0325
866.58        76.17262
866.99        76.50416
867.39        77.09404
867.79        77.92273
868.19         78.6417
868.60        78.60542
869.00        77.69424
869.40        76.11949
869.80        74.64871
870.21        74.47688
870.61         75.9418
871.01        78.66384
871.41        81.76839
871.81        83.74541
872.22        84.15012
872.62        83.40651
873.02        82.18865
873.42        81.75705
873.82        82.23195
874.22        82.84172
874.63        83.37045
875.03        83.51204
875.43         83.0634
875.83        83.19324
876.23        81.90434
876.63        81.22917
877.03        80.93355
877.44         81.1097
877.84        105.3933
878.24        86.82079
878.64          87.911
879.04        89.26256
879.44        85.52327
879.84        83.62094
880.24        87.75894
880.64        89.39355
881.04        89.36247
881.44        89.00867
881.84        88.22404
882.24        87.05283
882.65        86.20258
883.05        86.23193
883.45        87.22993
883.85        89.30392
884.25        91.73123
884.65        92.94698
885.05        92.51546
885.45        90.97135
885.85        89.16017
886.25        88.25137
886.65        88.50192
887.05          89.528
887.45        90.93457
887.85        92.00651
888.25        92.44976
888.65        92.52081
889.04        92.30859
889.44         91.9854
889.84        91.62518
890.24        91.11517
890.64        90.62277
891.04        90.44056
891.44        90.60081
891.84        91.08405
892.24        91.58008
892.64        91.49956
893.04        90.78444
893.44        89.71329
893.83        88.73834
894.23        88.51492
894.63        89.13923
895.03        90.33212
895.43         91.8727
895.83        93.32732
896.23        94.43382
896.63        95.30415
897.02        95.64552
897.42        95.02483
897.82        93.51067
898.22        91.30535
898.62        89.17097
899.01        88.22419
899.41        88.67974
899.81        90.16547
900.21         92.0324
900.61        93.19473
901.00        93.32776
901.40        92.76488
901.80        91.87473
902.20        91.23793
902.59         91.0509
902.99        91.12164
903.39        91.31896
903.79        91.43951
904.18        91.42043
904.58        91.40424
904.98        91.49077
905.38          91.813
905.77        92.34115
906.17        92.94043
906.57        93.48154
906.96        93.84434
907.36        93.92792
907.76        93.81155
908.15        93.44183
908.55        92.62557
908.95        91.45148
909.34        89.98412
909.74          88.639
910.14        87.87009
910.53        87.81386
910.93         88.4175
911.33         89.4179
911.72        90.31728
912.12        90.83582
912.52        91.02029
912.91        91.10399
913.31        91.42018
913.70        92.08129
914.10        93.00934
914.49        93.81416
914.89         93.5358
915.29        91.99584
915.68        89.63444
916.08        87.54228
916.47         86.6969
916.87        87.16631
917.26        88.61623
917.66        90.29222
918.05        90.98146
918.45        90.35938
918.84        88.87801
919.24        87.23737
919.64        86.43838
920.03        86.76651
920.42        87.87174
920.82        89.38412
921.21        90.81357
921.61        91.73391
922.00        92.29747
922.40        92.39301
922.79        91.89101
923.19        90.91653
923.58        89.40388
923.98        87.53143
924.37        86.26648
924.77         86.1902
925.16        84.31126
925.55        85.89394
925.95        86.89946
926.34        88.76919
926.74         91.0501
927.13        93.20614
927.52        94.06523
927.92        93.48292
928.31        91.84901
928.70        89.64816
929.10        87.74628
929.49         86.4194
929.89        85.48017
930.28        85.17533
930.67        85.90473
931.07        87.50153
931.46        89.89371
931.85        92.15595
932.24        92.88982
932.64        91.83979
933.03        89.24232
933.42        85.83042
933.82        83.32211
934.21        82.31461
934.60        82.42905
934.99         83.0061
935.39        83.41124
935.78        83.54297
936.17        83.15427
936.56        82.05833
936.96        83.63049
937.35        82.66414
937.74        83.12146
938.13        83.51036
938.53        84.21556
938.92        85.29975
939.31        86.82642
939.70        88.41412
940.09        88.88776
940.49        87.91237
940.88        85.99802
941.27        84.02245
941.66         83.0059
942.05         83.0788
942.44        83.91798
942.84         85.1454
943.23        86.18061
943.62        86.69064
944.01        86.81322
944.40        86.64697
944.79        86.33836
945.18        85.94273
945.57        85.38963
945.97        84.59534
946.36        83.53546
946.75        82.45236
947.14        81.54132
947.53        81.05564
947.92        81.17324
948.31        81.85223
948.70        83.07779
949.09        84.53952
949.48          85.462
949.87        85.47729
950.26        84.69254
950.65        83.64265
951.04        83.19891
951.43        83.55576
951.82        84.48061
952.21        85.38251
952.60        85.30999
952.99        84.07331
953.38        82.01891
953.77        79.89331
954.16        78.74796
954.55        78.80836
954.94        79.83777
955.33        81.08018
955.72        81.26969
956.11        80.10637
956.50        77.90949
956.89        75.71956
957.28        75.43915
957.66        77.60201
958.05        81.31067
958.44        85.18642
958.83        87.19863
959.22        86.86902
959.61        84.81313
960.00        81.92204
960.39        79.65273
960.78        78.52328
961.16        78.15779
961.55        78.19876
961.94        78.04211
962.33        77.50034
962.72        76.87324
963.11        76.38063
963.49        76.24153
963.88        76.47651
964.27        76.99403
964.66        77.56239
965.04        77.77724
965.43        77.44291
965.82          76.775
966.21        76.16227
966.60        76.12017
966.98        76.72906
967.37        77.74944
967.76        78.89468
968.15        79.56998
968.53        79.54697
968.92        79.00381
969.31        78.11581
969.69        77.06441
970.08        75.96292
970.47        74.79713
970.86        73.69794
971.24        72.92134
971.63        72.58087
972.02        72.66843
972.40         73.1731
972.79        73.98875
973.17        75.09505
973.56        76.34243
973.95        77.51389
974.33        78.18944
974.72        78.12116
975.11        77.35835
975.49        76.28233
975.88        75.50941
976.26        75.11149
976.65        74.99637
977.04        74.70661
977.42        73.28667
977.81        70.69588
978.19        67.51744
978.58        65.15089
978.96        64.86391
979.35        66.77566
979.74        70.63264
980.12        75.69248
980.51        79.09583
980.89        79.86628
981.28        78.61855
981.66        76.43519
982.05        74.75385
982.43        73.91077
982.82        73.43468
983.20        73.40051
983.59        73.98642
983.97        75.24316
984.35        77.31012
984.74        79.50159
985.12        80.43739
985.51         79.2982
985.89        76.23309
986.28        72.39468
986.66        69.62856
987.04        68.71292
987.43        69.23168
987.81        70.08828
988.20        69.86452
988.58        68.10126
988.96        64.46521
989.35        59.78476
989.73        58.43045
990.12        63.11122
990.50        71.66172
990.88        78.70461
991.27        80.25821
991.65        76.96078
992.03        70.07963
992.42        62.44775
992.80        59.26365
993.18        61.91082
993.56        67.56118
993.95        73.55708
994.33        77.50359
994.71        78.88831
995.10        78.95307
995.48        77.87352
995.86        75.60974
996.24        72.28989
996.63        67.43137
997.01        62.17512
997.39        60.18121
997.77        62.96897
998.15        69.82626
998.54        77.18403
998.92         80.0714
999.30        77.07986
999.68        69.40555
1000.06        59.32031
1000.45        52.41707
1000.83        50.90836
1001.21        52.86372
1001.59        56.46569
1001.97        59.85856
1002.35        62.53391
1002.73        65.44782
1003.12        67.59978
1003.50        66.01623
1003.88        60.14336
1004.26        52.05489
1004.64        44.74747
1005.02        40.28604
1005.40        38.51635
1005.78        38.85184
1006.16        43.07418
1006.54        52.72615
1006.92        63.12504
1007.30        70.51246
1007.69        74.14469
1008.07        75.06631
1008.45        73.76505
1008.83        68.68127
1009.21        53.28362
1009.59        8.020523
1009.97       -99.34265
1010.35       -223.6613
1010.73       -174.6186
1011.11       -79.74391
1011.49        -17.8579
1011.86        23.54052
1012.24        46.43909
1012.62        55.97733
1013.00         57.4682
1013.38         52.9664
1013.76        44.71421
1014.14        41.50955
1014.52        50.96355
1014.90        74.85603
1015.28        105.9118
1015.66        120.4999
1016.04        105.0666
1016.41        66.74989
1016.79        27.54724
1017.17        9.240478
1017.55        9.340128
1017.93        15.86104
1018.31        23.50081
1018.69        30.34564
1019.06        36.81067
1019.44        44.29079
1019.82        54.30241
1020.20        65.69195
1020.58        74.99257
1020.95        76.96397
1021.33        46.69411
1021.71        713.0038
1022.09        186.5927
1022.46        162.8619
1022.84        159.9345
1023.22        169.4181
1023.60        203.6061
1023.97        558.3085
1024.35       -42.13616
1024.73        30.03283
