SpectraSmart Spectrum 2.9.0.0
--------- Device Information -----------
Spectrum Name :  反射率_0
Saving Time :  2024/04/26 00:36:11
Spectro-Module Model Name : SE2030-DUVN
Spectro-Module Serial Number : OS361AC55029948
Wavelength Start : 200
Wavelength End : 1025
Wavelength Unit : Wavelength(nm)
Spectrum Unit : Reflectance(%)
-----------Spectrum Setting ------------
Integration Time : 20ms
Average : 10
Boxcar : 0
Background removal :  enabled
linearity correction :  enabled
SC :  disabled
Intensity correction :  disabled
DWT denoise :  enabled
savitzky-golay :  disabled
FFT :  disabled
Running average :  disabled
Kalman :  disabled
High pass :  disabled
---------------BEGIN--------------------
Wavelength(nm)             Reflectance(%)
200.29               0
200.75        85.46057
201.21        80.64008
201.67        75.24859
202.13        72.31659
202.58        72.19903
203.04        74.26377
203.50        77.05341
203.96         78.2001
204.42        77.25353
204.88        75.20299
205.34        73.43909
205.80        73.42815
206.26        75.85714
206.72        82.27899
207.18        95.35764
207.64        107.2575
208.10        100.4371
208.55        85.28403
209.01        75.82957
209.47        73.33548
209.93        75.06955
210.39        79.59068
210.85        84.74094
211.31        85.81818
211.77        81.33858
212.23        73.19079
212.69        64.88644
213.14        61.80551
213.60        64.76553
214.06        72.34956
214.52        81.31152
214.98        86.62279
215.44        86.95218
215.90        83.88546
216.36        79.70212
216.81        77.45524
217.27        78.04616
217.73        80.27299
218.19        82.31255
218.65        81.88005
219.11        78.17625
219.57        70.64333
220.02        60.73589
220.48         55.9053
220.94        59.86447
221.40        70.40976
221.86        79.51498
222.32        79.09349
222.77        70.56059
223.23        58.96506
223.69        49.52454
224.15        47.58039
224.61        52.47007
225.06         61.4669
225.52        70.74086
225.98        75.28572
226.44        74.23665
226.90        69.72858
227.36        64.49944
227.81        62.26503
228.27        64.06615
228.73        68.20217
229.19        73.11764
229.65        76.55663
230.10        77.87777
230.56        78.16874
231.02        77.91022
231.48        77.61482
231.93         77.4185
232.39        77.11242
232.85        76.89155
233.31        77.22352
233.77        78.12376
234.22        79.57288
234.68        80.88391
235.14        80.71855
235.60         78.8035
236.05        75.63512
236.51        72.25146
236.97        70.00721
237.43        69.19363
237.88        69.63813
238.34        70.78436
238.80        71.49458
239.26         71.0763
239.71        69.97456
240.17        68.37958
240.63        67.30056
241.08        67.17332
241.54        67.59892
242.00          68.294
242.46        68.82681
242.91         69.2461
243.37        69.57906
243.83        71.52141
244.28        85.93359
244.74        116.5297
245.20        116.6878
245.66         109.005
246.11        107.8574
246.57        112.5748
247.03        128.4562
247.48        172.7997
247.94         145.131
248.40        96.73101
248.85        82.26472
249.31        78.50709
249.77        79.23057
250.22        82.83481
250.68        89.65541
251.14        99.43166
251.59        105.4087
252.05        101.2044
252.51        90.22254
252.96        78.32241
253.42        70.94807
253.88        67.64847
254.33        66.53268
254.79        67.95763
255.25        71.75579
255.70        76.74051
256.16        82.42175
256.62        86.46029
257.07        86.53136
257.53        83.54478
257.99        78.34286
258.44        73.12662
258.90        71.32898
259.35        71.94543
259.81        73.62415
260.27        74.13145
260.72        71.34205
261.18        66.20391
261.63        59.79783
262.09        54.06563
262.55        50.53067
263.00        49.08022
263.46        48.96916
263.91        49.09212
264.37        48.61483
264.83        47.33851
265.28        45.50202
265.74        43.69147
266.19         42.4893
266.65        42.12335
267.11        42.23178
267.56        42.32853
268.02        41.87754
268.47        40.76799
268.93        39.21255
269.38        37.54677
269.84         36.5541
270.30        36.42501
270.75        36.93102
271.21        37.59608
271.66        37.70741
272.12        37.10347
272.57        36.01715
273.03         34.8665
273.48        34.19059
273.94        34.13484
274.39        34.44196
274.85        34.83119
275.31         34.8786
275.76        34.47063
276.22        33.79861
276.67        33.00207
277.13        32.38283
277.58        31.96086
278.04        31.68181
278.49        31.40949
278.95        31.03876
279.40        30.50802
279.86        29.92776
280.31        29.32977
280.77        28.87675
281.22        28.55124
281.68        28.33661
282.13        28.15121
282.59        27.93302
283.04        27.64801
283.50        27.34697
283.95        27.02952
284.41        26.72677
284.86        26.43285
285.32         26.1459
285.77        25.87645
286.22        25.70719
286.68        25.62468
287.13        25.58686
287.59        25.49863
288.04        25.20216
288.50         24.7078
288.95        24.05553
289.41        23.39117
289.86        22.82603
290.32        22.44566
290.77         22.1921
291.22        22.05581
291.68         21.9819
292.13        21.94857
292.59        21.96729
293.04         22.0332
293.50        22.14376
293.95        22.27983
294.40        22.41064
294.86        22.50799
295.31         22.5405
295.77         22.5097
296.22        22.43792
296.68        22.34027
297.13        22.21274
297.58        22.09131
298.04        22.00398
298.49        22.01208
298.95        22.23882
299.40        22.68024
299.85        23.27788
300.31        23.92113
300.76         24.4505
301.21        24.79701
301.67        25.02051
302.12        25.11144
302.58         25.1066
303.03        25.02307
303.48        24.87347
303.94        24.77071
304.39        24.85734
304.84        25.15848
305.30         25.6208
305.75        26.09927
306.20        26.37272
306.66        26.40886
307.11        26.26537
307.57         26.0632
308.02        25.91907
308.47        25.89597
308.93        25.94922
309.38        26.05648
309.83        26.21455
310.29        26.39432
310.74        26.58723
311.19        26.74846
311.65        26.80522
312.10        26.74288
312.55        26.58523
313.00        26.34954
313.46        26.07768
313.91        25.79255
314.36        25.51045
314.82        25.29408
315.27        25.22402
315.72        25.31254
316.18        25.52844
316.63         25.7984
317.08        25.97634
317.53        26.01454
317.99        25.93782
318.44        25.80407
318.89        25.71357
319.35        25.68819
319.80         25.7024
320.25        25.69947
320.70        25.59149
321.16        25.36637
321.61        25.06253
322.06        24.75165
322.51        24.53667
322.97        24.43103
323.42        24.40829
323.87        24.40343
324.32        24.31005
324.78        24.10059
325.23        23.81668
325.68        23.50472
326.13        23.24223
326.59        23.05298
327.04         22.9323
327.49        22.86764
327.94        22.84015
328.39        22.84133
328.85        22.86982
329.30        22.94548
329.75        23.06389
330.20        23.21543
330.66         23.3708
331.11        23.52114
331.56         23.6151
332.01        23.63769
332.46        23.58815
332.92        23.48779
333.37        23.40405
333.82        23.35421
334.27        23.34589
334.72        23.33834
335.17        23.25787
335.63        23.09527
336.08         22.8783
336.53        22.70849
336.98        22.75104
337.43        23.02684
337.88        23.47905
338.34         23.9304
338.79        24.13691
339.24        24.01537
339.69        23.64065
340.14        23.18342
340.59        22.94612
341.05        23.00521
341.50        23.26756
341.95         23.6025
342.40        23.81776
342.85        23.86299
343.30         23.8157
343.75        23.70333
344.20        23.57116
344.66        23.44446
345.11        23.26787
345.56        23.10925
346.01         23.0748
346.46        23.16583
346.91        23.36941
347.36        23.52018
347.81        23.34936
348.26        22.83667
348.72        22.10985
349.17        21.39127
349.62        21.12411
350.07         21.4079
350.52        22.08656
350.97        22.92501
351.42        23.56561
351.87        23.89163
352.32        23.99212
352.77        23.92865
353.22        23.80537
353.67        23.66772
354.13        23.48553
354.58        23.25685
355.03        23.02486
355.48        22.80899
355.93        22.63268
356.38        22.49782
356.83        22.38787
357.28        22.29425
357.73        22.20994
358.18        22.14205
358.63        22.10138
359.08        22.08354
359.53          22.087
359.98        22.06047
360.43        21.92788
360.88        21.68418
361.33         21.3512
361.78        21.02944
362.23        20.88318
362.68        20.93709
363.13        21.12968
363.58        21.33269
364.03        21.34538
364.48        21.12118
364.93        20.72851
365.38        20.26122
365.83        19.86946
366.28        19.60948
366.73        19.44546
367.18        19.35442
367.63        19.29848
368.08         19.2575
368.53        19.24193
368.98        19.25299
369.43        19.28418
369.88        19.32986
370.33        19.38793
370.78        19.42148
371.23        19.37943
371.68         19.2553
372.13         19.0558
372.58        18.86462
373.03        18.82404
373.48        18.95713
373.93        19.21784
374.38        19.47838
374.83        19.54007
375.28        19.36561
375.72        19.01241
376.17         18.6228
376.62        18.38728
377.07         18.3611
377.52        18.47609
377.97        18.65879
378.42        18.79113
378.87        18.82899
379.32         18.8124
379.77        18.74822
380.22        18.64167
380.67         18.5033
381.11        18.32745
381.56        18.14009
382.01        17.99881
382.46        17.91748
382.91        17.88423
383.36        17.87014
383.81        17.82238
384.26        17.72832
384.71        17.60857
385.15        17.47258
385.60        17.34459
386.05        17.22427
386.50        17.09694
386.95        16.97804
387.40        16.89794
387.85        16.86497
388.29        16.87512
388.74         16.8931
389.19        16.84503
389.64        16.72406
390.09        16.54161
390.54        16.37498
390.98        16.35367
391.43        16.50361
391.88         16.7655
392.33        17.01669
392.78        17.07739
393.23        16.92871
393.67        16.63546
394.12        16.33389
394.57        16.15585
395.02        16.13186
395.47        16.20951
395.91        16.34513
396.36         16.4388
396.81        16.45551
397.26        16.41359
397.71        16.32406
398.15        16.18447
398.60        16.03275
399.05        15.88212
399.50        15.72923
399.95        15.52328
400.39        15.33632
400.84        15.12612
401.29        14.97777
401.74        15.01177
402.18        15.25199
402.63        15.63045
403.08        16.02803
403.53        16.25525
403.97         16.2639
404.42         16.1075
404.87        15.85931
405.32        15.65465
405.76        15.54348
406.21        15.49215
406.66        15.48821
407.11        15.51799
407.55        15.57429
408.00        15.66451
408.45        15.75818
408.90        15.78102
409.34        15.71477
409.79        15.57943
410.24        15.43518
410.68        15.36998
411.13        15.40538
411.58        15.52011
412.03        15.66541
412.47        15.75633
412.92        15.75467
413.37        15.68434
413.81        15.59775
414.26        15.59139
414.71        15.67336
415.15         15.8144
415.60         15.9305
416.05        15.90815
416.49        15.72604
416.94        15.43901
417.39         15.1263
417.83        14.92159
418.28        14.87352
418.73        14.93085
419.17        15.05759
419.62        15.19154
420.07        15.30712
420.51        15.42249
420.96        15.50097
421.41        15.47703
421.85        15.34326
422.30        15.14056
422.74        14.93239
423.19        14.84705
423.64        14.89291
424.08        15.04336
424.53        15.22853
424.98        15.35162
425.42        15.38341
425.87        15.34303
426.31        15.25634
426.76        15.21001
427.21        15.20014
427.65        15.10274
428.10        14.99168
428.54        15.08015
428.99        15.37728
429.44        15.78728
429.88        16.14552
430.33        16.24506
430.77        16.05313
431.22        15.63761
431.66        15.17979
432.11         15.0378
432.56        15.24514
433.00         15.5606
433.45        15.82753
433.89        16.13499
434.34        16.32176
434.78        15.94151
435.23        15.29916
435.67        15.22019
436.12        15.66066
436.57        15.89818
437.01        15.82564
437.46        15.75195
437.90        15.69497
438.35        15.57117
438.79        15.41117
439.24        15.30683
439.68        15.28331
440.13         15.2531
440.57        15.23642
441.02        15.46831
441.46        15.82004
441.91        15.74155
442.35         15.3092
442.80        15.10199
443.24        15.10019
443.69        15.07781
444.13         14.9975
444.58        14.80648
445.02        14.57458
445.47        14.61436
445.91        14.85048
446.36        14.89008
446.80        14.70193
447.24        14.50306
447.69        14.36387
448.13        14.29678
448.58        14.32592
449.02         14.4387
449.47        14.57628
449.91        14.64131
450.36         14.6137
450.80        14.52138
451.25        14.41941
451.69        14.38225
452.13        14.43176
452.58        14.52881
453.02        14.64659
453.47        14.74224
453.91         14.8036
454.36        14.84977
454.80        14.86961
455.24        14.84219
455.69        14.77801
456.13        14.67507
456.58        14.59377
457.02        14.60241
457.46        14.71695
457.91        14.90938
458.35        15.11344
458.79        15.21581
459.24        15.20156
459.68          15.092
460.13        14.96667
460.57        14.90971
461.01        14.95842
461.46         15.0775
461.90        15.21849
462.34        15.29703
462.79        15.28943
463.23        15.21557
463.68         15.1356
464.12        15.15067
464.56        15.28206
465.01        15.50167
465.45        15.69658
465.89        15.75991
466.34         15.6866
466.78        15.42971
467.22        15.13105
467.67        15.17042
468.11        15.50989
468.55        15.68376
468.99        15.63948
469.44        15.61061
469.88        15.64882
470.32        15.80659
470.77        16.03136
471.21        16.12114
471.65        16.05099
472.10        15.97733
472.54        15.93419
472.98        15.92502
473.42         15.9652
473.87        16.06179
474.31        16.17268
474.75         16.2254
475.20        16.21116
475.64        16.14347
476.08        16.07467
476.52        16.08428
476.97        16.18831
477.41        16.36434
477.85        16.54828
478.29         16.6685
478.74        16.70672
479.18        16.60212
479.62        16.42405
480.06        16.55699
480.50        16.67825
480.95        16.81692
481.39        16.81813
481.83        16.79303
482.27        16.73421
482.72        16.50876
483.16         16.2294
483.60        16.27458
484.04        16.64826
484.48        16.92722
484.93        17.28018
485.37        17.61504
485.81        17.80722
486.25        18.10523
486.69        23.85213
487.14        18.71654
487.58        12.49116
488.02        15.32554
488.46        17.57882
488.90        17.59983
489.34         17.4026
489.79        17.20267
490.23        18.19104
490.67        18.79163
491.11        18.71599
491.55        18.53865
491.99        18.25239
492.43        18.02387
492.88        17.93983
493.32        17.98197
493.76        18.02901
494.20        18.24539
494.64        18.56865
495.08        18.96494
495.52         19.3715
495.96        19.67383
496.41        19.81946
496.85        19.90669
497.29        19.95301
497.73        19.70171
498.17        19.39962
498.61        19.58022
499.05        20.23378
499.49        20.36594
499.93        20.45696
500.37        20.55137
500.82        20.59908
501.26         20.8128
501.70        21.08965
502.14        21.25283
502.58        21.26968
503.02        21.29434
503.46        21.33126
503.90        21.27433
504.34        21.17001
504.78        21.14536
505.22         21.2202
505.66        21.36741
506.10        21.52855
506.54        21.60223
506.98        21.56742
507.42        21.45981
507.86        21.35894
508.30        21.38703
508.74        21.56486
509.18        21.84417
509.62        22.14565
510.06        22.33961
510.50        22.39154
510.94        22.35122
511.38        22.26148
511.82        22.18937
512.26        22.16221
512.70        22.15197
513.14        22.17973
513.58        22.28209
514.02        22.44462
514.46        22.65165
514.90        22.83137
515.34        22.83242
515.78        22.60676
516.22        22.35512
516.66        22.17581
517.10        21.78778
517.54        21.22533
517.98        22.05213
518.42        21.92521
518.86        22.31754
519.30         22.5066
519.74        22.72067
520.18        22.90841
520.62        22.95858
521.06        22.88568
521.50        22.69821
521.93        22.46595
522.37        22.31689
522.81        22.28609
523.25        22.34448
523.69        22.44997
524.13        22.53298
524.57        22.56946
525.01        22.57663
525.45        22.56897
525.89        22.56875
526.32        22.57777
526.76        22.58475
527.20        22.56665
527.64        22.50002
528.08        22.38841
528.52        22.22476
528.96        22.03923
529.40        21.93724
529.83          21.945
530.27        21.81223
530.71        21.93332
531.15         21.9027
531.59        21.83876
532.03        21.74393
532.46        21.67607
532.90        21.72779
533.34        21.90009
533.78         22.1521
534.22         22.3914
534.66        22.48553
535.09        22.40406
535.53         22.1995
535.97        21.94247
536.41        21.75071
536.85        21.66374
537.28        21.65354
537.72        21.68762
538.16        21.71293
538.60        21.71386
539.04        21.69435
539.47         21.6791
539.91        21.75676
540.35        21.90907
540.79        22.02901
541.22        22.09883
541.66        22.18154
542.10        22.27151
542.54        22.31791
542.97        22.34766
543.41        22.44268
543.85        22.60661
544.29        22.82236
544.72        23.02963
545.16        23.14371
545.60        23.15121
546.04        23.08108
546.47        23.01487
546.91        23.10047
547.35        23.35698
547.79        23.71294
548.22        24.07214
548.66        24.32956
549.10        24.42811
549.53        24.31163
549.97        24.10103
550.41        24.04492
550.84        24.18978
551.28         24.4321
551.72        24.72148
552.15         25.0022
552.59        25.23603
553.03        25.43497
553.46        25.59923
553.90         25.7512
554.34        25.90091
554.77        26.01035
555.21        26.07536
555.65        26.17029
556.08        26.31151
556.52        26.16501
556.96        26.35005
557.39        26.38145
557.83        26.45254
558.27        26.53709
558.70        26.64589
559.14        26.77975
559.57         26.9225
560.01        27.07965
560.45        27.21179
560.88        27.26454
561.32        27.24844
561.75        27.15284
562.19        27.04862
562.63         27.0207
563.06        27.08273
563.50        27.21047
563.93        27.36719
564.37        27.51151
564.80        27.61835
565.24        27.71069
565.68        27.78964
566.11        27.85899
566.55        27.94206
566.98        28.02595
567.42        28.13066
567.85        28.28218
568.29        28.49611
568.72        28.68232
569.16        28.87342
569.60        29.16796
570.03        29.42226
570.47        29.43619
570.90        29.36102
571.34         28.7557
571.77        29.17188
572.21        29.36173
572.64        29.30686
573.08        28.91587
573.51        28.18709
573.95        29.44552
574.38         31.2002
574.82        30.73074
575.25         30.3414
575.69        29.33302
576.12        28.89596
576.56        28.72182
576.99        29.13833
577.42        30.63503
577.86        30.73081
578.29         30.3183
578.73        31.97173
579.16        29.40327
579.60        26.94903
580.03        28.20368
580.47        30.12128
580.90        30.32225
581.33        29.72089
581.77        29.50514
582.20        32.04836
582.64        31.73213
583.07        27.11757
583.51        26.64214
583.94        26.21637
584.37        27.30463
584.81        28.29436
585.24        29.65181
585.68         30.4075
586.11        29.94467
586.54        27.61488
586.98        26.89124
587.41          27.203
587.85        28.56588
588.28        29.37777
588.71        27.94263
589.15        27.15446
589.58        27.61883
590.01        27.94191
590.45        28.39401
590.88        28.50968
591.31        28.20662
591.75        28.14277
592.18        28.15382
592.61        28.59365
593.05        29.09668
593.48        30.41261
593.91        30.57881
594.35        28.28274
594.78        27.76778
595.21        27.79107
595.65        29.09437
596.08        30.20313
596.51        29.11636
596.94         28.4852
597.38        28.97442
597.81        30.38904
598.24        31.05539
598.68        30.82716
599.11        30.61373
599.54        32.09872
599.97        32.94431
600.41        31.25242
600.84        31.63522
601.27        32.47721
601.70        32.38194
602.14        32.63465
602.57        32.40181
603.00        32.84821
603.43        34.00892
603.87        35.36528
604.30        35.62347
604.73         34.7256
605.16        34.41169
605.60        35.32861
606.03        36.35543
606.46        37.24305
606.89        37.55307
607.32        36.79889
607.76        37.05194
608.19        38.58481
608.62        38.35349
609.05        37.99087
609.48         38.5153
609.92        38.65972
610.35        38.99655
610.78         40.8204
611.21        41.19678
611.64        39.89282
612.07        40.44588
612.50        40.83528
612.94        41.33229
613.37          41.356
613.80        41.72295
614.23        42.41806
614.66        42.68749
615.09        43.10147
615.52        43.30023
615.96         43.4104
616.39        43.64273
616.82        43.26073
617.25        43.57343
617.68         44.2531
618.11        44.89048
618.54        45.28316
618.97        45.14703
619.40         44.7428
619.84        44.96685
620.27        45.77905
620.70        46.40102
621.13        46.67074
621.56        46.44272
621.99        45.95021
622.42        46.47884
622.85        47.69215
623.28        47.72197
623.71        47.56417
624.14        47.31405
624.57        47.30294
625.00         47.2532
625.43        47.22346
625.86        46.74022
626.29        46.72552
626.72        46.87565
627.15        46.60946
627.58        46.60764
628.01        46.59885
628.44        46.58039
628.87        46.55102
629.30        46.46172
629.73        46.40507
630.16        46.35633
630.59        45.87295
631.02        45.42496
631.45         44.9339
631.88        44.48126
632.31        44.08865
632.74        43.74422
633.17        43.43323
633.60         43.1158
634.03        42.77945
634.46        42.43885
634.89        42.08493
635.32        41.70054
635.75        41.28767
636.18        40.85261
636.61        40.41639
637.04        40.01184
637.47        39.64475
637.89        39.30922
638.32        38.98792
638.75        38.67666
639.18        38.37611
639.61        38.09703
640.04        37.83167
640.47        37.56172
640.90        37.28366
641.33        37.00207
641.76        36.73505
642.18        36.54692
642.61        36.44232
643.04        36.40785
643.47        36.23052
643.90         36.4114
644.33        36.14256
644.76        36.06012
645.18        35.96949
645.61        35.93933
646.04        35.97498
646.47        36.04616
646.90        36.18399
647.33        36.40933
647.75        36.73301
648.18        37.18069
648.61         37.6172
649.04        37.84796
649.47        37.85627
649.89        37.56363
650.32        37.27995
650.75        37.71373
651.18        38.78427
651.61        39.76177
652.03        40.39719
652.46        40.66977
652.89        40.85178
653.32        41.03831
653.74        41.39133
654.17        42.44519
654.60        43.48213
655.03        42.00488
655.46        43.20586
655.88        46.46567
656.31        49.14245
656.74        110.3054
657.16        71.70062
657.59        25.25166
658.02        19.51357
658.45        34.41251
658.87        44.93702
659.30        47.65729
659.73        47.06163
660.15        46.03681
660.58        47.89343
661.01        49.66998
661.44        48.66521
661.86        48.29111
662.29        48.14607
662.72        48.98347
663.14        50.61877
663.57        50.98831
664.00        50.21701
664.42        50.20384
664.85        51.01711
665.27        51.49259
665.70        51.51583
666.13        51.55237
666.55         51.6098
666.98        51.56316
667.41        51.50624
667.83        51.62646
668.26         51.9553
668.69        52.41043
669.11        52.84372
669.54         53.2625
669.96         53.1265
670.39        52.93336
670.82        52.67088
671.24        52.55866
671.67        52.70034
672.09        53.04932
672.52        53.44219
672.94        54.01574
673.37        53.80893
673.80        53.91699
674.22        54.09351
674.65        54.23732
675.07        54.32955
675.50        54.30425
675.92         54.2429
676.35        54.34991
676.77        54.65276
677.20        55.02973
677.62        55.41253
678.05        55.69382
678.47        55.83118
678.90        55.87587
679.32         55.8861
679.75        55.84908
680.17        56.01062
680.60        56.16534
681.02        56.33438
681.45        56.41354
681.87        56.39423
682.30        56.34586
682.72         56.3284
683.15        56.36026
683.57        56.52402
684.00        56.88789
684.42        57.52753
684.85        57.86288
685.27        57.90216
685.70        57.77924
686.12        57.55883
686.54        57.69952
686.97        57.66141
687.39        57.82625
687.82        57.98353
688.24        58.26664
688.66        58.57003
689.09        58.59812
689.51        58.42966
689.94        58.43941
690.36         58.6672
690.78        58.89509
691.21        59.07818
691.63        59.24078
692.06        59.37067
692.48        59.47611
692.90        59.57337
693.33        59.67373
693.75        59.78352
694.17        59.89986
694.60        60.03742
695.02        60.19086
695.44        60.32345
695.87        60.62066
696.29        61.02477
696.71        60.87469
697.14        60.36528
697.56        60.77649
697.98        61.89656
698.41        61.84283
698.83        61.25531
699.25        60.98151
699.68        61.25411
700.10          61.384
700.52        61.37291
700.94        61.58142
701.37        61.95785
701.79        62.32747
702.21        62.61885
702.64        62.87605
703.06        63.05322
703.48        63.07407
703.90        62.94925
704.33        62.70934
704.75        62.43077
705.17        62.31657
705.59         62.4225
706.01        62.59575
706.44        62.76546
706.86         63.3433
707.28        63.43832
707.70        63.76642
708.12        64.03561
708.55        64.05594
708.97        63.84748
709.39        63.83032
709.81        63.73542
710.23        63.73433
710.66        63.75208
711.08        63.92052
711.50        64.15363
711.92        64.27325
712.34        64.25311
712.76        64.13129
713.19        64.01144
713.61         64.0848
714.03        64.37231
714.45        64.80928
714.87        65.23308
715.29        65.39073
715.71        65.23408
716.13        64.85017
716.56         64.4087
716.98        64.21119
717.40        64.32961
717.82        64.67365
718.24        65.11148
718.66        65.41515
719.08        65.51376
719.50        65.48087
719.92        65.37537
720.34        65.30837
720.76        65.32229
721.19        65.27484
721.61        65.39246
722.03        65.54074
722.45        65.75994
722.87        66.12663
723.29        66.60174
723.71         66.6215
724.13        66.91888
724.55        66.89977
724.97        66.83893
725.39        66.78225
725.81        66.75995
726.23        66.78201
726.65        66.83998
727.07        66.76457
727.49        66.83269
727.91        66.84043
728.33        66.87983
728.75        66.95148
729.17        67.05392
729.59        67.16795
730.01        67.29422
730.43        67.43729
730.85        67.59595
731.27        67.79285
731.69        67.97584
732.10        68.03981
732.52        67.97149
732.94        67.84446
733.36        67.78079
733.78        67.84474
734.20        68.05339
734.62        68.66823
735.04        69.49072
735.46        69.50353
735.88         68.9382
736.30         69.3491
736.72        70.64332
737.13        71.15736
737.55        70.64833
737.97        70.44823
738.39        70.63977
738.81        69.97026
739.23        68.87824
739.65        69.71616
740.06        71.98775
740.48        72.36514
740.90         70.9211
741.32         70.3194
741.74        70.89436
742.16        71.20746
742.57         71.3233
742.99        71.99075
743.41        73.00886
743.83        73.62231
744.25        73.70606
744.67        73.45905
745.08         73.0985
745.50        72.98045
745.92        73.21196
746.34        73.65236
746.75        74.16051
747.17        74.49932
747.59         74.6328
748.01        74.65302
748.42        74.65313
748.84        74.85043
749.26        75.31185
749.68        75.66068
750.09        75.90414
750.51        76.74783
750.93        77.83895
751.35        77.57796
751.76        76.26316
752.18        75.85305
752.60        76.39294
753.01        76.58202
753.43         76.3707
753.85         76.4818
754.27         76.9295
754.68        77.43408
755.10        77.90692
755.52        78.35252
755.93        78.71101
756.35        78.93787
756.77        79.11172
757.18        79.19904
757.60        79.20545
758.02        79.56054
758.43        80.03053
758.85        79.30418
759.26        77.92644
759.68        77.94359
760.10        79.73674
760.51        80.30337
760.93        79.60434
761.34        78.33598
761.76        78.23587
762.18        77.75941
762.59        77.55468
763.01        77.94952
763.42        78.91232
763.84        79.90331
764.26        80.66189
764.67        80.79361
765.09        80.37074
765.50        80.18488
765.92        80.14918
766.33        79.07651
766.75        77.40511
767.16        76.88065
767.58        77.43694
768.00         78.9425
768.41        80.92406
768.83        82.46811
769.24        82.91732
769.66        82.05993
770.07        80.49396
770.49        78.83297
770.90        77.64523
771.32        78.85346
771.73        81.64852
772.15        81.49487
772.56        78.79001
772.97        78.14317
773.39        79.48539
773.80         80.3325
774.22        79.25289
774.63        79.21594
775.05        79.79221
775.46        80.11067
775.88        80.05775
776.29        79.91443
776.70        79.77422
777.12        79.77708
777.53         79.9663
777.95        80.21342
778.36        80.41163
778.77        80.35329
779.19        80.03832
779.60        79.63348
780.02        79.26409
780.43        79.01141
780.84        79.09386
781.26        79.41543
781.67        79.94671
782.09        81.23296
782.50        82.64851
782.91        81.76579
783.33        79.32158
783.74        78.59029
784.15        79.73007
784.57        80.71139
784.98        81.10889
785.39        80.98122
785.81        80.39967
786.22        79.93372
786.63        79.84324
787.04        79.95102
787.46        80.30771
787.87        81.19219
788.28        82.27407
788.70        82.75867
789.11        82.51066
789.52        81.80411
789.93        80.99213
790.35        80.56621
790.76        80.65483
791.17        81.14243
791.58        81.81194
792.00        82.21497
792.41         82.2091
792.82        82.04407
793.23        81.91312
793.65        81.50094
794.06        81.11815
794.47        82.14569
794.88        83.83027
795.29        83.41582
795.71         81.1601
796.12           78.95
796.53        78.17859
796.94        77.78784
797.35        78.15236
797.76        79.53884
798.18        81.31344
798.59        82.35765
799.00        82.27686
799.41        81.29262
799.82        79.93078
800.23         79.1348
800.64        79.14349
801.06        79.58691
801.47        80.31021
801.88        80.94719
802.29        81.33283
802.70        81.60078
803.11        81.74422
803.52        81.72287
803.93        81.57124
804.34        81.26344
804.75        80.91351
805.17        80.83317
805.58        81.13039
805.99        81.39353
806.40        81.52318
806.81        82.17451
807.22        82.87988
807.63         81.8201
808.04        79.57442
808.45        78.64124
808.86        79.24039
809.27        80.12612
809.68        80.88039
810.09        81.28945
810.50        81.15464
810.91        80.56749
811.32         79.8504
811.73        79.48327
812.14        79.58794
812.55        80.09596
812.96        80.82861
813.37          81.164
813.78        81.09892
814.19        81.42406
814.60        81.93361
815.01        81.74158
815.42        80.82808
815.83         79.5983
816.24        78.49091
816.65        78.10448
817.05        78.65717
817.46        79.95236
817.87        81.44742
818.28        82.14644
818.69        81.77917
819.10        80.58438
819.51        79.16113
819.92        78.56057
820.33        79.05357
820.74        80.24503
821.14        81.57732
821.55        82.21306
821.96        81.86475
822.37        80.53391
822.78        78.81397
823.19        77.88658
823.60        77.99046
824.00        78.70676
824.41        79.64226
824.82        80.35249
825.23        80.59685
825.64        80.54171
826.04        80.31654
826.45        80.10446
826.86        79.96926
827.27        79.80049
827.68        79.63406
828.08        79.59241
828.49        79.63008
828.90        79.81284
829.31        79.98899
829.72         79.8584
830.12        79.39957
830.53        78.69629
830.94        78.06793
831.35        77.94745
831.75        78.45499
832.16        79.40772
832.57        80.54854
832.97        81.33648
833.38        81.50881
833.79        81.20896
834.20        80.71861
834.60        80.47126
835.01        80.60326
835.42        80.97567
835.82        81.35191
836.23        81.25791
836.64        80.64135
837.04        79.70001
837.45        78.77211
837.86        78.37847
838.26        78.65227
838.67        79.39265
839.08        80.33619
839.48        81.00301
839.89        81.17848
840.29         81.0042
840.70        80.60999
841.11        80.17772
841.51         79.7957
841.92        79.39735
842.33        79.01891
842.73        78.74255
843.14        78.55746
843.54         78.5085
843.95        78.54095
844.35         78.6099
844.76         78.6699
845.17        78.72522
845.57        78.75455
845.98        78.75034
846.38        78.70941
846.79        78.59749
847.19        78.45502
847.60         78.2697
848.00        78.10276
848.41        77.95721
848.81        77.85693
849.22        77.75222
849.62        77.69381
850.03        77.69678
850.43        77.86447
850.84        78.27751
851.24        78.97023
851.65        79.69997
852.05        80.47148
852.46        81.12505
852.86        81.59842
853.27        81.97055
853.67        81.87359
854.07        80.87187
854.48         79.0733
854.88        76.67003
855.29         74.4539
855.69        73.55657
856.10         74.1807
856.50        76.20463
856.90        78.90323
857.31        80.56802
857.71        80.64285
858.12        79.52216
858.52        77.94831
858.92        76.92503
859.33          76.678
859.73        76.92496
860.13        77.50575
860.54        78.09654
860.94         78.6159
861.34        79.15323
861.75        79.63123
862.15        79.99429
862.55        80.19409
862.96        80.19935
863.36        80.12066
863.76        80.13184
864.17        80.28544
864.57        80.58881
864.97        80.97862
865.38         81.3438
865.78        81.69601
866.18        81.98625
866.58        82.26899
866.99        82.62099
867.39        83.10802
867.79        83.72861
868.19        84.22371
868.60        84.11481
869.00        83.33724
869.40        82.04641
869.80        80.91655
870.21        80.98415
870.61         82.5388
871.01        85.24857
871.41        88.25583
871.81        90.08415
872.22        90.31449
872.62         89.3726
873.02        88.00986
873.42        87.54501
873.82        88.16721
874.22        89.25626
874.63        90.44807
875.03        91.02206
875.43        90.60401
875.83        90.11797
876.23        88.80632
876.63        88.29189
877.03        88.60251
877.44         89.8558
877.84        102.3124
878.24        95.63613
878.64        96.02477
879.04        95.73638
879.44        93.30045
879.84        92.07368
880.24         94.3267
880.64        95.68598
881.04        96.56939
881.44        97.04561
881.84        96.66503
882.24        95.65462
882.65        94.77148
883.05         94.8391
883.45        96.01041
883.85        98.15174
884.25        100.5405
884.65        101.7758
885.05        101.4341
885.45        100.0221
885.85        98.30698
886.25        97.33161
886.65        97.33589
887.05        97.97415
887.45        98.95568
887.85        99.75403
888.25         100.142
888.65         100.341
889.04        100.3203
889.44        100.0613
889.84        99.59711
890.24        98.86946
890.64        98.18005
891.04        98.03031
891.44        98.47517
891.84        99.40309
892.24        100.3416
892.64        100.4147
893.04        99.50839
893.44        98.05301
893.83        96.61823
894.23        96.02368
894.63        96.41831
895.03        97.44824
895.43        99.00575
895.83        100.8581
896.23        102.7314
896.63        104.6607
897.02        105.9849
897.42        105.6518
897.82        103.6224
898.22        100.3226
898.62        96.92735
899.01        95.17383
899.41        95.43619
899.81        97.13812
900.21        99.47843
900.61         101.117
901.00        101.6125
901.40        101.3928
901.80        100.7424
902.20        100.1001
902.59        99.65929
902.99        99.22791
903.39        98.87183
903.79        98.76021
904.18        98.91457
904.58        99.36584
904.98        99.98418
905.38        100.5252
905.77        100.8791
906.17        101.0712
906.57        101.1201
906.96        101.1217
907.36        101.0511
907.76        100.9045
908.15        100.6369
908.55        100.0759
908.95        99.27754
909.34        98.29078
909.74        97.40867
910.14         96.8843
910.53         96.8177
910.93        97.20921
911.33        97.88524
911.72        98.53152
912.12        98.94659
912.52        99.11275
912.91        99.27044
913.31        99.79375
913.70        100.7902
914.10        102.1989
914.49        103.5034
914.89        103.3396
915.29        101.4166
915.68        98.31249
916.08        95.46241
916.47        94.18925
916.87         94.6159
917.26        96.32391
917.66         98.3708
918.05        99.22159
918.45        98.46393
918.84        96.62627
919.24        94.66619
919.64        93.98144
920.03        94.92981
920.42        97.04912
920.82         99.5661
921.21        101.2824
921.61        101.6182
922.00        101.0053
922.40        99.87592
922.79        98.78232
923.19        97.96168
923.58         97.2537
923.98        96.58025
924.37         95.9274
924.77         95.4987
925.16          94.399
925.55        94.80717
925.95        95.76045
926.34        97.82068
926.74        100.4339
927.13        102.9153
927.52        103.9622
927.92        103.4056
928.31        101.6802
928.70         99.2755
929.10        97.03291
929.49        95.26549
929.89        93.81291
930.28        93.04404
930.67        93.55663
931.07        95.24021
931.46        97.97869
931.85        100.7507
932.24         102.007
932.64        101.4297
933.03        99.29033
933.42        96.29614
933.82        94.11273
934.21        93.29156
934.60        93.43271
934.99        93.97592
935.39         94.2508
935.78        94.13058
936.17        93.69736
936.56        92.84097
936.96        92.99123
937.35         92.1685
937.74        92.03262
938.13        92.05573
938.53        92.51414
938.92        93.40672
939.31        94.75374
939.70        96.18965
940.09        96.66797
940.49        95.87183
940.88        94.25111
941.27        92.50383
941.66        91.43748
942.05        91.17937
942.44        91.47544
942.84        92.14004
943.23        92.96848
943.62        93.72956
944.01        94.43718
944.40        94.98385
944.79        95.21444
945.18        95.07524
945.57        94.53655
945.97        93.54058
946.36        92.21547
946.75        90.90343
947.14        89.83838
947.53        89.20904
947.92         89.0949
948.31        89.44371
948.70        90.23093
949.09        91.38715
949.48        92.62944
949.87        93.68928
950.26        94.47958
950.65        94.92737
951.04        95.02869
951.43        94.80907
951.82        94.26397
952.21        93.39477
952.60        92.27757
952.99        91.01646
953.38        89.65414
953.77        88.46318
954.16        87.78025
954.55        87.65157
954.94        88.07082
955.33        88.59182
955.72        88.43903
956.11        87.46141
956.50        85.82825
956.89         84.3041
957.28        84.30203
957.66        86.22484
958.05        89.36607
958.44        92.66687
958.83        94.56593
959.22        94.66022
959.61        93.33788
960.00        91.28018
960.39        89.61075
960.78        88.72173
961.16        88.39632
961.55        88.16676
961.94        87.27535
962.33        85.63943
962.72        83.67467
963.11        82.08153
963.49        81.72762
963.88         82.7316
964.27        84.88972
964.66        87.49271
965.04         88.9901
965.43        88.68398
965.82        87.10355
966.21        85.23964
966.60        84.41473
966.98        84.88345
967.37        86.18478
967.76        87.75135
968.15        88.49038
968.53        88.04635
968.92        86.83006
969.31        85.34949
969.69        84.20472
970.08        83.57391
970.47        83.28582
970.86         83.1603
971.24        82.92808
971.63        82.49243
972.02        81.94986
972.40        81.59129
972.79        81.84677
973.17        82.92065
973.56        84.56473
973.95        86.26147
974.33        87.01552
974.72        86.47881
975.11        84.95442
975.49        83.27072
975.88        82.61819
976.26        83.17516
976.65        84.73569
977.04        86.49187
977.42        86.47774
977.81        84.09828
978.19        80.21619
978.58        76.84944
978.96        76.04927
979.35        78.08627
979.74        82.47947
980.12        88.24915
980.51        91.91363
980.89        92.30474
981.28        90.37506
981.66        87.42775
982.05        85.13679
982.43        83.90516
982.82        83.20391
983.20        83.18057
983.59        84.20142
983.97        86.34518
984.35        89.73152
984.74         93.4915
985.12        95.77677
985.51        95.38023
985.89        92.55605
986.28        88.32793
986.66        84.57051
987.04        82.28334
987.43        81.18176
987.81          80.708
988.20        80.06343
988.58        78.91635
988.96        77.21315
989.35        75.40102
989.73        75.62444
990.12        78.72344
990.50        83.43417
990.88        86.99342
991.27        87.62878
991.65        85.78587
992.03        82.08319
992.42        77.84507
992.80        75.43025
993.18        75.71964
993.56        77.36388
993.95        79.51354
994.33        81.68491
994.71        83.50711
995.10        85.48151
995.48         86.8251
995.86        86.06518
996.24        82.91402
996.63        77.22939
997.01        70.82731
997.39        68.83635
997.77        73.40023
998.15        83.18938
998.54        93.60558
998.92        98.40645
999.30        95.86986
999.68        87.53193
1000.06         76.0191
1000.45         67.7772
1000.83         65.5253
1001.21        67.15048
1001.59        70.69517
1001.97        74.06923
1002.35        76.75952
1002.73        80.01146
1003.12        82.92809
1003.50        82.67264
1003.88         78.3428
1004.26        71.37946
1004.64        65.17582
1005.02        62.78472
1005.40        64.51914
1005.78        70.60241
1006.16        81.50681
1006.54        91.38886
1006.92        93.78248
1007.30        91.08875
1007.69        87.48408
1008.07        85.61867
1008.45        85.55648
1008.83        86.81948
1009.21        89.22621
1009.59        87.49613
1009.97        60.96127
1010.35       -2.002157
1010.73       -16.35533
1011.11        11.85421
1011.49        38.49543
1011.86        59.33108
1012.24        71.38522
1012.62        75.86136
1013.00        75.45591
1013.38        71.29605
1013.76        65.69305
1014.14        67.14008
1014.52        82.96274
1014.90        115.3023
1015.28        155.7697
1015.66        178.7003
1016.04        167.9787
1016.41        127.8706
1016.79        80.59444
1017.17        51.73232
1017.55        42.83201
1017.93        42.88957
1018.31        46.35037
1018.69        50.66797
1019.06        55.72488
1019.44        62.78746
1019.82        74.00988
1020.20        90.24318
1020.58        112.2078
1020.95        143.5768
1021.33        194.9815
1021.71       -469.1971
1022.09        69.23507
1022.46        102.0078
1022.84        113.8929
1023.22        119.9721
1023.60        125.5583
1023.97        154.5775
1024.35        111.3421
1024.73        119.2821
