SpectraSmart Spectrum 2.9.0.0
--------- Device Information -----------
Spectrum Name :  反射率_0
Saving Time :  2024/04/25 22:54:05
Spectro-Module Model Name : SE2030-DUVN
Spectro-Module Serial Number : OS361AC55029948
Wavelength Start : 200
Wavelength End : 1025
Wavelength Unit : Wavelength(nm)
Spectrum Unit : Reflectance(%)
-----------Spectrum Setting ------------
Integration Time : 20ms
Average : 10
Boxcar : 0
Background removal :  enabled
linearity correction :  enabled
SC :  disabled
Intensity correction :  disabled
DWT denoise :  enabled
savitzky-golay :  disabled
FFT :  disabled
Running average :  disabled
Kalman :  disabled
High pass :  disabled
---------------BEGIN--------------------
Wavelength(nm)             Reflectance(%)
200.29               0
200.75        93.97459
201.21        83.33125
201.67        70.90511
202.13        63.14044
202.58        60.91246
203.04         62.6894
203.50        66.78533
203.96        70.16307
204.42        71.57516
204.88         71.9023
205.34        71.93481
205.80        72.57441
206.26         74.3249
206.72        77.81792
207.18        83.17961
207.64        83.41433
208.10        72.31033
208.55        60.89488
209.01        55.44049
209.47        54.62227
209.93         56.4317
210.39        60.53727
210.85        65.03374
211.31         65.6201
211.77        61.13549
212.23        53.16092
212.69        45.52023
213.14        44.25864
213.60         50.2167
214.06        61.65331
214.52         74.4783
214.98        82.39467
215.44        83.69623
215.90        80.32891
216.36        74.91748
216.81        71.08054
217.27        69.98806
217.73         70.3685
218.19        70.48324
218.65         67.9404
219.11        61.73195
219.57        51.26424
220.02        37.69038
220.48        28.91601
220.94        29.78638
221.40        38.63036
221.86        48.15596
222.32         50.5624
222.77        46.24118
223.23        39.03553
223.69         32.9209
224.15        31.96762
224.61         35.7393
225.06        42.29258
225.52        48.49897
225.98        50.46592
226.44        47.66887
226.90        41.91696
227.36        35.83176
227.81        32.94461
228.27        34.16603
228.73        37.94222
229.19        42.58205
229.65         45.5941
230.10        46.36615
230.56        45.92335
231.02         44.9766
231.48         44.2496
231.93        43.92001
232.39        43.71761
232.85        43.62043
233.31        43.72281
233.77        43.99406
234.22        44.43157
234.68        44.97115
235.14        45.32665
235.60        45.41983
236.05        45.39648
236.51        45.22723
236.97        44.83752
237.43        44.27352
237.88         43.5252
238.34        43.07155
238.80        44.23677
239.26        47.46125
239.71        52.46148
240.17        57.71492
240.63        61.00698
241.08        61.75645
241.54        60.47133
242.00        58.22862
242.46        56.45859
242.91        55.64958
243.37         55.2008
243.83        57.61246
244.28        79.72479
244.74        130.2358
245.20        135.5759
245.66        124.3019
246.11        120.1667
246.57        121.4732
247.03        127.4881
247.48        137.4138
247.94        102.8191
248.40        84.76441
248.85        82.58282
249.31        83.30328
249.77        84.46016
250.22         86.0107
250.68        88.56526
251.14        91.52679
251.59        91.05858
252.05         85.1314
252.51        76.41039
252.96        68.87784
253.42        66.06322
253.88        67.09013
254.33         70.4427
254.79        75.32961
255.25        79.91854
255.70        83.27181
256.16         86.0189
256.62        87.23172
257.07         85.9455
257.53        82.97127
257.99        78.51901
258.44         74.1232
258.90        72.48595
259.35        72.63374
259.81        73.62107
260.27        73.53329
260.72        70.51533
261.18        65.46046
261.63        59.27397
262.09        53.73634
262.55        50.21173
263.00        48.59749
263.46        48.23787
263.91        48.11543
264.37        47.47023
264.83        46.09599
265.28        44.18481
265.74        42.27609
266.19        40.90559
266.65        40.30412
267.11        40.15272
267.56        39.99119
268.02        39.27991
268.47        37.90926
268.93        36.09124
269.38        34.16683
269.84        32.94636
270.30        32.63905
270.75        33.00685
271.21        33.59442
271.66        33.72068
272.12        33.20124
272.57        32.23928
273.03        31.17097
273.48        30.41821
273.94        30.11423
274.39        30.06914
274.85        30.06684
275.31        29.78569
275.76        29.15798
276.22        28.34612
276.67        27.52566
277.13        27.03382
277.58        26.87217
278.04        26.94245
278.49        27.01979
278.95        26.85934
279.40        26.38751
279.86        25.75792
280.31        25.06625
280.77        24.56808
281.22         24.2762
281.68        24.13049
282.13        24.05449
282.59        23.98168
283.04         23.8753
283.50        23.79706
283.95        23.69672
284.41        23.51545
284.86        23.24647
285.32        22.91467
285.77        22.63241
286.22        22.63472
286.68        22.92217
287.13        23.38859
287.59        23.82009
288.04        23.88738
288.50        23.56175
288.95        22.94479
289.41        22.25868
289.86        21.73017
290.32         21.4808
290.77        21.42406
291.22        21.52686
291.68        21.69851
292.13        21.91257
292.59        22.20573
293.04        22.58983
293.50         23.0793
293.95        23.65187
294.40        24.25386
294.86        24.84435
295.31        25.38107
295.77        25.85709
296.22        26.29392
296.68        26.68114
297.13        26.97334
297.58        27.19777
298.04        27.39246
298.49        27.66275
298.95        28.20817
299.40        29.04297
299.85        30.09357
300.31        31.20125
300.76        32.11994
301.21        32.76037
301.67         33.2142
302.12        33.51662
302.58        33.78975
303.03        34.05793
303.48        34.30343
303.94        34.60122
304.39        35.02832
304.84        35.59628
305.30        36.27857
305.75        36.93719
306.20        37.36773
306.66        37.55338
307.11        37.54152
307.57        37.48045
308.02         37.5109
308.47        37.70534
308.93        38.01315
309.38        38.38186
309.83        38.76571
310.29         39.1233
310.74        39.44866
311.19        39.71608
311.65        39.88379
312.10        39.94021
312.55        39.89858
313.00        39.75603
313.46        39.52545
313.91        39.22293
314.36         38.8785
314.82        38.57836
315.27        38.42521
315.72        38.44652
316.18        38.60855
316.63        38.83232
317.08         38.9595
317.53        38.93803
317.99        38.79243
318.44        38.59647
318.89        38.47527
319.35        38.44796
319.80        38.48559
320.25        38.48411
320.70        38.28162
321.16        37.85637
321.61        37.27137
322.06        36.67104
322.51        36.26941
322.97        36.09975
323.42        36.11112
323.87        36.16444
324.32        36.02648
324.78        35.63584
325.23        35.07703
325.68        34.47022
326.13        34.01711
326.59        33.76869
327.04        33.68218
327.49        33.67606
327.94        33.62119
328.39        33.47589
328.85        33.27273
329.30        33.08217
329.75        32.96959
330.20        32.95772
330.66        32.99576
331.11        33.07106
331.56        33.11954
332.01         33.1156
332.46        33.06258
332.92        32.95625
333.37        32.83979
333.82        32.70953
334.27        32.56884
334.72        32.39368
335.17        32.14773
335.63        31.83453
336.08         31.4841
336.53        31.17479
336.98         31.0328
337.43        31.07664
337.88        31.26833
338.34        31.47548
338.79        31.53088
339.24        31.36694
339.69        31.03487
340.14         30.6566
340.59         30.4506
341.05        30.46642
341.50        30.63087
341.95        30.84133
342.40        30.94831
342.85        30.91146
343.30        30.79029
343.75        30.60129
344.20         30.3769
344.66        30.14473
345.11        29.86433
345.56        29.60973
346.01        29.49052
346.46        29.51044
346.91        29.65207
347.36        29.75782
347.81         29.5734
348.26        29.07229
348.72        28.36669
349.17        27.65307
349.62        27.33316
350.07        27.49825
350.52        28.01249
350.97         28.6574
351.42        29.09788
351.87        29.23559
352.32        29.16508
352.77        28.97302
353.22        28.80039
353.67        28.69585
354.13        28.61236
354.58        28.51897
355.03        28.41357
355.48        28.29305
355.93        28.18239
356.38        28.07342
356.83        27.93977
357.28        27.77645
357.73        27.58276
358.18        27.38792
358.63        27.23858
359.08        27.14555
359.53        27.10616
359.98        27.06591
360.43        26.93948
360.88        26.71408
361.33        26.40687
361.78        26.11491
362.23        25.99744
362.68        26.07212
363.13        26.27547
363.58        26.46074
364.03        26.39948
364.48        26.04963
364.93        25.49926
365.38        24.88029
365.83          24.404
366.28        24.14062
366.73        24.02823
367.18        24.02787
367.63        24.07312
368.08        24.12112
368.53        24.18578
368.98        24.22809
369.43        24.18037
369.88        24.03621
370.33        23.81718
370.78        23.55823
371.23        23.33055
371.68        23.16429
372.13        23.03708
372.58        22.98527
373.03        23.06225
373.48        23.25606
373.93        23.54259
374.38        23.80261
374.83        23.85272
375.28        23.66201
375.72        23.27506
376.17        22.83987
376.62        22.56377
377.07        22.50701
377.52        22.60412
377.97          22.773
378.42        22.87746
378.87        22.87232
379.32         22.8055
379.77        22.69942
380.22        22.58144
380.67        22.46398
381.11        22.33178
381.56        22.19387
382.01        22.08014
382.46        21.99757
382.91        21.94501
383.36        21.90392
383.81         21.8385
384.26        21.74311
384.71        21.63213
385.15        21.51678
385.60        21.42964
386.05        21.36628
386.50        21.30829
386.95        21.25468
387.40        21.20627
387.85        21.16461
388.29        21.13288
388.74        21.09871
389.19        21.00355
389.64        20.84481
390.09        20.62774
390.54         20.4309
390.98        20.38637
391.43        20.52099
391.88         20.7774
392.33        21.02526
392.78        21.07154
393.23        20.89739
393.67        20.57091
394.12        20.24463
394.57        20.06225
395.02        20.05692
395.47        20.17065
395.91        20.35417
396.36        20.49108
396.81        20.54055
397.26        20.52247
397.71        20.44734
398.15        20.31005
398.60        20.15379
399.05        19.99058
399.50        19.82169
399.95        19.59208
400.39        19.39264
400.84         19.1673
401.29        19.00074
401.74        19.00373
402.18        19.20115
402.63        19.52904
403.08        19.88014
403.53        20.08138
403.97        20.08706
404.42        19.94251
404.87        19.71219
405.32        19.51557
405.76        19.39596
406.21        19.32798
406.66        19.29775
407.11        19.28983
407.55        19.30032
408.00        19.33552
408.45        19.37972
408.90        19.38601
409.34        19.34273
409.79         19.2604
410.24        19.18052
410.68        19.16466
411.13        19.22814
411.58        19.35391
412.03        19.49759
412.47        19.58445
412.92         19.5774
413.37        19.49835
413.81        19.39728
414.26        19.36938
414.71        19.42344
415.15        19.53461
415.60        19.62559
416.05        19.59103
416.49        19.41352
416.94        19.14685
417.39        18.86581
417.83        18.69491
418.28        18.67822
418.73        18.76269
419.17        18.91708
419.62        19.09232
420.07        19.26064
420.51        19.43328
420.96        19.55514
421.41        19.53202
421.85        19.35203
422.30        19.07478
422.74        18.78146
423.19        18.62973
423.64        18.63312
424.08        18.75972
424.53        18.93745
424.98        19.07123
425.42         19.1306
425.87        19.12919
426.31        19.08282
426.76        19.07116
427.21        19.08022
427.65        18.96084
428.10        18.80287
428.54        18.87421
428.99        19.19244
429.44        19.64125
429.88        20.02869
430.33        20.11967
430.77        19.87507
431.22        19.37434
431.66        18.83366
432.11        18.67563
432.56        18.93639
433.00        19.34536
433.45        19.70856
433.89        20.06729
434.34        20.25214
434.78        19.85317
435.23        19.20622
435.67        19.17728
436.12        19.70624
436.57        19.97379
437.01        19.87103
437.46        19.78683
437.90        19.75214
438.35        19.65823
438.79        19.52572
439.24        19.44129
439.68        19.43185
440.13        19.39875
440.57        19.37628
441.02        19.67998
441.46        20.15129
441.91        20.07782
442.35        19.56357
442.80        19.35614
443.24        19.43374
443.69        19.50582
444.13         19.4964
444.58        19.28342
445.02        18.95204
445.47        18.92417
445.91         19.1482
446.36        19.19309
446.80        19.03314
447.24        18.92105
447.69        18.89533
448.13        18.89024
448.58         18.9161
449.02         18.9844
449.47        19.05734
449.91        19.07242
450.36        19.02103
450.80        18.91604
451.25        18.80813
451.69        18.76417
452.13        18.80229
452.58         18.8901
453.02        18.99076
453.47        19.04686
453.91         19.0456
454.36        19.01165
454.80        18.95515
455.24        18.88954
455.69        18.83523
456.13        18.77792
456.58        18.75856
457.02        18.81093
457.46        18.94271
457.91        19.13146
458.35        19.32143
458.79        19.41945
459.24        19.41598
459.68        19.32521
460.13         19.2111
460.57        19.12926
461.01        19.11745
461.46        19.15271
461.90        19.21553
462.34        19.26923
462.79        19.29575
463.23        19.29817
463.68        19.30349
464.12        19.35934
464.56        19.47109
465.01        19.63747
465.45        19.75651
465.89        19.75051
466.34        19.62637
466.78        19.30561
467.22        18.95302
467.67        19.02574
468.11        19.46854
468.55        19.70289
468.99        19.65971
469.44        19.62689
469.88        19.66878
470.32        19.85215
470.77        20.11419
471.21        20.20656
471.65        20.10379
472.10        20.00093
472.54        19.94881
472.98        19.95921
473.42        20.04982
473.87        20.22465
474.31        20.41874
474.75        20.52607
475.20        20.53005
475.64         20.4513
476.08        20.35701
476.52        20.34953
476.97        20.45326
477.41        20.64091
477.85        20.84105
478.29        20.97824
478.74        21.03379
479.18        20.92977
479.62        20.74607
480.06        20.95484
480.50        21.14475
480.95        21.35555
481.39        21.39478
481.83        21.41151
482.27         21.3983
482.72        21.17811
483.16        20.88343
483.60        20.99261
484.04         21.5188
484.48        21.86789
484.93        22.23238
485.37        22.69983
485.81        23.17666
486.25        23.31263
486.69        30.64713
487.14        24.56598
487.58        16.08037
488.02        19.84832
488.46        22.39358
488.90         22.7161
489.34        23.07101
489.79        23.17779
490.23        24.17864
490.67        24.76103
491.11        24.58729
491.55        24.54652
491.99        24.56802
492.43        24.46581
492.88        24.32087
493.32        24.41892
493.76        24.59874
494.20        24.92952
494.64         25.3273
495.08        25.77167
495.52        26.22488
495.96        26.65617
496.41        26.97959
496.85        27.18432
497.29        27.27314
497.73        26.95077
498.17         26.5687
498.61         26.8623
499.05         27.8263
499.49        28.10081
499.93         28.3203
500.37        28.48112
500.82        28.52061
501.26        28.80764
501.70        29.20607
502.14        29.42098
502.58        29.42246
503.02        29.47349
503.46        29.58513
503.90        29.59811
504.34        29.54745
504.78        29.56393
505.22        29.66495
505.66        29.82312
506.10        29.99328
506.54        30.09612
506.98         30.1147
507.42        30.07757
507.86        30.04917
508.30        30.12728
508.74        30.32852
509.18        30.61492
509.62        30.91766
510.06        31.12498
510.50        31.20666
510.94        31.20178
511.38        31.15439
511.82        31.13387
512.26        31.16474
512.70        31.22235
513.14        31.30451
513.58        31.40845
514.02        31.51876
514.46        31.63549
514.90         31.7329
515.34        31.73684
515.78        31.61504
516.22        31.52185
516.66        31.50762
517.10        31.26478
517.54         30.8047
517.98        31.52056
518.42        31.36459
518.86        31.64878
519.30        31.74935
519.74        31.86032
520.18        31.95838
520.62        31.98118
521.06        31.94615
521.50        31.85444
521.93        31.72945
522.37         31.6174
522.81        31.53589
523.25        31.47882
523.69          31.452
524.13        31.46183
524.57        31.50088
525.01         31.5603
525.45        31.61682
525.89        31.63264
526.32        31.59288
526.76        31.50912
527.20        31.38348
527.64        31.23176
528.08        31.07234
528.52        30.87785
528.96        30.66623
529.40        30.54984
529.83        30.55287
530.27        30.33563
530.71        30.46363
531.15        30.39847
531.59        30.30916
532.03        30.19118
532.46        30.10051
532.90        30.12377
533.34        30.26076
533.78        30.47317
534.22        30.67323
534.66        30.73544
535.09        30.62825
535.53        30.40442
535.97        30.12596
536.41        29.89911
536.85        29.76343
537.28        29.69824
537.72        29.67997
538.16         29.6719
538.60        29.66381
539.04        29.64813
539.47        29.64955
539.91        29.77831
540.35        30.00478
540.79        30.18817
541.22        30.30315
541.66        30.43446
542.10        30.57478
542.54        30.65594
542.97        30.72006
543.41        30.88511
543.85        31.16042
544.29        31.52337
544.72        31.88673
545.16        32.12828
545.60        32.22188
546.04        32.19956
546.47        32.18093
546.91        32.36791
547.35        32.78228
547.79        33.36391
548.22        33.94196
548.66         34.2259
549.10        34.18005
549.53        33.95291
549.97        33.72047
550.41         33.6713
550.84        33.87187
551.28        34.27812
551.72         34.8039
552.15        35.28423
552.59        35.65111
553.03        35.94214
553.46        36.16394
553.90        36.36434
554.34         36.5631
554.77        36.70391
555.21        36.78075
555.65        36.90516
556.08         37.1018
556.52        36.89428
556.96        37.16427
557.39        37.23669
557.83        37.38498
558.27        37.57295
558.70        37.78617
559.14        37.98948
559.57        38.15404
560.01        38.27649
560.45        38.35589
560.88        38.44189
561.32         38.5286
561.75        38.49633
562.19        38.41065
562.63        38.34303
563.06        38.35133
563.50        38.57672
563.93        38.93382
564.37        39.15275
564.80        39.19115
565.24        39.20677
565.68        39.24478
566.11        39.32316
566.55         39.4837
566.98        39.70485
567.42          39.966
567.85        40.22617
568.29        40.49486
568.72        40.67093
569.16        40.84491
569.60        41.22171
570.03        41.61719
570.47        41.68689
570.90        41.61671
571.34        40.83355
571.77        41.60172
572.21        41.69945
572.64        41.68465
573.08        41.18742
573.51        39.84283
573.95         41.4103
574.38        43.74417
574.82        42.84631
575.25        42.55975
575.69        41.33783
576.12         40.6189
576.56        40.44693
576.99        41.17303
577.42        43.21428
577.86        42.95985
578.29        42.67551
578.73        44.83424
579.16        41.20375
579.60        37.64496
580.03        39.24471
580.47        41.69529
580.90        42.59724
581.33        41.75069
581.77        41.05389
582.20        44.90333
582.64        44.30438
583.07        37.83305
583.51        37.09381
583.94        36.47652
584.37        38.07466
584.81        39.80853
585.24        41.65701
585.68        42.44092
586.11        41.29965
586.54        38.41375
586.98        37.43729
587.41        37.85143
587.85        39.66069
588.28        40.82476
588.71        38.71149
589.15        37.71998
589.58        38.37806
590.01        38.84216
590.45        39.41594
590.88        39.47541
591.31        39.04589
591.75        39.01707
592.18        39.15042
592.61        39.90516
593.05        40.56438
593.48        42.10977
593.91         42.6569
594.35         39.0067
594.78        38.37695
595.21        38.49225
595.65         40.3322
596.08        41.78738
596.51        40.36645
596.94        39.63145
597.38        40.37276
597.81        42.24793
598.24        43.45298
598.68        42.78668
599.11        42.70627
599.54        44.55439
599.97        45.66966
600.41         43.1468
600.84         43.3894
601.27         44.7351
601.70        44.63379
602.14        45.01776
602.57        44.80172
603.00         45.5224
603.43        47.03453
603.87        48.68903
604.30        48.76312
604.73        47.56256
605.16        47.19816
605.60        48.53067
606.03        49.73214
606.46        50.83493
606.89        51.20392
607.32        50.00452
607.76        50.44607
608.19        52.34831
608.62        51.97863
609.05        51.37926
609.48        52.05654
609.92        52.30277
610.35         52.3317
610.78        54.56796
611.21        55.09518
611.64        53.03096
612.07        53.73317
612.50        54.26157
612.94        54.87152
613.37        54.75046
613.80        55.26269
614.23         56.0873
614.66        56.28706
615.09        56.60017
615.52        56.85303
615.96         57.1359
616.39        57.44107
616.82         56.7927
617.25        56.73683
617.68        57.46941
618.11        58.21229
618.54        58.78872
618.97         58.6679
619.40        58.21797
619.84        57.75667
620.27        59.09127
620.70        59.73812
621.13        60.07425
621.56         59.7796
621.99         59.1021
622.42        59.91808
622.85        61.80738
623.28        61.23296
623.71        60.98398
624.14        60.88782
624.57        60.39984
625.00        60.27731
625.43         60.3546
625.86        59.82176
626.29        59.80232
626.72        60.37689
627.15        59.86197
627.58        59.86307
628.01        59.76257
628.44        59.72862
628.87        59.79754
629.30        59.51443
629.73        59.39913
630.16        59.67178
630.59        58.79862
631.02        58.26328
631.45        57.66457
631.88        57.16301
632.31        56.77868
632.74        56.49816
633.17        56.28064
633.60        56.00791
634.03        55.65188
634.46        55.25079
634.89        54.81564
635.32        54.36434
635.75        53.91185
636.18         53.4478
636.61        52.99926
637.04         52.6115
637.47        52.28392
637.89        52.00753
638.32         51.7234
638.75        51.36805
639.18        50.93289
639.61        50.45415
640.04        49.96774
640.47        49.52337
640.90        49.14397
641.33        48.81478
641.76        48.53889
642.18        48.39197
642.61        48.37152
643.04        48.34449
643.47        48.24305
643.90        48.58308
644.33        48.34484
644.76        48.35662
645.18        48.32973
645.61        48.30423
646.04        48.28249
646.47        48.25014
646.90        48.28498
647.33        48.47756
647.75         48.8597
648.18        49.43352
648.61         50.0201
649.04        50.37698
649.47        50.45868
649.89        50.13516
650.32        49.77979
650.75        50.28373
651.18        51.57884
651.61        52.74329
652.03        53.46161
652.46        53.91125
652.89        54.34481
653.32        54.33546
653.74        54.22953
654.17         55.8274
654.60        56.97378
655.03        55.75814
655.46        56.43497
655.88        60.13609
656.31        64.21508
656.74        143.4353
657.16        92.19447
657.59        32.47164
658.02        25.19689
658.45        44.62518
658.87        57.85493
659.30        61.52633
659.73        60.53734
660.15        58.72534
660.58        61.33534
661.01         63.2552
661.44         61.5361
661.86         60.9698
662.29         60.9809
662.72        62.05877
663.14        63.88897
663.57        64.01907
664.00        62.73089
664.42        62.56553
664.85        63.62527
665.27        64.36078
665.70        64.51868
666.13        64.54137
666.55        64.40252
666.98        63.98711
667.41        63.51541
667.83        63.39006
668.26        63.69663
668.69        64.28613
669.11        64.90331
669.54        65.44591
669.96        65.21458
670.39        64.83888
670.82        64.35611
671.24        64.15181
671.67        64.35099
672.09        64.78233
672.52         65.2126
672.94        65.83635
673.37        65.47001
673.80        65.40168
674.22        65.37783
674.65        65.39509
675.07        65.45338
675.50        65.43301
675.92        65.37642
676.35        65.44861
676.77        65.66193
677.20        65.89693
677.62        66.12711
678.05        66.30894
678.47        66.40955
678.90        66.48192
679.32        66.55506
679.75        66.47885
680.17        66.51208
680.60        66.72108
681.02        66.68954
681.45        66.69415
681.87         66.6134
682.30        66.58143
682.72        66.62559
683.15         66.6711
683.57        66.77641
684.00        67.03927
684.42        67.54253
684.85        67.77233
685.27        67.72255
685.70        67.66311
686.12        67.60091
686.54        67.35017
686.97        67.03384
687.39        67.10014
687.82        67.48171
688.24        67.75671
688.66        67.83653
689.09        67.87433
689.51         67.9248
689.94        68.03121
690.36        68.20548
690.78        68.39582
691.21        68.56769
691.63        68.65121
692.06        68.62608
692.48        68.75835
692.90        68.64794
693.33        68.70189
693.75        68.80728
694.17        68.97009
694.60        69.15404
695.02        69.30286
695.44        69.37327
695.87        69.49647
696.29         69.6918
696.71        69.60283
697.14        69.38802
697.56         69.8926
697.98        70.83829
698.41         70.9591
698.83        70.12025
699.25        69.75134
699.68        69.87489
700.10        69.89689
700.52        69.83463
700.94        70.01569
701.37        70.37158
701.79        70.87775
702.21        71.10382
702.64        71.39484
703.06        71.56962
703.48        71.51616
703.90        71.24415
704.33        70.76502
704.75        70.23678
705.17        70.07271
705.59        70.32018
706.01        70.59821
706.44        70.77585
706.86        71.41378
707.28        71.50282
707.70        71.71344
708.12        71.77827
708.55        71.78284
708.97        71.72282
709.39        71.58308
709.81        71.43057
710.23         71.3723
710.66        71.43682
711.08         71.6326
711.50        71.84803
711.92        71.91327
712.34        71.79491
712.76        71.53432
713.19        71.26723
713.61        71.24348
714.03        71.49849
714.45        71.95353
714.87         72.4229
715.29         72.6122
715.71        72.46078
716.13        72.07047
716.56         71.6147
716.98        71.40379
717.40        71.51244
717.82        71.84125
718.24        72.26741
718.66        72.58049
719.08        72.70758
719.50        72.71734
719.92        72.64037
720.34        72.53383
720.76        72.43765
721.19         72.2405
721.61        72.21011
722.03        72.20325
722.45        72.28208
722.87         72.5422
723.29        72.94666
723.71        72.90497
724.13         73.1787
724.55        73.15395
724.97        73.11613
725.39        73.12951
725.81         73.2198
726.23        73.34666
726.65         73.4675
727.07        73.53825
727.49        73.55029
727.91        73.53694
728.33        73.51714
728.75        73.51833
729.17        73.54773
729.59        73.58073
730.01        73.64733
730.43        73.78345
730.85        73.99042
731.27        74.29475
731.69         74.5723
732.10        74.58762
732.52        74.30637
732.94         73.8522
733.36        73.44452
733.78        73.29267
734.20         73.4581
734.62         74.1898
735.04        75.20348
735.46         75.2803
735.88        74.63162
736.30        74.96835
736.72        76.24237
737.13        76.72704
737.55        76.17793
737.97        76.07806
738.39        76.43159
738.81        75.56612
739.23        74.01707
739.65        74.79501
740.06        77.36676
740.48         77.7401
740.90        75.98196
741.32         75.2554
741.74        75.82288
742.16        76.10976
742.57        76.15031
742.99        76.80785
743.41        77.85764
743.83        78.41893
744.25        78.38416
744.67        78.09483
745.08        77.77025
745.50        77.64638
745.92        77.83127
746.34        78.26815
746.75        78.79406
747.17        79.09728
747.59        79.12867
748.01        78.99349
748.42        78.85714
748.84        78.99559
749.26        79.47688
749.68         80.0719
750.09        80.66381
750.51        81.28342
750.93        81.73177
751.35        81.50945
751.76        80.83942
752.18         80.2791
752.60         80.6475
753.01        80.50775
753.43         80.1469
753.85        80.18614
754.27        80.67545
754.68        81.35532
755.10        82.04063
755.52        82.60523
755.93        82.94249
756.35        83.02238
756.77        83.01708
757.18        83.01707
757.60         83.0713
758.02        83.62934
758.43        84.23573
758.85        83.32524
759.26        81.60918
759.68        80.79938
760.10         82.2924
760.51        83.79465
760.93        82.32571
761.34        81.49496
761.76        81.72105
762.18        81.29768
762.59        80.82168
763.01        81.07192
763.42        82.28889
763.84         83.0583
764.26        83.32648
764.67        83.32461
765.09        83.12247
765.50        83.28806
765.92        83.57704
766.33        82.36031
766.75        80.20504
767.16        79.77672
767.58         80.6639
768.00        82.42085
768.41         84.3837
768.83         85.7313
769.24        85.91147
769.66        85.07126
770.07        83.73941
770.49        82.04057
770.90        80.53941
771.32        81.50664
771.73          84.173
772.15        83.81537
772.56        80.87263
772.97        80.16726
773.39          81.688
773.80        82.32599
774.22        81.83059
774.63        81.84824
775.05        82.33026
775.46        82.65953
775.88        82.73435
776.29        82.62413
776.70        82.40546
777.12        82.33479
777.53        82.46836
777.95        82.65482
778.36        82.79066
778.77        82.70039
779.19        82.40399
779.60        81.98303
780.02        81.58265
780.43         81.5603
780.84        82.04163
781.26        82.30072
781.67         82.3968
782.09        83.78716
782.50        85.74582
782.91        84.81647
783.33        81.79754
783.74        80.81088
784.15        82.04826
784.57        82.98014
784.98        83.20664
785.39        83.13052
785.81        82.77561
786.22        82.44151
786.63        82.33522
787.04        82.37419
787.46        82.66982
787.87        83.49214
788.28        84.46423
788.70        85.33285
789.11        84.70784
789.52        84.01363
789.93        83.20663
790.35        82.69586
790.76        82.59341
791.17        82.83131
791.58        83.28365
792.00        83.57947
792.41        83.60374
792.82        83.68702
793.23        83.86773
793.65        83.43274
794.06        82.81033
794.47        83.83943
794.88        85.64275
795.29         86.0623
795.71        82.91819
796.12        80.92193
796.53        80.00328
796.94        79.58417
797.35        79.82735
797.76        81.26338
798.18        83.23707
798.59        84.36214
799.00        84.22343
799.41        83.14925
799.82        81.70061
800.23         80.8328
800.64        80.79643
801.06        81.21313
801.47        81.91058
801.88        82.49535
802.29        82.79616
802.70        82.95776
803.11        82.99294
803.52        82.89131
803.93        82.69742
804.34        82.37955
804.75        82.03652
805.17         81.9543
805.58        82.23387
805.99        82.47012
806.40        82.58274
806.81        83.25421
807.22        84.02448
807.63        83.07147
808.04        80.93981
808.45         80.0745
808.86         80.6834
809.27        81.52651
809.68        82.22775
810.09        82.65102
810.50        82.61276
810.91        82.17517
811.32        81.57782
811.73        81.19344
812.14        81.12396
812.55        81.26733
812.96        81.53999
813.37        81.69006
813.78        81.69511
814.19        81.87432
814.60        82.08089
815.01        81.88887
815.42        81.28299
815.83        80.40556
816.24        79.61797
816.65         79.4994
817.05        80.22508
817.46        81.59049
817.87        83.07182
818.28        83.72021
818.69        83.28637
819.10        81.99405
819.51        80.47985
819.92        79.84308
820.33        80.35963
820.74        81.66754
821.14        83.13506
821.55        83.69855
821.96        83.09098
822.37        81.56532
822.78        79.74447
823.19        78.67437
823.60        78.60365
824.00        79.21247
824.41        80.10588
824.82        80.77587
825.23        80.97578
825.64        80.89808
826.04        80.66905
826.45        80.45994
826.86        80.33544
827.27        80.18754
827.68         80.0579
828.08        80.08451
828.49        80.22407
828.90        80.53038
829.31        80.85732
829.72        80.90945
830.12        80.65073
830.53        80.15283
830.94        79.68821
831.35        79.63326
831.75        80.09984
832.16        80.90778
832.57          81.864
832.97        82.54942
833.38        82.73949
833.79        82.56252
834.20        82.19582
834.60        81.90668
835.01        81.80724
835.42          81.808
835.82        81.82407
836.23        81.63963
836.64        81.25463
837.04        80.76982
837.45        80.33164
837.86        80.16618
838.26        80.32522
838.67        80.68526
839.08        81.11819
839.48        81.38741
839.89        81.37953
840.29         81.1917
840.70        80.87002
841.11        80.46331
841.51        80.02789
841.92        79.53609
842.33        79.12537
842.73        79.03465
843.14        79.26153
843.54        79.77046
843.95        80.31889
844.35         80.5629
844.76        80.39391
845.17        79.93036
845.57        79.33559
845.98         78.8772
846.38        78.63611
846.79        78.50659
847.19        78.48579
847.60        78.47511
848.00        78.48216
848.41        78.53171
848.81        78.60915
849.22        78.60314
849.62         78.5531
850.03        78.47184
850.43        78.49072
850.84        78.76016
851.24        79.34782
851.65        80.00515
852.05        80.74132
852.46        81.39201
852.86        81.89204
853.27        82.32714
853.67        82.31744
854.07        81.40589
854.48        79.68781
854.88        77.34455
855.29        75.17227
855.69        74.31483
856.10        74.97714
856.50         77.0431
856.90        79.75571
857.31        81.34712
857.71        81.26385
858.12        79.93615
858.52        78.19638
858.92        77.16003
859.33        77.07071
859.73        77.62782
860.13        78.59584
860.54        79.47534
860.94        80.10706
861.34        80.60478
861.75         80.9706
862.15        81.29679
862.55        81.56402
862.96        81.67396
863.36        81.65823
863.76        81.56177
864.17        81.41391
864.57        81.30283
864.97        81.21013
865.38        81.07664
865.78        80.94738
866.18        80.75633
866.58         80.6397
866.99        80.81141
867.39        81.35971
867.79        82.26846
868.19        83.12086
868.60        83.13388
869.00        82.16035
869.40        80.43895
869.80        78.85138
870.21        78.78503
870.61        80.61069
871.01        83.86715
871.41        87.53291
871.81         89.8553
872.22        90.30372
872.62        89.38372
873.02        87.88409
873.42        87.17255
873.82         87.4878
874.22        88.18304
874.63        88.94517
875.03        89.25387
875.43        88.81877
875.83        88.56252
876.23        87.43855
876.63        87.18507
877.03         87.8115
877.44        89.56221
877.84        102.2494
878.24        95.60217
878.64        95.10914
879.04         93.9659
879.44         90.0506
879.84        88.07088
880.24        91.43919
880.64        93.53316
881.04        94.95746
881.44        95.71677
881.84        95.04677
882.24        93.32259
882.65        91.59601
883.05        90.95387
883.45         91.5849
883.85        93.35701
884.25        95.57202
884.65        96.78993
885.05        96.56519
885.45        95.40878
885.85        94.03117
886.25        93.39466
886.65        93.71342
887.05        94.64098
887.45        95.83498
887.85        96.70047
888.25        96.99143
888.65        96.93037
889.04         96.6034
889.44         96.1744
889.84        95.72193
890.24        95.17167
890.64        94.67115
891.04        94.47182
891.44        94.59544
891.84        95.00352
892.24         95.4652
892.64        95.52634
893.04          95.135
893.44        94.52663
893.83        93.95149
894.23        93.79006
894.63        94.10184
895.03        94.67153
895.43        95.55251
895.83        96.81593
896.23        98.33739
896.63        100.0899
897.02        101.4097
897.42         101.231
897.82        99.47437
898.22        96.56179
898.62        93.60381
899.01        92.23209
899.41        92.77985
899.81        94.68008
900.21        97.09982
900.61        98.66646
901.00        98.95712
901.40        98.41993
901.80        97.44159
902.20        96.62344
902.59        96.18306
902.99        95.87505
903.39         95.6784
903.79        95.59789
904.18         95.6138
904.58        95.84682
904.98        96.17744
905.38        96.37463
905.77        96.37571
906.17        96.19823
906.57        96.02598
906.96        96.20589
907.36        96.71657
907.76        97.46273
908.15        98.12306
908.55        98.05901
908.95        97.20943
909.34         95.7553
909.74        94.24425
910.14        93.35527
910.53         93.3074
910.93        93.96571
911.33        95.02368
911.72        95.92331
912.12        96.36514
912.52        96.43604
912.91         96.4045
913.31        96.63625
913.70         97.2454
914.10        98.14942
914.49        98.90563
914.89        98.43182
915.29        96.56037
915.68        93.78783
916.08        91.39245
916.47        90.53513
916.87         91.2912
917.26        93.28107
917.66        95.53928
918.05        96.48254
918.45        95.69559
918.84        93.72417
919.24        91.57424
919.64        90.72838
920.03        91.57186
920.42          93.624
920.82        96.13987
921.21        97.94564
921.61        98.45026
922.00        98.07884
922.40        97.15816
922.79        96.11377
923.19         95.1692
923.58        94.12956
923.98        93.01762
924.37        92.21147
924.77        92.02976
925.16         90.8206
925.55        91.75124
925.95        92.55301
926.34        94.08444
926.74        95.91605
927.13        97.64926
927.52        98.37615
927.92        97.99426
928.31        96.80681
928.70         95.1133
929.10        93.45512
929.49        92.02901
929.89        90.75437
930.28        90.01414
930.67        90.43729
931.07        91.94915
931.46         94.4144
931.85        96.88617
932.24        97.94364
932.64        97.29767
933.03         95.1927
933.42        92.29479
933.82        90.15989
934.21        89.30417
934.60        89.38044
934.99        89.81232
935.39        89.95589
935.78        89.71326
936.17        89.01876
936.56        87.78097
936.96         88.5792
937.35        87.96649
937.74        88.49995
938.13        89.08522
938.53        89.99136
938.92        91.26336
939.31         93.0108
939.70        94.71327
940.09        94.95445
940.49        93.38985
940.88        90.66922
941.27        87.99495
941.66        86.75938
942.05        87.11026
942.44        88.61163
942.84        90.65533
943.23        92.22461
943.62        92.83147
944.01        92.73933
944.40        92.21389
944.79        91.67597
945.18        91.26111
945.57        90.78558
945.97        90.12489
946.36        89.19237
946.75         88.1655
947.14        87.31919
947.53        86.81837
947.92        86.71142
948.31        86.95596
948.70        87.52127
949.09        88.31642
949.48        89.08451
949.87        89.63349
950.26        89.92795
950.65         90.0313
951.04         90.1038
951.43         90.1899
951.82        90.23983
952.21        90.10065
952.60         89.5743
952.99        88.65044
953.38        87.40213
953.77        86.17387
954.16        85.42924
954.55        85.25665
954.94        85.62783
955.33        86.04117
955.72        85.63074
956.11        84.24982
956.50         82.1263
956.89        80.19027
957.28        80.13707
957.66        82.42866
958.05        86.23977
958.44         90.3084
958.83        92.77386
959.22        93.15829
959.61        91.95274
960.00        89.86328
960.39        88.07057
960.78        87.00444
961.16        86.37867
961.55        85.89536
961.94        85.10016
962.33        83.92263
962.72        82.67258
963.11        81.65955
963.49        81.19151
963.88        81.27633
964.27        81.80256
964.66        82.45525
965.04        82.64291
965.43        82.10261
965.82        81.12785
966.21        80.16332
966.60        79.77579
966.98        80.07805
967.37        80.83395
967.76         81.8247
968.15         82.5937
968.53        82.91071
968.92        82.83494
969.31        82.48802
969.69        81.99802
970.08        81.44324
970.47         80.8392
970.86        80.10473
971.24        79.13554
971.63        77.96267
972.02        76.64508
972.40        75.65007
972.79        75.73599
973.17        77.18208
973.56        79.72143
973.95        82.55655
974.33        84.10979
974.72        83.81841
975.11        82.11251
975.49        80.04557
975.88        79.11772
976.26         79.5645
976.65        81.06026
977.04        82.71048
977.42         82.4196
977.81        79.57674
978.19        75.17465
978.58        71.26644
978.96        69.83361
979.35        71.14942
979.74        74.80785
980.12        79.93262
980.51        83.37206
980.89        84.06551
981.28        82.72892
981.66        80.70372
982.05        79.75939
982.43        80.16666
982.82        81.26112
983.20        82.66981
983.59        83.96275
983.97        85.05866
984.35        86.20354
984.74        87.06807
985.12        87.26266
985.51        86.43508
985.89        84.58801
986.28        82.31392
986.66        80.47062
987.04        79.54321
987.43        79.42799
987.81        79.54105
988.20        79.10226
988.58        77.80099
988.96         75.3362
989.35        72.05244
989.73        70.58157
990.12        72.64568
990.50        77.39452
990.88        81.43102
991.27         82.0602
991.65        79.68118
992.03        75.02872
992.42        70.28111
992.80         69.2182
993.18        72.58923
993.56        78.11639
993.95        83.42538
994.33         86.3474
994.71        86.56635
995.10        85.23049
995.48        82.87582
995.86        80.09877
996.24         77.2006
996.63        73.71333
997.01        70.41651
997.39        69.78671
997.77        72.69954
998.15        78.55839
998.54        84.53699
998.92        86.88726
999.30        84.50653
999.68        78.33084
1000.06        69.86682
1000.45         63.1508
1000.83        60.05178
1001.21        59.39886
1001.59        60.54883
1001.97        62.83287
1002.35        65.92677
1002.73        70.66809
1003.12        75.54813
1003.50        75.77076
1003.88        69.59379
1004.26        59.56821
1004.64        50.26795
1005.02         45.3603
1005.40        44.98878
1005.78        48.84172
1006.16         57.8446
1006.54        68.40225
1006.92         74.1639
1007.30        75.33302
1007.69        74.66933
1008.07        74.86774
1008.45        76.52388
1008.83        79.75648
1009.21        84.82375
1009.59        84.75955
1009.97        49.45119
1010.35       -41.89409
1010.73       -69.28179
1011.11       -33.59372
1011.49        2.158969
1011.86        30.46801
1012.24        47.83083
1012.62        56.80795
1013.00        61.12365
1013.38        63.22295
1013.76        65.21228
1014.14         71.7266
1014.52        85.95544
1014.90        107.5564
1015.28        130.9832
1015.66        143.4366
1016.04        136.4818
1016.41        111.6311
1016.79        81.36877
1017.17        59.74346
1017.55        49.63334
1017.93          46.001
1018.31        45.56734
1018.69        46.60926
1019.06        48.60684
1019.44        51.39948
1019.82        56.00851
1020.20        63.05749
1020.58          72.867
1020.95        87.89478
1021.33        103.9909
1021.71        107.2587
1022.09        121.3248
1022.46        129.3504
1022.84        136.4584
1023.22        147.0649
1023.60         172.769
1023.97        418.1303
1024.35        3.602337
1024.73        49.77584
