SpectraSmart Spectrum 2.9.0.0
--------- Device Information -----------
Spectrum Name :  反射率_0
Saving Time :  2024/04/26 00:39:43
Spectro-Module Model Name : SE2030-DUVN
Spectro-Module Serial Number : OS361AC55029948
Wavelength Start : 200
Wavelength End : 1025
Wavelength Unit : Wavelength(nm)
Spectrum Unit : Reflectance(%)
-----------Spectrum Setting ------------
Integration Time : 20ms
Average : 10
Boxcar : 0
Background removal :  enabled
linearity correction :  enabled
SC :  disabled
Intensity correction :  disabled
DWT denoise :  enabled
savitzky-golay :  disabled
FFT :  disabled
Running average :  disabled
Kalman :  disabled
High pass :  disabled
---------------BEGIN--------------------
Wavelength(nm)             Reflectance(%)
200.29               0
200.75        80.22929
201.21        73.79001
201.67        66.00014
202.13        61.05569
202.58        59.57758
203.04        60.67783
203.50        63.26168
203.96        65.40928
204.42        66.32372
204.88        66.52951
205.34        66.61465
205.80        67.27904
206.26        68.95837
206.72        72.41891
207.18        78.02249
207.64        79.25578
208.10        69.42091
208.55        58.54676
209.01        53.08552
209.47        52.14695
209.93         53.7793
210.39        57.56402
210.85        61.65355
211.31        61.91525
211.77        57.29213
212.23        49.41577
212.69        41.90158
213.14        40.44217
213.60        45.83936
214.06        56.43467
214.52         68.6071
214.98         76.7907
215.44         79.2504
215.90        77.51927
216.36        73.56508
216.81        70.04013
217.27        68.13056
217.73        67.19905
218.19        65.89567
218.65        62.23549
219.11        55.31232
219.57        44.23302
220.02        30.81151
220.48        24.54677
220.94        30.17663
221.40        44.63638
221.86        57.89655
222.32        59.88799
222.77        52.00938
223.23        39.96758
223.69        29.39291
224.15        25.97274
224.61        29.16187
225.06        36.07246
225.52        43.23012
225.98        46.31342
226.44        44.55056
226.90        40.03566
227.36        34.75171
227.81        31.23948
228.27        30.52036
228.73        31.48624
229.19        33.86304
229.65        37.24991
230.10        40.94378
230.56        44.67036
231.02        47.78711
231.48        49.55966
231.93        50.03417
232.39        49.55264
232.85        48.49635
233.31        47.51021
233.77        46.82059
234.22        46.29394
234.68        45.95768
235.14        45.79396
235.60        45.80152
236.05        46.06606
236.51        46.53329
236.97        47.05345
237.43        47.64469
237.88        48.44479
238.34        49.41292
238.80        50.56551
239.26        51.76646
239.71        52.92189
240.17        53.94973
240.63         55.3359
241.08        57.22989
241.54        59.42193
242.00        61.48631
242.46        62.91081
242.91        63.81444
243.37        63.96241
243.83        64.86476
244.28        79.92641
244.74        119.9175
245.20        125.9468
245.66        117.2451
246.11        112.7013
246.57        110.4451
247.03        107.4051
247.48         89.1952
247.94        55.19297
248.40        63.76365
248.85         71.0867
249.31         75.6481
249.77        79.35468
250.22        83.53911
250.68        89.69382
251.14        97.28387
251.59        99.63772
252.05        91.92381
252.51        78.30283
252.96        65.67651
253.42        59.91234
253.88        60.15047
254.33        64.06516
254.79        70.74454
255.25        78.09367
255.70        84.44971
256.16        90.09052
256.62        93.36573
257.07        92.58278
257.53        88.91875
257.99        83.18388
258.44        77.46888
258.90        75.16061
259.35        75.27702
259.81        76.48363
260.27        76.80157
260.72        74.34181
261.18        69.88418
261.63        64.27513
262.09        59.01726
262.55        55.11087
263.00        52.59224
263.46        51.11637
263.91        49.99042
264.37        48.79097
264.83        47.29168
265.28        45.53425
265.74        43.90318
266.19        42.69677
266.65        42.09011
267.11        41.84243
267.56        41.56912
268.02        40.82087
268.47         39.4901
268.93          37.748
269.38        35.87425
269.84        34.58525
270.30         34.0745
270.75        34.15047
271.21        34.44269
271.66        34.38542
272.12        33.82695
272.57         32.9467
273.03        32.02255
273.48        31.38304
273.94        31.13733
274.39         31.1133
274.85        31.14643
275.31        30.99239
275.76        30.57907
276.22        30.02073
276.67        29.40718
277.13        28.96214
277.58        28.67347
278.04        28.50161
278.49        28.29401
278.95        27.90751
279.40        27.29365
279.86        26.57906
280.31        25.83965
280.77        25.30295
281.22        24.97017
281.68        24.79497
282.13        24.69709
282.59        24.60081
283.04        24.46995
283.50        24.37002
283.95        24.25331
284.41        24.07056
284.86        23.81393
285.32        23.49563
285.77        23.23605
286.22        23.28486
286.68        23.63528
287.13        24.17196
287.59         24.6385
288.04        24.64047
288.50        24.14994
288.95        23.30155
289.41        22.37791
289.86        21.69415
290.32         21.3901
290.77        21.34677
291.22         21.4976
291.68        21.70034
292.13        21.90752
292.59        22.16898
293.04        22.48948
293.50        22.87278
293.95        23.30081
294.40        23.72345
294.86        24.12265
295.31        24.49401
295.77        24.83945
296.22        25.17178
296.68        25.46775
297.13        25.65945
297.58         25.7657
298.04        25.83026
298.49        25.96013
298.95        26.35375
299.40        27.02857
299.85        27.91465
300.31        28.85425
300.76        29.60762
301.21        30.08916
301.67        30.38347
302.12        30.54395
302.58        30.71186
303.03        30.90868
303.48        31.10627
303.94        31.33079
304.39        31.58921
304.84        31.88452
305.30        32.21365
305.75        32.50876
306.20        32.67352
306.66        32.71223
307.11        32.64254
307.57         32.5453
308.02        32.46431
308.47        32.45145
308.93        32.49537
309.38        32.59614
309.83        32.78558
310.29        33.04378
310.74         33.3374
311.19        33.61542
311.65        33.80108
312.10        33.86703
312.55        33.83291
313.00        33.68994
313.46        33.43887
313.91        33.09636
314.36        32.69631
314.82        32.33102
315.27        32.12056
315.72          32.096
316.18        32.21936
316.63        32.42297
317.08        32.56567
317.53        32.59615
317.99        32.53679
318.44         32.4267
318.89        32.33566
319.35        32.27339
319.80        32.21905
320.25        32.12178
320.70        31.91047
321.16        31.58224
321.61         31.1739
322.06        30.75839
322.51        30.43841
322.97        30.22669
323.42         30.1036
323.87        30.00623
324.32        29.83151
324.78          29.552
325.23        29.20679
325.68        28.84266
326.13        28.53927
326.59        28.31673
327.04        28.17326
327.49        28.07621
327.94        27.97634
328.39        27.85963
328.85        27.72741
329.30        27.64141
329.75        27.66278
330.20        27.79809
330.66        28.00073
331.11        28.20728
331.56        28.27374
332.01        28.15986
332.46        27.88358
332.92        27.52074
333.37        27.25181
333.82        27.12916
334.27        27.13752
334.72        27.17239
335.17        27.04923
335.63        26.72914
336.08        26.27562
336.53         25.8653
336.98        25.77958
337.43        26.06588
337.88        26.63285
338.34        27.21874
338.79        27.44624
339.24        27.19534
339.69        26.57449
340.14        25.84968
340.59        25.48879
341.05        25.61097
341.50        26.07023
341.95        26.62011
342.40        26.89993
342.85        26.82591
343.30        26.52544
343.75        26.13215
344.20        25.87469
344.66         25.8235
345.11        25.85489
345.56        25.92517
346.01        25.97434
346.46        25.96755
346.91        25.95494
347.36        25.84703
347.81        25.48908
348.26        24.89706
348.72        24.16052
349.17         23.4755
349.62        23.24542
350.07        23.54865
350.52        24.23985
350.97        25.08218
351.42        25.70946
351.87        26.00722
352.32        26.07157
352.77        25.95742
353.22        25.76353
353.67        25.54107
354.13        25.25928
354.58        24.96304
355.03        24.76828
355.48        24.69786
355.93        24.74848
356.38        24.83077
356.83        24.78433
357.28        24.57225
357.73        24.23228
358.18        23.86983
358.63        23.65291
359.08        23.61821
359.53        23.72012
359.98        23.83253
360.43        23.76065
360.88        23.47019
361.33        23.02309
361.78        22.57874
362.23        22.39347
362.68        22.51176
363.13        22.83343
363.58        23.17802
364.03        23.26658
364.48        23.03606
364.93        22.58939
365.38        22.05089
365.83        21.61939
366.28        21.36509
366.73        21.22292
367.18        21.17822
367.63        21.20845
368.08        21.28231
368.53         21.4083
368.98        21.51706
369.43        21.49103
369.88        21.31442
370.33        21.02148
370.78        20.68844
371.23        20.45468
371.68        20.36396
372.13         20.3728
372.58        20.45988
373.03        20.58179
373.48        20.70601
373.93        20.84431
374.38        20.94143
374.83        20.91061
375.28        20.74497
375.72        20.45769
376.17        20.15775
376.62        19.98816
377.07        19.98526
377.52        20.10085
377.97        20.26439
378.42        20.35859
378.87        20.34423
379.32        20.25894
379.77        20.12394
380.22        19.96609
380.67        19.80188
381.11        19.62789
381.56        19.45408
382.01        19.30948
382.46        19.20315
382.91        19.12819
383.36         19.0887
383.81        19.08427
384.26        19.10527
384.71        19.14841
385.15        19.16423
385.60        19.09605
386.05        18.92692
386.50        18.66405
386.95        18.37805
387.40        18.19687
387.85        18.15612
388.29        18.22118
388.74        18.30388
389.19        18.25545
389.64         18.0577
390.09        17.74638
390.54        17.44687
390.98        17.36853
391.43        17.55606
391.88        17.92006
392.33        18.28193
392.78        18.38243
393.23        18.18894
393.67        17.79431
394.12        17.38368
394.57        17.15124
395.02        17.13904
395.47        17.27542
395.91        17.47942
396.36        17.58447
396.81        17.54075
397.26        17.39329
397.71        17.19811
398.15         17.0172
398.60        16.89805
399.05        16.82272
399.50        16.75378
399.95        16.59318
400.39        16.40569
400.84        16.16084
401.29        15.94975
401.74        15.90235
402.18        16.05415
402.63        16.33791
403.08        16.65096
403.53        16.82776
403.97        16.82364
404.42        16.68594
404.87        16.47551
405.32        16.30275
405.76        16.20667
406.21        16.15892
406.66        16.14341
407.11        16.14246
407.55        16.15015
408.00        16.17229
408.45        16.19335
408.90        16.17062
409.34        16.09596
409.79        15.98183
410.24        15.86787
410.68        15.81095
411.13        15.82396
411.58        15.89135
412.03         15.9774
412.47        16.02178
412.92        15.99571
413.37        15.91961
413.81        15.82988
414.26        15.79766
414.71        15.82902
415.15        15.90534
415.60        15.97094
416.05        15.95648
416.49        15.84716
416.94        15.67954
417.39        15.49716
417.83        15.37394
418.28        15.33934
418.73        15.35852
419.17        15.41781
419.62        15.48998
420.07        15.56043
420.51        15.63655
420.96        15.67922
421.41        15.62076
421.85        15.45322
422.30        15.22286
422.74        14.98888
423.19        14.86948
423.64        14.87034
424.08        14.96534
424.53        15.09034
424.98        15.16248
425.42        15.15793
425.87        15.09283
426.31          14.987
426.76        14.91627
427.21        14.87388
427.65        14.74014
428.10        14.59386
428.54        14.66003
428.99        14.95293
429.44        15.35398
429.88        15.69306
430.33        15.81057
430.77        15.64064
431.22        15.12953
431.66         14.5161
432.11        14.31695
432.56         14.5748
433.00           15.03
433.45        15.46694
433.89        15.73909
434.34        15.72169
434.78        15.33039
435.23        14.84441
435.67        14.79332
436.12        15.13708
436.57        15.33343
437.01        15.28986
437.46        15.23632
437.90        15.18689
438.35        15.07992
438.79        14.93732
439.24        14.83428
439.68        14.79346
440.13        14.73256
440.57        14.67615
441.02        14.86085
441.46        15.16666
441.91        15.06466
442.35        14.63549
442.80        14.44058
443.24         14.4609
443.69        14.48094
444.13        14.45232
444.58        14.30248
445.02        14.09209
445.47        14.12514
445.91        14.34594
446.36        14.40398
446.80        14.27108
447.24        14.14549
447.69        14.06757
448.13        14.00401
448.58        13.97257
449.02        13.98116
449.47        14.00371
449.91        13.99626
450.36        13.95281
450.80        13.88016
451.25        13.81972
451.69        13.82436
452.13        13.90304
452.58        14.02374
453.02        14.14052
453.47        14.17898
453.91        14.12779
454.36        14.01794
454.80        13.87933
455.24        13.76325
455.69        13.69794
456.13        13.65831
456.58        13.66921
457.02        13.74571
457.46        13.88632
457.91        14.07805
458.35        14.25969
458.79        14.32573
459.24        14.26782
459.68        14.10477
460.13        13.92638
460.57        13.83605
461.01         13.8742
461.46        14.00161
461.90        14.15973
462.34        14.24549
462.79        14.22919
463.23        14.13301
463.68        14.02188
464.12        14.00557
464.56        14.10966
465.01        14.30423
465.45        14.47384
465.89         14.5021
466.34        14.38485
466.78        14.08977
467.22        13.76532
467.67        13.78631
468.11        14.12336
468.55        14.33834
468.99        14.36741
469.44        14.39994
469.88        14.47334
470.32        14.64465
470.77        14.85131
471.21        14.88515
471.65         14.7275
472.10        14.53288
472.54        14.37444
472.98        14.32543
473.42        14.41126
473.87        14.61356
474.31        14.84721
474.75         14.9701
475.20        14.95561
475.64        14.84111
476.08        14.70109
476.52        14.65027
476.97        14.71722
477.41        14.86684
477.85        15.03918
478.29        15.16761
478.74        15.23129
479.18        15.17742
479.62        15.05586
480.06        15.19618
480.50        15.29918
480.95        15.39828
481.39        15.36801
481.83        15.33424
482.27        15.29754
482.72        15.13341
483.16        14.93048
483.60        15.01528
484.04        15.39212
484.48        15.65975
484.93        15.96719
485.37        16.31355
485.81        16.64023
486.25        16.85712
486.69         22.3378
487.14        17.75432
487.58        11.68352
488.02        14.25455
488.46        16.15182
488.90        16.23462
489.34        16.28741
489.79        16.25814
490.23        17.20317
490.67        17.65011
491.11        17.40646
491.55         17.2504
491.99        17.15717
492.43        16.98856
492.88        16.81588
493.32        16.82797
493.76        16.91626
494.20        17.13929
494.64        17.43726
495.08        17.79066
495.52        18.15395
495.96        18.48015
496.41        18.70162
496.85        18.80327
497.29        18.80316
497.73        18.55366
498.17        18.29053
498.61        18.46121
499.05        19.06158
499.49        19.19192
499.93        19.30796
500.37        19.44005
500.82        19.52982
501.26        19.76369
501.70        20.03925
502.14        20.19203
502.58        20.19877
503.02        20.21766
503.46        20.25705
503.90        20.21576
504.34         20.1282
504.78        20.09956
505.22        20.14716
505.66        20.24979
506.10        20.37269
506.54         20.4537
506.98        20.47726
507.42        20.46335
507.86        20.45573
508.30        20.52162
508.74        20.67048
509.18        20.87309
509.62        21.07918
510.06        21.20787
510.50        21.24066
510.94        21.21185
511.38        21.15343
511.82        21.11495
512.26        21.11497
512.70        21.13148
513.14        21.17799
513.58        21.27707
514.02        21.41302
514.46         21.5729
514.90        21.69848
515.34        21.66141
515.78        21.41882
516.22        21.16764
516.66        20.99848
517.10        20.60923
517.54        20.02959
517.98        20.85403
518.42        20.70539
518.86        21.08114
519.30        21.24986
519.74         21.4417
520.18        21.61246
520.62        21.66208
521.06        21.60732
521.50        21.45418
521.93        21.25918
522.37        21.12879
522.81        21.09203
523.25        21.12292
523.69        21.19582
524.13        21.26754
524.57        21.31797
525.01        21.35636
525.45        21.37394
525.89        21.35539
526.32         21.2974
526.76        21.20468
527.20        21.08475
527.64        20.96064
528.08        20.84655
528.52        20.72094
528.96        20.59218
529.40        20.52741
529.83        20.54034
530.27        20.40518
530.71        20.49542
531.15        20.43842
531.59        20.34791
532.03        20.22238
532.46        20.11819
532.90        20.12862
533.34        20.25734
533.78        20.46786
534.22        20.67205
534.66        20.74121
535.09         20.6458
535.53        20.43596
535.97        20.18124
536.41        19.99688
536.85        19.92059
537.28        19.92454
537.72        19.97229
538.16        20.00456
538.60        20.00467
539.04        19.97874
539.47        19.95863
539.91        20.03952
540.35        20.20707
540.79        20.35832
541.22        20.46427
541.66        20.56398
542.10        20.64732
542.54        20.67074
542.97        20.67422
543.41        20.75646
543.85        20.92686
544.29         21.1676
544.72        21.40021
545.16        21.51044
545.60        21.47954
546.04        21.34269
546.47        21.21531
546.91        21.28977
547.35        21.58831
547.79        22.04665
548.22        22.51499
548.66        22.73913
549.10        22.68097
549.53        22.46122
549.97        22.21225
550.41        22.07908
550.84        22.11668
551.28        22.28899
551.72        22.56104
552.15        22.86416
552.59        23.15433
553.03         23.4437
553.46        23.69065
553.90        23.85162
554.34        23.92856
554.77        23.90595
555.21         23.8231
555.65        23.82237
556.08        23.93892
556.52        23.84425
556.96        24.07892
557.39         24.1646
557.83        24.26267
558.27        24.36038
558.70        24.46146
559.14        24.55371
559.57        24.62485
560.01        24.68719
560.45        24.72405
560.88        24.71143
561.32        24.67088
561.75        24.59869
562.19        24.54299
562.63         24.5423
563.06        24.59953
563.50        24.70512
563.93        24.82936
564.37        24.93658
564.80        25.00721
565.24        25.06326
565.68        25.10172
566.11        25.12076
566.55        25.14381
566.98        25.16214
567.42        25.21231
567.85        25.34759
568.29        25.58498
568.72        25.82342
569.16        26.05374
569.60         26.3687
570.03        26.64259
570.47        26.59223
570.90        26.35403
571.34        26.03664
571.77        26.29069
572.21        26.46153
572.64        26.48174
573.08        26.17484
573.51        25.52948
573.95        26.62938
574.38        28.15832
574.82        27.65492
575.25        27.51008
575.69        26.58775
576.12        26.05088
576.56        25.99227
576.99        26.74068
577.42        27.76942
577.86        27.78724
578.29        27.69259
578.73        28.85238
579.16        26.57403
579.60        24.40519
580.03        25.55734
580.47        27.23406
580.90        27.57553
581.33        26.89257
581.77        26.88163
582.20        29.16821
582.64        28.88171
583.07        24.55029
583.51        24.04068
583.94        23.65489
584.37        24.61057
584.81        25.59315
585.24        26.86641
585.68        27.63919
586.11        26.85064
586.54        24.92081
586.98        24.23364
587.41        24.56397
587.85        25.61055
588.28        26.26526
588.71        25.17514
589.15        24.27568
589.58        24.90758
590.01         25.1044
590.45        25.65792
590.88        25.64517
591.31        25.25137
591.75        25.02337
592.18        25.07392
592.61        25.68168
593.05        26.15837
593.48          27.068
593.91        27.34367
594.35        25.24783
594.78        24.88391
595.21        24.89114
595.65        25.96945
596.08        26.80687
596.51        25.84182
596.94        25.34542
597.38        25.79583
597.81        26.98259
598.24        27.53238
598.68        27.30591
599.11        27.11257
599.54        28.16202
599.97        29.01964
600.41        27.57985
600.84        27.93202
601.27        28.56583
601.70        28.30887
602.14        28.36137
602.57        28.20968
603.00        28.80684
603.43        29.83826
603.87        30.87077
604.30        30.94761
604.73        30.19914
605.16        30.10123
605.60        30.86493
606.03        31.65917
606.46        32.26951
606.89        32.34494
607.32        31.96308
607.76        32.37862
608.19        33.38895
608.62        32.99871
609.05        32.53922
609.48        33.03426
609.92        33.31038
610.35        33.73895
610.78        34.93877
611.21        35.23623
611.64        34.21265
612.07        34.74052
612.50        35.05151
612.94        35.48446
613.37        35.54344
613.80        35.89423
614.23        36.52326
614.66        36.75768
615.09        37.12299
615.52        37.29311
615.96        37.38167
616.39        37.56677
616.82        37.21542
617.25        37.42228
617.68        37.93739
618.11         38.5248
618.54        38.98715
618.97        38.94888
619.40        38.59812
619.84        38.71685
620.27        39.30552
620.70        39.76986
621.13        40.01098
621.56        39.90991
621.99        39.61528
622.42        40.14406
622.85        41.19147
623.28        41.02837
623.71        40.83829
624.14        40.54536
624.57        40.46587
625.00        40.39416
625.43        40.36479
625.86        40.03797
626.29        40.17648
626.72        40.28934
627.15        40.10423
627.58        40.04014
628.01        39.96478
628.44        39.86628
628.87        39.74968
629.30        39.68792
629.73        39.63978
630.16        39.46426
630.59        39.15165
631.02        38.77638
631.45        38.37917
631.88        37.99663
632.31        37.64591
632.74        37.31788
633.17        37.00618
633.60        36.70069
634.03        36.39684
634.46        36.10032
634.89         35.8031
635.32        35.48936
635.75        35.15771
636.18        34.81396
636.61        34.46568
637.04        34.12436
637.47        33.79107
637.89        33.46211
638.32        33.13674
638.75        32.83498
639.18        32.56393
639.61        32.32798
640.04        32.10474
640.47        31.85304
640.90        31.56835
641.33        31.26048
641.76         30.9633
642.18        30.78016
642.61         30.7263
643.04        30.69922
643.47        30.63499
643.90        30.82762
644.33         30.6222
644.76        30.56076
645.18        30.47309
645.61        30.40834
646.04        30.37266
646.47        30.34742
646.90        30.38059
647.33        30.52456
647.75        30.79613
648.18        31.20811
648.61        31.62971
649.04        31.85649
649.47        31.86035
649.89        31.61406
650.32        31.38266
650.75        31.69458
651.18        32.52639
651.61        33.43023
652.03        34.11821
652.46        34.43072
652.89        34.61522
653.32        34.58406
653.74        34.48078
654.17        36.16471
654.60         36.5501
655.03        35.55977
655.46        36.66563
655.88        39.21199
656.31        42.15751
656.74         95.4759
657.16        62.39037
657.59        22.23555
658.02        16.97408
658.45        29.74555
658.87        38.41277
659.30        40.94629
659.73        40.52269
660.15        39.40699
660.58        41.50084
661.01        42.82238
661.44        41.57047
661.86        41.51996
662.29        42.16304
662.72        42.95604
663.14        43.77374
663.57        43.99775
664.00        43.77874
664.42        44.00691
664.85        44.74555
665.27        45.37816
665.70        45.73757
666.13        45.94947
666.55        45.99333
666.98        45.83172
667.41        45.63175
667.83        45.69912
668.26         46.0981
668.69        46.70959
669.11         47.3222
669.54        47.81654
669.96         47.6754
670.39        47.39295
670.82        47.03631
671.24        46.90082
671.67         47.1118
672.09        47.64457
672.52        48.26889
672.94        48.88702
673.37        48.63184
673.80        48.70858
674.22         48.9122
674.65        49.02971
675.07        49.05339
675.50        49.00396
675.92        48.95442
676.35        49.04653
676.77        49.30181
677.20        49.62708
677.62        49.96256
678.05        50.20535
678.47        50.31401
678.90        50.35605
679.32        50.34121
679.75        50.27132
680.17        50.35261
680.60        50.43665
681.02        50.49662
681.45         50.4951
681.87         50.4117
682.30        50.34058
682.72        50.31966
683.15        50.26663
683.57        50.29084
684.00        50.61664
684.42        51.34654
684.85        51.69624
685.27        51.66271
685.70         51.5402
686.12        51.42585
686.54        51.38633
686.97         51.4628
687.39        51.67712
687.82        51.93874
688.24        52.10123
688.66        52.11449
689.09         52.0489
689.51        51.97766
689.94        51.97324
690.36        52.06517
690.78        52.27824
691.21        52.46393
691.63         52.6352
692.06        52.74148
692.48        52.81337
692.90        52.87703
693.33        52.96259
693.75        53.08029
694.17        53.21806
694.60        53.36238
695.02        53.46879
695.44        53.49768
695.87        53.62787
696.29        53.85185
696.71        53.65382
697.14        53.22646
697.56        53.69046
697.98        54.79299
698.41        54.80477
698.83        54.17742
699.25        53.78346
699.68        53.85756
700.10        53.88565
700.52        53.89404
700.94        54.16193
701.37        54.60149
701.79        54.99083
702.21        55.24664
702.64        55.42786
703.06         55.4896
703.48        55.39401
703.90        55.17109
704.33        54.69065
704.75        54.34911
705.17        54.21273
705.59        54.42591
706.01        54.82122
706.44        55.23675
706.86        55.87266
707.28         55.9064
707.70        55.97649
708.12        55.92917
708.55        55.88011
708.97        55.84815
709.39        55.80664
709.81         55.7819
710.23        55.81136
710.66        55.90112
711.08        56.07326
711.50        56.25232
711.92         56.3235
712.34        56.26496
712.76        56.09636
713.19         55.9195
713.61        55.92464
714.03        56.13777
714.45        56.50264
714.87         56.8662
715.29         56.9895
715.71        56.83399
716.13        56.45755
716.56        56.01239
716.98        55.85196
717.40        56.06114
717.82        56.20721
718.24         56.7581
718.66        57.01299
719.08        57.08221
719.50        57.02233
719.92        56.89621
720.34        56.80754
720.76        56.79312
721.19        56.72858
721.61        56.80376
722.03        56.93329
722.45         57.1601
722.87        57.47407
723.29        57.81669
723.71        58.04255
724.13        58.10742
724.55        58.10721
724.97        58.11601
725.39        57.88596
725.81        58.04495
726.23        58.09019
726.65        58.15799
727.07        58.16361
727.49        58.10044
727.91        57.99958
728.33        57.90702
728.75        57.89506
729.17        57.97401
729.59        58.15456
730.01        58.39872
730.43        58.51837
730.85        58.55069
731.27        58.81218
731.69        59.19669
732.10        59.26925
732.52        58.99929
732.94        58.62965
733.36        58.35263
733.78        58.29462
734.20        58.50238
734.62        59.17893
735.04        60.07447
735.46        60.19328
735.88        59.69658
736.30        59.95949
736.72        60.93806
737.13        61.39421
737.55        61.10221
737.97        60.85278
738.39        60.77594
738.81        60.30721
739.23        59.74203
739.65        60.49371
740.06        62.14171
740.48        62.30829
740.90        61.08016
741.32        60.52414
741.74        60.84641
742.16        61.01245
742.57        61.06869
742.99        61.62282
743.41        62.50523
743.83        63.07162
744.25        63.20332
744.67        63.06509
745.08        62.81308
745.50        62.69829
745.92        62.80809
746.34        63.05698
746.75        63.34067
747.17        63.47948
747.59        63.45536
748.01         63.3348
748.42        63.26273
748.84        63.48187
749.26        64.04042
749.68         64.7361
750.09        65.41293
750.51        66.05248
750.93         66.4737
751.35        66.17374
751.76        65.38437
752.18        65.07889
752.60        65.29204
753.01        65.33471
753.43        65.19833
753.85        65.32584
754.27        65.72369
754.68        66.22113
755.10         66.7159
755.52        67.08266
755.93        67.39994
756.35         67.5162
756.77        67.55267
757.18        67.62234
757.60        67.76394
758.02        68.08925
758.43         68.3161
758.85        68.25032
759.26        66.83037
759.68        66.70213
760.10        67.37511
760.51         67.9011
760.93        67.99087
761.34        66.92169
761.76        66.45216
762.18        65.96273
762.59        66.05105
763.01        66.47037
763.42        67.14207
763.84        67.68121
764.26        67.98954
764.67        68.08697
765.09        67.99017
765.50        67.96513
765.92        67.91113
766.33        66.98811
766.75        65.60327
767.16        65.24506
767.58        66.03931
768.00        67.20109
768.41        68.44511
768.83        69.60416
769.24        70.18143
769.66        69.53204
770.07        68.12648
770.49        66.80827
770.90        65.94682
771.32        66.69554
771.73        68.49079
772.15        68.08304
772.56        65.86599
772.97        65.50932
773.39        66.94517
773.80        67.49607
774.22        66.97756
774.63        67.02546
775.05        67.57974
775.46        67.84493
775.88        67.72787
776.29        67.45733
776.70        67.15814
777.12         67.0517
777.53         67.2044
777.95        67.51671
778.36        67.82593
778.77        67.82624
779.19        67.50504
779.60        67.01642
780.02         66.5723
780.43        66.50415
780.84        66.92812
781.26        67.42731
781.67        67.90265
782.09        68.85393
782.50        69.83087
782.91        69.02739
783.33        67.08154
783.74        66.46537
784.15        67.29178
784.57        68.16136
784.98        68.75346
785.39        68.30851
785.81        67.99437
786.22        67.55587
786.63        67.50841
787.04        67.32166
787.46        67.19204
787.87        68.01094
788.28        69.42777
788.70        70.08299
789.11        69.80799
789.52        69.23624
789.93        68.63889
790.35        68.21035
790.76        68.05654
791.17        68.14202
791.58        68.37378
792.00        68.52119
792.41        68.50986
792.82        68.53957
793.23         68.6542
793.65        68.41479
794.06        68.09763
794.47        68.91454
794.88        70.18064
795.29        70.38716
795.71        67.83054
796.12        66.18084
796.53        65.39435
796.94        64.97777
797.35        65.10881
797.76        66.41989
798.18        68.32506
798.59        69.39714
799.00        69.25648
799.41        68.32423
799.82        67.09762
800.23         66.3561
800.64        66.32156
801.06        66.68184
801.47         67.2968
801.88        67.83673
802.29         68.1594
802.70        68.39375
803.11         68.5307
803.52        68.52972
803.93        68.41322
804.34        68.14152
804.75        67.84072
805.17        67.81364
805.58        68.14766
805.99        68.53331
806.40        68.79204
806.81        69.20136
807.22        69.40746
807.63        68.20087
808.04        66.15388
808.45        65.28042
808.86        65.78648
809.27        66.70494
809.68        67.64034
810.09        68.25273
810.50        68.31898
810.91        67.95699
811.32        67.38334
811.73        66.95049
812.14        66.77019
812.55        66.69854
812.96        66.73187
813.37        66.86803
813.78         67.0741
814.19        67.40912
814.60        67.67581
815.01        67.54759
815.42         66.9881
815.83        66.05727
816.24        65.12237
816.65        64.83494
817.05        65.38783
817.46        66.56502
817.87        67.88632
818.28        68.48557
818.69        68.12833
819.10        67.02844
819.51        65.74258
819.92        65.22197
820.33        65.70812
820.74        66.88889
821.14         68.2132
821.55        68.74492
821.96        68.25598
822.37        66.98442
822.78        65.48083
823.19        64.64716
823.60        64.70275
824.00        65.38561
824.41        66.31679
824.82        66.95777
825.23        67.07115
825.64        66.83895
826.04        66.46984
826.45         66.2618
826.86        66.29519
827.27        66.43345
827.68        66.57951
828.08        66.61874
828.49        66.46365
828.90        66.23359
829.31        65.95662
829.72        65.66505
830.12        65.42719
830.53        65.20793
830.94        65.13162
831.35        65.36184
831.75        65.94244
832.16        66.76832
832.57        67.66123
832.97        68.22689
833.38        68.28548
833.79        67.94586
834.20        67.43871
834.60        67.12228
835.01        67.11819
835.42        67.31586
835.82        67.57355
836.23        67.57811
836.64        67.28599
837.04        66.82292
837.45        66.34648
837.86        66.10304
838.26         66.1579
838.67        66.39139
839.08         66.7065
839.48        66.92725
839.89        66.96466
840.29        66.89899
840.70        66.73347
841.11        66.45693
841.51         66.1013
841.92        65.64263
842.33        65.22882
842.73        65.11563
843.14        65.31435
843.54        65.79071
843.95        66.28674
844.35        66.42415
844.76        66.10452
845.17        65.46648
845.57        64.75637
845.98         64.3536
846.38        64.35454
846.79        64.62315
847.19        65.03391
847.60        65.28921
848.00        65.32236
848.41        65.20312
848.81        65.02937
849.22          64.866
849.62        64.78805
850.03        64.76425
850.43        64.82294
850.84        64.97184
851.24        65.23036
851.65         65.4501
852.05        65.73258
852.46        66.07571
852.86        66.46629
853.27        66.92596
853.67        67.07352
854.07        66.43745
854.48        65.06718
854.88        63.14482
855.29         61.3436
855.69        60.63209
856.10        61.19369
856.50        62.91889
856.90        65.20657
857.31        66.63651
857.71        66.75113
858.12        65.87016
858.52         64.6457
858.92        63.93958
859.33        63.95451
859.73        64.45264
860.13        65.25462
860.54        65.97948
860.94        66.50182
861.34         66.9204
861.75        67.24277
862.15        67.56413
862.55        67.87481
862.96         68.1118
863.36        68.27819
863.76        68.38264
864.17        68.41914
864.57        68.43645
864.97        68.45762
865.38        68.49899
865.78        68.60821
866.18        68.71177
866.58        68.77483
866.99        68.73378
867.39        68.61557
867.79        68.46971
868.19        68.21961
868.60        67.71939
869.00        66.98433
869.40         66.1081
869.80        65.52155
870.21        65.86047
870.61        67.29753
871.01        69.60205
871.41        72.13407
871.81        73.79494
872.22        74.27831
872.62        73.85049
873.02        73.00718
873.42        72.85223
873.82        73.35645
874.22        73.58614
874.63        73.52047
875.03        73.31242
875.43        72.92385
875.83         73.8398
876.23        72.46339
876.63        71.47524
877.03        70.30735
877.44        69.03014
877.84        109.6337
878.24        74.56499
878.64        76.38027
879.04        79.84387
879.44        74.09195
879.84          71.447
880.24        78.77598
880.64        81.41293
881.04        81.00819
881.44        80.34496
881.84        79.42681
882.24        78.13457
882.65        77.08476
883.05         76.5126
883.45        76.45803
883.85        77.29041
884.25         78.6767
884.65        79.56166
885.05         79.6516
885.45        79.26154
885.85        78.76834
886.25        78.72163
886.65        79.23784
887.05        80.08132
887.45        81.03847
887.85        81.75011
888.25         82.0479
888.65        82.05923
889.04        81.80206
889.44        81.33785
889.84        80.73191
890.24        79.99447
890.64        79.29925
891.04        78.91142
891.44        78.87612
891.84        79.13993
892.24        79.55137
892.64        79.79911
893.04        79.81129
893.44        79.72122
893.83        79.61397
894.23        79.62649
894.63        79.77845
895.03         79.9306
895.43        80.19329
895.83        80.76405
896.23        81.62116
896.63        82.74441
897.02        83.59254
897.42        83.29209
897.82        81.77106
898.22        79.37836
898.62        77.04572
899.01        76.13689
899.41        76.89168
899.81         78.8074
900.21         81.0813
900.61        82.40862
901.00        82.41814
901.40        81.54442
901.80        80.25322
902.20        79.26078
902.59        78.81747
902.99        78.69434
903.39        78.80117
903.79        79.00557
904.18        79.23415
904.58        79.61005
904.98        80.09441
905.38        80.59475
905.77        81.05647
906.17        81.42501
906.57        81.70497
906.96        81.98675
907.36        82.20914
907.76        82.36169
908.15         82.3682
908.55        81.99529
908.95        81.28558
909.34         80.3258
909.74        79.37627
910.14         78.6501
910.53        78.23534
910.93         78.1022
911.33        78.27611
911.72        78.80959
912.12         79.5409
912.52        80.35596
912.91        81.05948
913.31        81.37996
913.70        81.32929
914.10        80.95383
914.49        80.24086
914.89        79.32816
915.29        78.42481
915.68        77.51685
916.08         76.9897
916.47        77.10007
916.87        77.80343
917.26        79.03548
917.66        80.20766
918.05        80.38068
918.45        79.37103
918.84        77.53883
919.24        75.63758
919.64        74.77062
920.03        75.22281
920.42         76.6548
920.82        78.58511
921.21        80.25044
921.61        81.13953
922.00        81.47408
922.40        81.24193
922.79        80.50809
923.19         79.4883
923.58         77.9257
923.98        75.91066
924.37        74.78584
924.77        75.22717
925.16        72.00035
925.55        74.47697
925.95        75.47184
926.34        77.64729
926.74        80.39261
927.13         82.9958
927.52        83.94859
927.92        83.03656
928.31        80.80455
928.70        77.95384
929.10        75.71735
929.49        74.45801
929.89        73.85256
930.28        74.01447
930.67        75.11649
931.07        76.90418
931.46        79.40569
931.85        81.62744
932.24        82.05775
932.64        80.45396
933.03        77.01073
933.42        72.78117
933.82         70.1137
934.21        69.72269
934.60        70.98569
934.99        72.62511
935.39        73.42906
935.78        73.20932
936.17        71.44527
936.56         68.0174
936.96        70.09746
937.35        68.68485
937.74        70.62038
938.13        72.27452
938.53        73.47506
938.92        74.29459
939.31         75.0384
939.70        75.54714
940.09        75.15288
940.49         73.8526
940.88        71.98472
941.27        70.31889
941.66        69.76291
942.05        70.35913
942.44        71.80386
942.84        73.59782
943.23        74.86143
943.62        75.20361
944.01        74.88831
944.40        74.08644
944.79        73.05975
945.18        71.92422
945.57        70.52738
945.97        69.18198
946.36        68.55783
946.75        68.92332
947.14        70.00074
947.53        71.20052
947.92        71.91681
948.31        72.11397
948.70        71.97118
949.09        71.63788
949.48        71.45975
949.87        71.57738
950.26         71.8213
950.65          72.143
951.04        72.49718
951.43        72.84199
951.82        73.22569
952.21        73.45188
952.60        73.20463
952.99        72.44003
953.38        71.22092
953.77        69.93832
954.16        69.16357
954.55        69.00657
954.94        69.39912
955.33        69.82442
955.72        69.38733
956.11        67.92886
956.50        65.70583
956.89        63.61148
957.28        63.27605
957.66        65.17322
958.05        68.51604
958.44        72.16911
958.83        74.45624
959.22        74.92847
959.61        74.03583
960.00        72.32494
960.39        70.70974
960.78        69.55306
961.16        68.62292
961.55        67.82175
961.94        67.01648
962.33         66.2064
962.72        65.57133
963.11        65.20171
963.49        65.12165
963.88        65.29446
964.27        65.70841
964.66        66.18863
965.04         66.4184
965.43        66.23141
965.82        65.75497
966.21        65.31648
966.60        65.37022
966.98        66.00251
967.37        67.04317
967.76        68.19727
968.15        68.85612
968.53        68.80186
968.92        68.16114
969.31        67.27576
969.69        66.58418
970.08        66.18441
970.47        65.98602
970.86        65.72342
971.24        64.93406
971.63        63.54768
972.02        61.72622
972.40        59.97272
972.79        59.18564
973.17        59.70467
973.56        61.24045
973.95        63.24431
974.33        64.60107
974.72        64.79311
975.11        64.09455
975.49        63.04515
975.88        62.44584
976.26        62.43329
976.65        62.82607
977.04        63.13239
977.42         62.3063
977.81        60.19354
978.19         57.3499
978.58        55.12215
978.96        54.74529
979.35        56.36565
979.74        59.75659
980.12        64.22959
980.51        67.16883
980.89        67.74898
981.28        66.58083
981.66        64.76245
982.05        63.70587
982.43        63.69156
982.82        64.13496
983.20        65.02216
983.59        66.39989
983.97        68.27934
984.35        70.84416
984.74         73.2778
985.12        73.88188
985.51         71.7801
985.89        67.18034
986.28        61.72799
986.66        58.06571
987.04        57.15334
987.43        58.31993
987.81        59.96685
988.20        60.01074
988.58        57.80629
988.96        52.96288
989.35        46.45022
989.73        43.66077
990.12        48.46563
990.50        58.33621
990.88        66.82403
991.27        68.94482
991.65        65.39037
992.03        57.70113
992.42        49.22714
992.80        46.05766
993.18        49.70822
993.56        56.84147
993.95        64.18779
994.33        68.76336
994.71        70.01573
995.10        69.44146
995.48        67.57568
995.86        64.90567
996.24        61.71481
996.63         57.4209
997.01        52.90461
997.39        51.26978
997.77        53.76402
998.15        59.87886
998.54        66.34375
998.92        68.59317
999.30        65.33253
999.68        57.61006
1000.06        47.72354
1000.45        41.27709
1000.83        40.36338
1001.21        43.02797
1001.59        47.22145
1001.97        50.82377
1002.35        53.35062
1002.73        55.81682
1003.12         57.4625
1003.50          55.934
1003.88        50.91984
1004.26        43.98877
1004.64         37.8562
1005.02        34.53668
1005.40        34.01504
1005.78        36.15633
1006.16        42.07455
1006.54        50.59489
1006.92        56.93425
1007.30        59.70901
1007.69        60.16173
1008.07        60.12512
1008.45        59.81898
1008.83         58.6818
1009.21        53.02909
1009.59        25.96126
1009.97       -63.00866
1010.35       -203.3938
1010.73        -190.677
1011.11       -100.5322
1011.49       -31.32337
1011.86        17.41691
1012.24        44.78642
1012.62        55.46184
1013.00        55.45428
1013.38        47.33777
1013.76        33.52446
1014.14        24.73004
1014.52        30.90638
1014.90        55.17382
1015.28        88.40716
1015.66        99.78086
1016.04        73.09437
1016.41        19.50929
1016.79       -27.09085
1017.17       -35.99144
1017.55       -18.75959
1017.93        4.184612
1018.31        23.06371
1018.69        33.24199
1019.06        36.02937
1019.44        32.99935
1019.82        24.19126
1020.20        12.00547
1020.58        -1.11969
1020.95       -16.07133
1021.33       -63.40308
1021.71        1125.432
1022.09        206.7817
1022.46        169.2234
1022.84        163.9983
1023.22        172.8541
1023.60        206.3947
1023.97           559.1
1024.35       -42.48351
1024.73        22.38047
