SpectraSmart Spectrum 2.9.0.0
--------- Device Information -----------
Spectrum Name :  反射率_0
Saving Time :  2024/04/26 00:34:56
Spectro-Module Model Name : SE2030-DUVN
Spectro-Module Serial Number : OS361AC55029948
Wavelength Start : 200
Wavelength End : 1025
Wavelength Unit : Wavelength(nm)
Spectrum Unit : Reflectance(%)
-----------Spectrum Setting ------------
Integration Time : 20ms
Average : 10
Boxcar : 0
Background removal :  enabled
linearity correction :  enabled
SC :  disabled
Intensity correction :  disabled
DWT denoise :  enabled
savitzky-golay :  disabled
FFT :  disabled
Running average :  disabled
Kalman :  disabled
High pass :  disabled
---------------BEGIN--------------------
Wavelength(nm)             Reflectance(%)
200.29               0
200.75        79.26491
201.21        71.96062
201.67        63.23823
202.13        57.50396
202.58        55.30754
203.04        55.82396
203.50        57.72626
203.96        58.68286
204.42        58.10275
204.88        56.91521
205.34        55.83412
205.80        55.50851
206.26        56.20361
206.72        58.25198
207.18        62.45118
207.64        66.47585
208.10        64.37444
208.55        59.16737
209.01        55.64415
209.47        54.52906
209.93        54.76965
210.39        56.02409
210.85        56.74857
211.31        53.95972
211.77        47.38229
212.23        38.48829
212.69        30.64373
213.14        29.01901
213.60        34.27524
214.06        45.10025
214.52        57.98057
214.98        67.34796
215.44        71.42136
215.90        71.57278
216.36        69.58472
216.81          67.938
217.27        67.62394
217.73        67.80894
218.19        67.46749
218.65        65.18431
219.11        60.26317
219.57        52.05111
220.02        41.39827
220.48        34.62243
220.94        35.28754
221.40        42.14892
221.86        48.99974
222.32        49.13836
222.77        43.30946
223.23        35.27615
223.69        28.70547
224.15        27.35871
224.61        30.76783
225.06        36.95637
225.52        43.27923
225.98        46.58185
226.44        46.21911
226.90        43.56726
227.36        40.17091
227.81        38.04317
228.27        37.98156
228.73        39.12994
229.19        40.88737
229.65        42.39915
230.10        43.35625
230.56        44.03577
231.02        44.64624
231.48        45.39629
231.93        46.28174
232.39        47.18526
232.85        47.90178
233.31        48.18962
233.77        47.97028
234.22        47.28979
234.68        46.30715
235.14        45.31403
235.60        44.50922
236.05        43.96331
236.51        43.54571
236.97        42.92567
237.43        42.04518
237.88        41.01477
238.34        40.25665
238.80          40.951
239.26        43.53598
239.71        47.65482
240.17        52.17551
240.63        55.59727
241.08        57.40308
241.54        57.84358
242.00          57.284
242.46        56.15429
242.91        54.49224
243.37        50.79372
243.83        43.37477
244.28        40.44837
244.74        75.48988
245.20        103.8169
245.66        107.5436
246.11        109.7851
246.57        115.3872
247.03        129.6429
247.48        160.1833
247.94        114.5647
248.40        74.97243
248.85        65.93362
249.31        64.56963
249.77        66.28651
250.22        70.22736
250.68         77.3871
251.14        87.37169
251.59        92.61732
252.05        86.79218
252.51        73.88406
252.96        61.17351
253.42        55.24538
253.88        55.43819
254.33        59.09599
254.79        65.26698
255.25        71.98314
255.70        77.66724
256.16        82.62273
256.62        85.26175
257.07        83.90887
257.53        79.66373
257.99        73.35838
258.44         67.0728
258.90        64.11221
259.35        63.64703
259.81        64.38872
260.27        64.41302
260.72        61.87279
261.18        57.45438
261.63        51.99845
262.09        47.00915
262.55        43.57506
263.00         41.6837
263.46        40.86583
263.91        40.32085
264.37         39.4401
264.83        38.05487
265.28        36.28956
265.74        34.66458
266.19        33.71164
266.65        33.56818
267.11        33.87309
267.56        34.11546
268.02        33.68967
268.47        32.50611
268.93        30.79799
269.38         28.9008
269.84        27.61795
270.30        27.17767
270.75        27.36484
271.21        27.80159
271.66        27.92226
272.12        27.55665
272.57        26.87325
273.03        26.13377
273.48        25.64727
273.94        25.51073
274.39         25.5741
274.85        25.63336
275.31        25.39704
275.76        24.81244
276.22        24.01842
276.67        23.22377
277.13        22.80837
277.58        22.77468
278.04        23.00181
278.49        23.20936
278.95        23.05858
279.40         22.4758
279.86        21.64926
280.31         20.7472
280.77        20.12314
281.22        19.81866
281.68        19.73693
282.13        19.76016
282.59        19.75069
283.04        19.65919
283.50        19.56136
283.95        19.43774
284.41        19.26732
284.86        19.05051
285.32        18.78994
285.77        18.56475
286.22        18.55782
286.68         18.7635
287.13        19.10272
287.59        19.39956
288.04        19.38835
288.50        19.04854
288.95        18.46305
289.41        17.82391
289.86        17.32043
290.32        17.06106
290.77        16.97994
291.22        17.04345
291.68        17.16349
292.13        17.31389
292.59        17.51092
293.04         17.7906
293.50        18.20629
293.95        18.73718
294.40        19.32445
294.86        19.85292
295.31        20.16409
295.77          20.242
296.22        20.15364
296.68        20.01455
297.13        19.98568
297.58        20.13833
298.04        20.43761
298.49         20.8658
298.95        21.42323
299.40        22.07133
299.85        22.79913
300.31        23.50984
300.76        24.06314
301.21        24.41268
301.67        24.61276
302.12        24.70489
302.58        24.80561
303.03         24.9347
303.48        25.07213
303.94        25.25956
304.39        25.52697
304.84        25.87167
305.30        26.27472
305.75        26.63086
306.20        26.78433
306.66        26.72993
307.11        26.51209
307.57        26.25124
308.02        26.06184
308.47        26.00589
308.93        26.04587
309.38        26.16095
309.83        26.34382
310.29        26.56257
310.74        26.80694
311.19        27.02043
311.65        27.11582
312.10        27.07395
312.55        26.91562
313.00          26.673
313.46        26.41541
313.91        26.16622
314.36        25.92917
314.82        25.73502
315.27        25.61555
315.72        25.57604
316.18        25.60466
316.63        25.66335
317.08         25.6643
317.53        25.58149
317.99        25.42851
318.44        25.24525
318.89        25.10028
319.35         25.0034
319.80        24.93535
320.25        24.85133
320.70        24.68282
321.16        24.42143
321.61        24.09853
322.06        23.76145
322.51        23.47598
322.97         23.2519
323.42        23.07711
323.87        22.92517
324.32        22.75604
324.78        22.55899
325.23        22.35112
325.68         22.1431
326.13        21.95326
326.59        21.78253
327.04        21.63866
327.49        21.51268
327.94        21.39392
328.39        21.28163
328.85        21.17152
329.30        21.09809
329.75        21.08878
330.20        21.14538
330.66         21.2375
331.11        21.34373
331.56        21.38635
332.01        21.34053
332.46        21.21171
332.92         21.0268
333.37        20.85939
333.82        20.73391
334.27         20.6548
334.72        20.58245
335.17        20.44748
335.63         20.2392
336.08         19.9796
336.53        19.77079
336.98        19.77522
337.43        20.01271
337.88        20.43346
338.34        20.84204
338.79        20.96322
339.24        20.71213
339.69        20.16726
340.14        19.55793
340.59        19.28689
341.05        19.44599
341.50        19.90938
341.95        20.44665
342.40        20.71938
342.85        20.64847
343.30        20.34881
343.75        19.94397
344.20        19.64959
344.66          19.536
345.11          19.495
345.56        19.49591
346.01        19.49347
346.46        19.45946
346.91        19.44069
347.36        19.35131
347.81        19.04221
348.26         18.5241
348.72         17.8786
349.17          17.283
349.62        17.11211
350.07        17.43527
350.52        18.11525
350.97        18.92026
351.42        19.49431
351.87        19.73128
352.32        19.72689
352.77        19.55433
353.22        19.34006
353.67        19.13942
354.13        18.91521
354.58        18.68754
355.03        18.52879
355.48        18.45238
355.93        18.46794
356.38        18.51129
356.83        18.46212
357.28        18.29511
357.73        18.03712
358.18        17.77307
358.63        17.63999
359.08        17.66375
359.53        17.80186
359.98        17.94843
360.43         17.9401
360.88        17.74645
361.33         17.4204
361.78        17.07973
362.23        16.91582
362.68        16.96383
363.13        17.14475
363.58        17.34303
364.03        17.38091
364.48        17.21456
364.93        16.91597
365.38        16.53927
365.83        16.16779
366.28        15.84601
366.73        15.54988
367.18        15.32724
367.63        15.25856
368.08        15.34095
368.53        15.54335
368.98        15.76375
369.43        15.83571
369.88        15.72499
370.33        15.48703
370.78        15.18561
371.23        14.93679
371.68         14.7861
372.13        14.69061
372.58        14.67693
373.03        14.78721
373.48        15.00289
373.93        15.30689
374.38        15.57745
374.83        15.62356
375.28        15.41652
375.72        15.00576
376.17        14.54953
376.62        14.27052
377.07         14.2341
377.52        14.36918
377.97        14.59261
378.42        14.76658
378.87        14.83633
379.32         14.8406
379.77        14.78891
380.22        14.69035
380.67        14.55718
381.11        14.38731
381.56        14.19074
382.01        14.00113
382.46        13.83366
382.91        13.68428
383.36        13.57515
383.81        13.53243
384.26        13.55374
384.71         13.6338
385.15        13.70564
385.60        13.67729
386.05        13.52976
386.50        13.28115
386.95        13.02119
387.40        12.90914
387.85        12.97681
388.29        13.16573
388.74        13.36178
389.19        13.40631
389.64        13.27926
390.09         13.0286
390.54        12.76078
390.98         12.6534
391.43        12.75414
391.88        12.98804
392.33        13.23724
392.78        13.33031
393.23         13.2408
393.67        13.03077
394.12        12.80794
394.57        12.67248
395.02        12.65134
395.47        12.70466
395.91        12.80262
396.36        12.87746
396.81        12.90343
397.26        12.88583
397.71        12.83815
398.15        12.76432
398.60          12.691
399.05         12.6276
399.50        12.54259
399.95        12.35466
400.39        12.11756
400.84        11.80806
401.29        11.54206
401.74        11.50576
402.18        11.74293
402.63        12.17299
403.08        12.63325
403.53        12.86392
403.97        12.80207
404.42         12.5247
404.87        12.15292
405.32        11.90252
405.76        11.84155
406.21        11.90187
406.66        12.02159
407.11        12.11762
407.55        12.16631
408.00        12.19842
408.45        12.21017
408.90        12.17977
409.34        12.10874
409.79        11.99692
410.24        11.88914
410.68        11.85392
411.13        11.90467
411.58        12.02991
412.03        12.17636
412.47        12.24771
412.92        12.20913
413.37        12.08697
413.81        11.95044
414.26         11.9206
414.71        12.01166
415.15         12.1883
415.60        12.35263
416.05        12.36802
416.49         12.2043
416.94        11.92023
417.39        11.60257
417.83        11.39931
418.28        11.36146
418.73         11.4317
419.17         11.5616
419.62        11.66802
420.07        11.72535
420.51        11.76166
420.96        11.76076
421.41        11.69033
421.85        11.55347
422.30        11.37643
422.74        11.20968
423.19        11.15622
423.64        11.21917
424.08        11.37609
424.53        11.55895
424.98        11.66863
425.42        11.67486
425.87        11.59954
426.31         11.4724
426.76        11.37866
427.21        11.32082
427.65        11.20065
428.10        11.08089
428.54        11.12704
428.99         11.3462
429.44        11.66931
429.88        11.95747
430.33        12.02551
430.77        11.84548
431.22        11.47686
431.66           11.08
432.11        10.94427
432.56        11.09662
433.00        11.39234
433.45        11.68684
433.89        11.88109
434.34        11.88682
434.78        11.63415
435.23        11.30708
435.67        11.26893
436.12        11.48484
436.57        11.55565
437.01        11.43639
437.46         11.3417
437.90        11.29458
438.35        11.23524
438.79        11.17168
439.24        11.15026
439.68        11.17666
440.13        11.18511
440.57         11.1783
441.02        11.30973
441.46        11.48452
441.91        11.31729
442.35         10.8869
442.80        10.63534
443.24        10.55023
443.69        10.46836
444.13        10.37382
444.58        10.25012
445.02        10.13921
445.47        10.24691
445.91        10.49092
446.36        10.54554
446.80        10.37487
447.24        10.14668
447.69        9.932689
448.13        9.775793
448.58        9.709792
449.02        9.721456
449.47        9.768765
449.91        9.780904
450.36        9.742414
450.80        9.671702
451.25        9.612992
451.69        9.623786
452.13         9.71329
452.58        9.842192
453.02        9.967182
453.47        10.01714
453.91        9.980988
454.36        9.889836
454.80        9.764585
455.24        9.642649
455.69        9.551199
456.13        9.474937
456.58        9.452537
457.02        9.524658
457.46        9.692698
457.91        9.935674
458.35        10.18251
458.79        10.30882
459.24        10.29707
459.68        10.16967
460.13        10.01682
460.57        9.949266
461.01        10.00588
461.46        10.14276
461.90        10.29907
462.34         10.3641
462.79        10.31319
463.23        10.17991
463.68        10.03533
464.12        9.994411
464.56        10.08811
465.01        10.27464
465.45        10.46482
465.89        10.56588
466.34        10.56624
466.78        10.44305
467.22        10.27798
467.67        10.30743
468.11        10.50187
468.55        10.54617
468.99        10.44033
469.44        10.39797
469.88         10.4641
470.32         10.6601
470.77        10.90521
471.21        10.98802
471.65        10.87508
472.10        10.70198
472.54        10.54113
472.98        10.47945
473.42        10.54728
473.87        10.71915
474.31        10.92512
474.75        11.04859
475.20        11.06482
475.64        11.00232
476.08        10.92369
476.52        10.92457
476.97        11.02614
477.41        11.20095
477.85        11.38099
478.29        11.48024
478.74        11.47913
479.18        11.34828
479.62        11.16732
480.06        11.24654
480.50        11.37235
480.95        11.54361
481.39        11.61861
481.83        11.61923
482.27        11.53574
482.72        11.30808
483.16        11.03469
483.60         11.0193
484.04        11.28133
484.48        11.47727
484.93        11.74823
485.37        12.17136
485.81         12.6059
486.25        12.97055
486.69        16.95832
487.14        13.28202
487.58        8.942529
488.02        10.89132
488.46        12.42543
488.90        12.37021
489.34        12.24004
489.79        12.18692
490.23        13.01211
490.67        13.47318
491.11        13.35983
491.55        13.21057
491.99        13.02566
492.43         12.8452
492.88        12.73843
493.32         12.7383
493.76        12.77137
494.20        12.95405
494.64        13.24383
495.08         13.6012
495.52        13.96736
495.96        14.27172
496.41        14.45318
496.85        14.51186
497.29        14.48049
497.73        14.27672
498.17        14.09109
498.61         14.2599
499.05         14.7711
499.49          14.908
499.93        15.01547
500.37        15.12361
500.82         15.1945
501.26        15.38591
501.70        15.62075
502.14        15.76639
502.58        15.79635
503.02        15.82287
503.46        15.84943
503.90        15.79913
504.34        15.70907
504.78        15.67693
505.22         15.7199
505.66        15.81957
506.10        15.93437
506.54        15.99067
506.98        15.97414
507.42        15.91173
507.86        15.86251
508.30        15.91734
508.74        16.08946
509.18        16.33897
509.62        16.60432
510.06        16.78559
510.50        16.85462
510.94        16.84958
511.38        16.79602
511.82        16.73426
512.26        16.68589
512.70        16.63488
513.14        16.61374
513.58        16.67709
514.02        16.81771
514.46        17.01355
514.90        17.19589
515.34        17.21579
515.78         17.0207
516.22        16.82144
516.66        16.70068
517.10        16.32026
517.54        15.70694
517.98        16.54204
518.42        16.34072
518.86        16.71741
519.30        16.90832
519.74        17.15003
520.18        17.36832
520.62        17.41228
521.06          17.292
521.50        17.02858
521.93         16.7215
522.37        16.54784
522.81        16.55064
523.25        16.67997
523.69         16.8633
524.13        16.98505
524.57        17.00941
525.01        16.97116
525.45        16.89659
525.89        16.82728
526.32        16.77658
526.76        16.72725
527.20        16.66968
527.64        16.60093
528.08        16.52195
528.52        16.42249
528.96        16.30766
529.40         16.2254
529.83        16.19026
530.27         16.0302
530.71        16.04436
531.15         15.9484
531.59        15.83665
532.03        15.70556
532.46        15.61337
532.90         15.6572
533.34        15.83589
533.78        16.10747
534.22        16.36703
534.66        16.46057
535.09        16.35614
535.53        16.11248
535.97        15.81382
536.41        15.59887
536.85        15.51314
537.28        15.52075
537.72        15.58814
538.16        15.65828
538.60        15.70985
539.04         15.7506
539.47        15.79159
539.91        15.88535
540.35        16.01798
540.79        16.11289
541.22        16.16552
541.66        16.23674
542.10        16.32705
542.54        16.39465
542.97        16.45726
543.41        16.57128
543.85         16.7381
544.29        16.95077
544.72          17.158
545.16        17.28566
545.60        17.32196
546.04        17.28753
546.47        17.26213
546.91        17.38149
547.35        17.65948
547.79        18.05257
548.22        18.45102
548.66         18.6654
549.10        18.66871
549.53        18.54886
549.97        18.41175
550.41        18.37006
550.84        18.46543
551.28        18.67529
551.72        18.95611
552.15        19.22695
552.59        19.44987
553.03        19.64223
553.46        19.80617
553.90        19.95902
554.34        20.11027
554.77        20.22917
555.21        20.30469
555.65        20.38222
556.08        20.47471
556.52         20.3291
556.96        20.44766
557.39        20.48584
557.83        20.59763
558.27        20.75048
558.70        20.92847
559.14        21.08959
559.57        21.21112
560.01        21.31445
560.45        21.38475
560.88        21.39901
561.32        21.37922
561.75        21.32023
562.19        21.27283
562.63        21.28914
563.06        21.37523
563.50        21.51003
563.93        21.66076
564.37        21.80279
564.80        21.90609
565.24        21.95156
565.68        21.95323
566.11        21.97171
566.55        22.03505
566.98        22.10675
567.42        22.21285
567.85        22.39754
568.29        22.67149
568.72        22.95279
569.16        23.24092
569.60        23.59164
570.03        23.89061
570.47        23.94578
570.90        23.87857
571.34        23.48996
571.77        23.93954
572.21        24.01135
572.64        24.09097
573.08        23.89268
573.51        23.20438
573.95         24.3578
574.38        26.01564
574.82        25.43206
575.25        25.15743
575.69        24.27337
576.12        23.91389
576.56          23.881
576.99        24.49277
577.42        25.30619
577.86        25.54396
578.29        25.38947
578.73        26.70875
579.16        24.56233
579.60        22.33869
580.03        23.32819
580.47        24.98014
580.90        25.25413
581.33        24.86827
581.77        24.58543
582.20         26.8306
582.64        26.47386
583.07        22.47313
583.51        21.93568
583.94        21.48558
584.37        22.29649
584.81        23.19901
585.24        24.34398
585.68        24.96941
586.11        24.47209
586.54        22.61847
586.98        21.99773
587.41         22.2104
587.85        23.28437
588.28        23.83769
588.71        22.56132
589.15         21.9593
589.58        22.18844
590.01        22.46244
590.45        22.83937
590.88          23.002
591.31        22.69976
591.75        22.50922
592.18        22.56683
592.61        23.11962
593.05        23.70524
593.48        24.62808
593.91        24.80696
594.35        22.70267
594.78        22.37208
595.21        22.56677
595.65        23.68599
596.08        24.48491
596.51        23.58638
596.94        23.08991
597.38        23.54054
597.81        24.77411
598.24        25.38386
598.68        25.19009
599.11        25.34471
599.54        26.27468
599.97         27.1738
600.41        26.01753
600.84         26.4774
601.27        27.19295
601.70        27.08323
602.14        27.29983
602.57        27.32046
603.00        28.06701
603.43        29.22524
603.87        30.36689
604.30        30.61098
604.73        30.13483
605.16        30.03696
605.60         30.8725
606.03        31.82627
606.46        32.76456
606.89        32.78298
607.32        32.43176
607.76        33.07565
608.19        34.24841
608.62        34.13939
609.05        33.88588
609.48        34.54168
609.92        34.96952
610.35         34.9772
610.78         36.7219
611.21         37.2704
611.64        36.12423
612.07        36.85734
612.50        37.44171
612.94        38.02992
613.37        38.03891
613.80        38.51345
614.23        39.03863
614.66        39.33632
615.09        39.82138
615.52        40.16145
615.96        40.43847
616.39        40.80674
616.82        40.52193
617.25        40.88492
617.68        41.58183
618.11        42.17193
618.54        42.49692
618.97        42.41525
619.40        42.15782
619.84         42.4434
620.27         43.2291
620.70        43.83559
621.13        44.13479
621.56        44.03153
621.99        43.70404
622.42        44.29829
622.85        45.49518
623.28        45.43794
623.71        45.08142
624.14        45.15748
624.57        44.91055
625.00        44.87396
625.43        44.88501
625.86        44.45598
626.29        44.46336
626.72        44.62721
627.15        44.29028
627.58        44.19396
628.01        44.06343
628.44        43.90879
628.87        43.73638
629.30        43.56769
629.73        43.34333
630.16        43.24483
630.59        42.67785
631.02        42.19262
631.45        41.66969
631.88         41.1814
632.31        40.74171
632.74        40.33908
633.17        39.94772
633.60        39.50948
634.03        39.01371
634.46        38.48308
634.89        37.93813
635.32        37.41005
635.75        36.91307
636.18        36.44157
636.61        35.99044
637.04        35.54672
637.47        35.09908
637.89        34.65668
638.32        34.21924
638.75        33.78801
639.18        33.36808
639.61        33.05146
640.04        32.66944
640.47        32.31183
640.90        31.93145
641.33        31.54255
641.76        31.17462
642.18        30.92618
642.61        30.81359
643.04        30.73459
643.47        30.63383
643.90        30.81767
644.33        30.63249
644.76        30.61566
645.18        30.58353
645.61         30.5634
646.04        30.55667
646.47        30.55147
646.90        30.60943
647.33        30.80543
647.75        31.16127
648.18        31.68217
648.61        32.22864
649.04        32.57721
649.47        32.69693
649.89        32.57582
650.32        32.47648
650.75         32.9217
651.18        33.89303
651.61        34.94032
652.03        35.79663
652.46        36.32859
652.89        36.78527
653.32        37.06598
653.74        37.28259
654.17        39.16613
654.60        39.55491
655.03        38.55611
655.46        40.06535
655.88        43.01336
656.31        46.80285
656.74        108.3017
657.16        70.74678
657.59         24.9374
658.02        18.95182
658.45        33.52218
658.87        43.13946
659.30        45.83497
659.73         45.6002
660.15        44.45678
660.58        46.76634
661.01        48.41108
661.44        47.22504
661.86        47.16119
662.29        47.69557
662.72        48.61248
663.14        49.76321
663.57        50.07957
664.00        49.72018
664.42         49.9332
664.85        50.79037
665.27        51.46932
665.70        51.79782
666.13        51.99339
666.55        52.04156
666.98        51.88908
667.41        51.69448
667.83        51.75003
668.26         52.1177
668.69        52.68316
669.11        53.26753
669.54        53.80469
669.96        53.72192
670.39        53.62899
670.82        53.49173
671.24        53.36934
671.67        53.44464
672.09        54.09761
672.52        55.03984
672.94        55.80139
673.37        55.38935
673.80        55.38173
674.22        55.58943
674.65        55.74898
675.07        55.86093
675.50        55.95524
675.92        56.05838
676.35        56.24186
676.77        56.51242
677.20        56.78516
677.62        57.04574
678.05        57.27603
678.47        57.45691
678.90        57.60748
679.32        57.73864
679.75        57.76386
680.17        57.91658
680.60        58.00966
681.02        58.10427
681.45        58.13334
681.87        58.09891
682.30        58.10346
682.72        58.18727
683.15        58.14058
683.57        58.29031
684.00         58.6594
684.42        59.38579
684.85         59.7481
685.27        59.73823
685.70        59.61725
686.12        59.47697
686.54        59.44823
686.97        59.57218
687.39         59.7732
687.82        59.94957
688.24        60.27157
688.66        60.23015
689.09        60.24075
689.51        60.23586
689.94        60.33878
690.36         60.5802
690.78        60.85579
691.21         61.1208
691.63        61.44514
692.06        61.73524
692.48        61.69937
692.90        61.45247
693.33         61.4075
693.75        61.60025
694.17        61.89119
694.60        62.25521
695.02        62.25959
695.44        62.54366
695.87        62.76653
696.29        63.10846
696.71        62.88152
697.14        62.34553
697.56        62.88064
697.98        64.17253
698.41        64.34718
698.83          63.492
699.25        63.05822
699.68        63.16284
700.10        63.12917
700.52        62.98484
700.94        63.10112
701.37         63.4462
701.79        63.85845
702.21        64.26095
702.64        64.68929
703.06         65.0446
703.48        65.16677
703.90        65.04557
704.33        64.72751
704.75        64.33556
705.17        64.15649
705.59        64.27082
706.01        64.49986
706.44        64.73668
706.86        65.36431
707.28        65.45917
707.70         65.7279
708.12        65.89957
708.55         65.9668
708.97        65.91724
709.39        65.75879
709.81        65.58694
710.23        65.55676
710.66        65.70567
711.08        66.02594
711.50        66.38238
711.92        66.51395
712.34        66.36356
712.76        66.09836
713.19        65.91749
713.61        65.60414
714.03        66.10823
714.45        66.61465
714.87        67.17321
715.29         67.4175
715.71        67.27718
716.13        66.86004
716.56        66.37466
716.98        66.16093
717.40        66.29644
717.82        66.76537
718.24        67.42189
718.66        67.52421
719.08         67.7638
719.50        67.60392
719.92        67.38638
720.34        67.28249
720.76        67.35374
721.19        67.41766
721.61        67.62276
722.03        67.76134
722.45        67.86403
722.87        67.95619
723.29        68.05057
723.71        68.15406
724.13        68.26387
724.55        68.36588
724.97        68.47008
725.39         68.5582
725.81        68.62183
726.23        68.74702
726.65         68.9248
727.07        68.73609
727.49        68.81894
727.91         68.6853
728.33        68.59417
728.75        68.62506
729.17        68.79582
729.59        69.11471
730.01        69.50098
730.43        69.68916
730.85        69.71494
731.27        69.96571
731.69        70.35515
732.10        70.43977
732.52        70.20287
732.94        69.87443
733.36        69.63043
733.78        69.62996
734.20        69.92924
734.62        70.39655
735.04        71.52888
735.46        71.43574
735.88        70.62246
736.30        70.92121
736.72        72.26149
737.13        72.82365
737.55         72.3408
737.97         72.1313
738.39        72.29603
738.81        71.76838
739.23        70.90691
739.65        71.69022
740.06        73.64397
740.48        73.80154
740.90        72.27699
741.32        71.59842
741.74        72.02336
742.16        72.30078
742.57        72.47274
742.99        73.29128
743.41        74.50806
743.83        75.20004
744.25        75.25069
744.67        75.06127
745.08        74.82095
745.50        74.68209
745.92        74.74415
746.34           74.98
746.75        75.33277
747.17        75.58782
747.59        75.70348
748.01        75.94479
748.42        76.30205
748.84        76.26897
749.26         76.0679
749.68        76.69184
750.09        77.94317
750.51        78.62399
750.93        78.60065
751.35        78.31937
751.76         77.9519
752.18          77.816
752.60        77.89087
753.01        77.76587
753.43        77.55946
753.85        77.54646
754.27        78.27758
754.68        79.20573
755.10        80.09294
755.52         80.5901
755.93         80.6048
756.35        80.44389
756.77        80.32337
757.18        80.24831
757.60        80.29408
758.02        80.93553
758.43         81.6882
758.85        81.40489
759.26        79.20174
759.68        79.17824
760.10        80.78324
760.51        81.66123
760.93        81.38991
761.34        80.39038
761.76        80.04029
762.18        79.23628
762.59        78.63892
763.01         78.8882
763.42        79.95066
763.84        80.69183
764.26         80.9696
764.67        81.28609
765.09        81.53035
765.50        81.52444
765.92        81.20844
766.33        79.95992
766.75        78.22683
767.16        78.08664
767.58        78.28824
768.00        79.92139
768.41        82.13333
768.83         83.6909
769.24        83.93417
769.66        83.13289
770.07        81.80232
770.49        79.89201
770.90         78.1145
771.32        79.20811
771.73        82.34928
772.15        82.27697
772.56        79.35958
772.97        78.66962
773.39        80.22496
773.80        80.92219
774.22        80.47765
774.63        80.35814
775.05        80.55323
775.46        80.69899
775.88        80.72819
776.29         80.5846
776.70        80.32751
777.12         80.2305
777.53        80.34594
777.95        80.53414
778.36        80.68781
778.77        80.62263
779.19         80.3465
779.60        79.92685
780.02        79.54949
780.43        79.58649
780.84         80.1567
781.26        80.68977
781.67        81.11012
782.09         82.3048
782.50        83.71086
782.91        82.71507
783.33        80.03672
783.74        79.49152
784.15          80.277
784.57        81.20215
784.98        81.56116
785.39        81.39041
785.81        80.75738
786.22        80.27409
786.63        80.18875
787.04        80.28103
787.46        80.58773
787.87        81.36792
788.28        82.37331
788.70        82.89548
789.11        82.79649
789.52        82.48015
789.93        82.09257
790.35         81.4304
790.76        80.75132
791.17        80.89414
791.58        81.72206
792.00        82.07695
792.41        81.78212
792.82        81.77773
793.23        81.89826
793.65         81.4537
794.06        80.78183
794.47        82.12081
794.88        84.56374
795.29        84.33603
795.71        81.63516
796.12        79.31104
796.53        78.08486
796.94        77.50722
797.35        77.79334
797.76        79.30901
798.18        81.35494
798.59        82.62884
799.00        82.68517
799.41        81.79663
799.82        80.46927
800.23        79.60213
800.64        79.44201
801.06        79.62937
801.47        80.05175
801.88        80.45496
802.29        80.71699
802.70        80.88237
803.11        80.96261
803.52        81.10913
803.93        81.27541
804.34        81.04379
804.75        80.54024
805.17        80.50254
805.58        81.06503
805.99        81.41418
806.40        81.47682
806.81        82.42789
807.22         83.6381
807.63        82.46647
808.04        79.59988
808.45        78.37373
808.86        79.06081
809.27        79.95117
809.68        80.61826
810.09        81.05888
810.50        81.07616
810.91        80.70471
811.32        80.18374
811.73        79.89377
812.14        79.93578
812.55        80.16226
812.96        80.49891
813.37         80.7975
813.78        80.98952
814.19        81.19345
814.60        81.26896
815.01        80.96801
815.42        80.28641
815.83        79.26388
816.24        78.28913
816.65        78.04224
817.05         78.7185
817.46        80.09828
817.87        81.62357
818.28        82.28086
818.69        81.80478
819.10        80.44187
819.51        78.87182
819.92        78.25479
820.33        78.87838
820.74        80.37913
821.14        82.07932
821.55        82.77187
821.96        82.19704
822.37        80.78303
822.78        79.12862
823.19        78.11222
823.60        77.97928
824.00        78.49788
824.41        79.31921
824.82        79.97473
825.23        80.23627
825.64        80.28432
826.04        80.18813
826.45         80.0299
826.86        79.85221
827.27        79.56834
827.68        79.25918
828.08        79.13177
828.49        79.16918
828.90        79.40964
829.31        79.68281
829.72        79.65298
830.12        79.27703
830.53        78.64729
830.94        78.07123
831.35        77.96668
831.75        78.45079
832.16        79.33324
832.57        80.37672
832.97        81.08379
833.38        81.20919
833.79        80.89851
834.20        80.39502
834.60        80.06747
835.01        80.04376
835.42        80.20335
835.82        80.38554
836.23        80.24393
836.64        79.75273
837.04        79.07014
837.45        78.42114
837.86         78.1529
838.26        78.35114
838.67        78.84639
839.08        79.48966
839.48        80.00554
839.89        80.23832
840.29        80.28095
840.70        80.11232
841.11        79.68264
841.51        79.04402
841.92         78.2067
842.33        77.39833
842.73        77.01258
843.14        77.09952
843.54        77.58787
843.95        78.21073
844.35        78.56676
844.76        78.51983
845.17        78.21289
845.57        77.77254
845.98         77.4082
846.38        77.19634
846.79        77.03165
847.19        76.97871
847.60        77.07111
848.00        77.32748
848.41        77.70844
848.81        78.09656
849.22        78.22929
849.62        78.11245
850.03        77.81492
850.43        77.50983
850.84        77.43266
851.24        77.70972
851.65        78.08751
852.05        78.64503
852.46        79.32157
852.86        80.05542
853.27        80.89658
853.67        81.34126
854.07        80.73845
854.48        79.13418
854.88        76.74975
855.29         74.4676
855.69        73.57544
856.10        74.31721
856.50        76.54006
856.90        79.41935
857.31         81.0414
857.71        80.81433
858.12        79.24768
858.52        77.27211
858.92        76.11668
859.33        76.04749
859.73        76.72086
860.13        77.88715
860.54        79.00443
860.94        79.87373
861.34        80.62577
861.75         81.1968
862.15        81.58079
862.55        81.75256
862.96        81.62809
863.36        81.37791
863.76        81.29488
864.17        81.45596
864.57        81.86602
864.97        82.33266
865.38        82.52538
865.78        82.42881
866.18        82.06703
866.58        81.69276
866.99        81.71663
867.39        82.30072
867.79        83.36868
868.19        84.46327
868.60        84.73003
869.00        83.96553
869.40        82.40216
869.80        80.89989
870.21        80.80859
870.61        82.49745
871.01        85.53563
871.41         88.8702
871.81        90.71104
872.22        90.57446
872.62        89.01813
873.02        87.02756
873.42        86.25494
873.82        86.95524
874.22        88.40009
874.63        90.09888
875.03        91.00571
875.43        90.59274
875.83        89.88568
876.23        88.31912
876.63        87.79543
877.03        88.43862
877.44        90.45612
877.84        101.8089
878.24        97.27851
878.64        96.97668
879.04        95.66823
879.44        92.26977
879.84        90.56615
880.24        93.36768
880.64        95.30025
881.04        96.79194
881.44        97.44032
881.84        96.45699
882.24        94.35041
882.65        92.29619
883.05        91.50182
883.45        92.16654
883.85        94.12589
884.25        96.65406
884.65        98.24126
885.05        98.37365
885.45        97.54393
885.85         96.4164
886.25        95.90874
886.65        96.23966
887.05        97.07163
887.45        98.10668
887.85        98.84129
888.25        99.06544
888.65        98.98557
889.04        98.67043
889.44        98.24982
889.84        97.78304
890.24        97.20309
890.64        96.65382
891.04        96.37089
891.44        96.38416
891.84        96.68158
892.24        97.02463
892.64        96.95724
893.04        96.44018
893.44        95.69338
893.83        95.06638
894.23        95.08443
894.63        95.81467
895.03        97.01942
895.43        98.52679
895.83        99.99344
896.23        101.1876
896.63        102.1826
897.02        102.6697
897.42        102.1874
897.82        100.7872
898.22        98.68356
898.62        96.61174
899.01        95.63802
899.41        95.99265
899.81        97.33287
900.21          99.059
900.61        100.1713
901.00        100.3522
901.40        99.87518
901.80        99.10022
902.20        98.59814
902.59         98.5396
902.99         98.7426
903.39        98.93711
903.79        98.68832
904.18         97.9277
904.58        96.89941
904.98        96.01069
905.38        95.86184
905.77        96.50652
906.17        97.65698
906.57        98.90107
906.96        99.68465
907.36        99.80613
907.76        99.48383
908.15        98.80828
908.55        97.82718
908.95        96.70601
909.34        95.40115
909.74         94.2962
910.14        93.81299
910.53        94.05958
910.93        95.01685
911.33        96.31694
911.72        97.25249
912.12        97.53406
912.52        97.29671
912.91        96.97779
913.31         97.1926
913.70        98.09646
914.10        99.54098
914.49        101.0205
914.89        101.1772
915.29        99.63836
915.68        96.96104
916.08        94.39845
916.47        93.07248
916.87        93.11583
917.26        94.16533
917.66        95.49818
918.05        95.98083
918.45        95.31526
918.84        93.92437
919.24        92.51495
919.64        92.09402
920.03        92.90866
920.42        94.57351
920.82        96.54005
921.21        98.02099
921.61        98.54194
922.00        98.39626
922.40        97.69364
922.79        96.55948
923.19        95.17059
923.58        93.44728
923.98        91.60689
924.37        90.48945
924.77        90.58675
925.16        89.86463
925.55        91.66187
925.95        93.12999
926.34        95.07518
926.74        97.12212
927.13        98.95808
927.52        99.83121
927.92        99.67808
928.31        98.73616
928.70        97.19775
929.10        95.44747
929.49        93.66218
929.89        91.82924
930.28        90.50098
930.67        90.57642
931.07        92.05119
931.46        94.72158
931.85        97.47119
932.24        98.59753
932.64        97.75382
933.03        95.29088
933.42        92.00873
933.82        89.73518
934.21        89.05941
934.60         89.4673
934.99        90.32385
935.39        90.96814
935.78        91.28364
936.17        91.33414
936.56        90.87936
936.96        91.27367
937.35        89.86698
937.74        89.01564
938.13        88.44195
938.53         88.8113
938.92        90.11774
939.31        92.31043
939.70        94.78654
940.09        95.80496
940.49        94.76891
940.88          92.411
941.27        89.83162
941.66        88.31317
942.05        88.05453
942.44        88.61829
942.84        89.72519
943.23        90.99982
943.62        92.10516
944.01        93.11462
944.40        93.83153
944.79        93.94297
945.18        93.37249
945.57        92.08728
945.97        90.21672
946.36        88.39484
946.75        87.16277
947.14        86.54578
947.53        86.47893
947.92        86.79472
948.31         87.4123
948.70        88.40946
949.09        89.66405
949.48        90.77045
949.87        91.45026
950.26        91.63734
950.65         91.4944
951.04        91.37805
951.43        91.38145
951.82        91.42812
952.21        91.25761
952.60        90.48286
952.99        89.09203
953.38        87.26668
953.77        85.53341
954.16        84.61611
954.55         84.6348
954.94        85.44121
955.33        86.38844
955.72        86.37099
956.11         85.1506
956.50        83.03348
956.89        80.92525
957.28        80.49483
957.66        82.27077
958.05        85.46716
958.44        89.04301
958.83        91.47146
959.22        92.30293
959.61        91.89458
960.00        90.73017
960.39        89.60398
960.78        88.81987
961.16        88.23011
961.55        87.52615
961.94        86.26798
962.33        84.49315
962.72        82.53808
963.11        81.01987
963.49         80.6824
963.88        81.59248
964.27        83.56712
964.66        85.91858
965.04        87.14783
965.43        86.59869
965.82        84.81632
966.21        82.70678
966.60        81.44468
966.98        81.28043
967.37        81.81623
967.76        82.70834
968.15        83.29206
968.53        83.30051
968.92        82.92825
969.31         82.4127
969.69        82.00702
970.08        81.79254
970.47        81.69781
970.86        81.52653
971.24        80.98887
971.63        80.02275
972.02         78.7105
972.40        77.53426
972.79        77.29859
973.17        78.32346
973.56        80.32931
973.95        82.58598
974.33         83.6581
974.72        83.04437
975.11        81.16763
975.49        79.02731
975.88         78.0073
976.26        78.31783
976.65        79.69906
977.04        81.25443
977.42        80.89177
977.81        78.05795
978.19         73.7356
978.58         70.1159
978.96        69.43761
979.35         72.0183
979.74        77.38258
980.12        84.39168
980.51        89.10878
980.89        90.06441
981.28        88.24518
981.66        85.20921
982.05        83.01439
982.43          82.118
982.82        81.84831
983.20        82.13599
983.59        83.01621
983.97        84.47998
984.35        86.71632
984.74        89.06407
985.12        90.21532
985.51        89.32668
985.89           86.59
986.28        82.89138
986.66        79.72756
987.04        77.92303
987.43        77.26659
987.81        77.19028
988.20        76.92951
988.58        76.20378
988.96        74.91869
989.35        73.63184
989.73        74.55121
990.12        78.33525
990.50        83.59835
990.88        87.26474
991.27        87.34147
991.65        84.34714
992.03        78.93114
992.42        73.04242
992.80        70.26363
993.18        71.64378
993.56        75.22455
993.95        79.18511
994.33        81.94234
994.71        83.08813
995.10         83.5421
995.48        83.16721
995.86        81.49998
996.24        78.54247
996.63        73.92507
997.01          69.047
997.39        67.98041
997.77        72.29402
998.15        80.94704
998.54        89.82328
998.92        93.35521
999.30        90.01633
999.68         81.1235
1000.06        69.24838
1000.45         60.7924
1000.83        58.43834
1001.21        60.14682
1001.59        63.85855
1001.97        67.32269
1002.35        70.00253
1002.73        73.13779
1003.12        75.87569
1003.50        75.50436
1003.88        71.19219
1004.26        64.24013
1004.64        57.99005
1005.02        55.42325
1005.40        56.77089
1005.78        62.22314
1006.16         71.9153
1006.54        79.85729
1006.92        80.45218
1007.30        76.59942
1007.69        72.33907
1008.07        70.06664
1008.45        69.52541
1008.83        70.15621
1009.21        71.37542
1009.59        66.95883
1009.97        35.88921
1010.35       -29.83154
1010.73       -38.71213
1011.11       -4.214746
1011.49        26.26895
1011.86        49.18953
1012.24         62.0475
1012.62        66.48161
1013.00        65.39294
1013.38        60.01719
1013.76        52.39533
1014.14        50.84636
1014.52        62.86857
1014.90         90.6853
1015.28        127.2901
1015.66         149.379
1016.04         142.248
1016.41        109.9392
1016.79          70.957
1017.17        46.65304
1017.55        38.82447
1017.93        38.23658
1018.31        40.96808
1018.69        45.69076
1019.06        52.41993
1019.44         62.6331
1019.82        78.36406
1020.20        97.64791
1020.58        116.2931
1020.95        129.6157
1021.33        126.7402
1021.71        185.9805
1022.09        132.1093
1022.46        130.0205
1022.84        131.3367
1023.22        138.1943
1023.60        159.3555
1023.97        367.0265
1024.35        15.95751
1024.73        56.12917
