SpectraSmart Spectrum 2.9.0.0
--------- Device Information -----------
Spectrum Name :  反射率_0
Saving Time :  2024/04/26 00:49:23
Spectro-Module Model Name : SE2030-DUVN
Spectro-Module Serial Number : OS361AC55029948
Wavelength Start : 200
Wavelength End : 1025
Wavelength Unit : Wavelength(nm)
Spectrum Unit : Reflectance(%)
-----------Spectrum Setting ------------
Integration Time : 20ms
Average : 10
Boxcar : 0
Background removal :  enabled
linearity correction :  enabled
SC :  disabled
Intensity correction :  disabled
DWT denoise :  enabled
savitzky-golay :  disabled
FFT :  disabled
Running average :  disabled
Kalman :  disabled
High pass :  disabled
---------------BEGIN--------------------
Wavelength(nm)             Reflectance(%)
200.29               0
200.75        79.52364
201.21        72.77261
201.67        65.63919
202.13        62.15664
202.58        62.75079
203.04        66.52181
203.50         71.9594
203.96        76.19318
204.42        78.07536
204.88        78.39182
205.34        78.31989
205.80        79.30846
206.26        82.20432
206.72        88.48189
207.18        99.82239
207.64        106.9158
208.10        95.38015
208.55        78.69835
209.01        69.53661
209.47        67.71008
209.93        70.22556
210.39        75.99571
210.85        82.40108
211.31        83.53242
211.77        77.70233
212.23        67.31413
212.69        56.99739
213.14        53.92524
213.60        59.25796
214.06        70.77603
214.52        84.39408
214.98        93.79229
215.44        96.95132
215.90        95.78728
216.36        92.01272
216.81        87.84488
217.27        84.70129
217.73        82.12286
218.19        79.53097
218.65        76.05556
219.11        71.02092
219.57        63.51112
220.02        54.85727
220.48        51.62422
220.94        56.61851
221.40        67.83102
221.86        76.72598
222.32        74.84914
222.77         64.0923
223.23        49.84508
223.69        38.24242
224.15        35.56984
224.61        40.99725
225.06        51.33343
225.52        61.95315
225.98        66.73787
226.44        64.65537
226.90         58.2665
227.36        51.03449
227.81        47.69576
228.27        49.45994
228.73        54.27457
229.19        59.99792
229.65        63.54409
230.10        64.18701
230.56        63.33358
231.02        61.94862
231.48        61.04277
231.93        60.76868
232.39        60.68877
232.85        60.63897
233.31        60.52503
233.77        60.26958
234.22        60.02695
234.68        59.61153
235.14        58.61951
235.60        57.09332
236.05        55.25047
236.51        53.59517
236.97        52.75826
237.43        52.89118
237.88        54.01801
238.34        55.86084
238.80        57.69128
239.26         58.9094
239.71        59.60552
240.17        59.73703
240.63        59.98211
241.08        60.69076
241.54        61.64353
242.00        62.61694
242.46        63.31481
242.91        63.86451
243.37        64.11164
243.83        66.56874
244.28        89.07413
244.74         141.301
245.20        144.9598
245.66        131.8037
246.11        125.6265
246.57        123.1697
247.03        120.6574
247.48        100.0166
247.94        49.96863
248.40        57.06557
248.85        66.23967
249.31        72.18477
249.77        76.97414
250.22        82.35576
250.68        90.22761
251.14        100.6152
251.59        106.7965
252.05        102.2833
252.51        90.21417
252.96        77.11808
253.42        69.09581
253.88        65.77498
254.33        65.39005
254.79        67.88768
255.25        72.44597
255.70        77.76559
256.16        83.42876
256.62        87.71479
257.07         88.9416
257.53        87.77427
257.99        84.61757
258.44        80.71844
258.90        78.53419
259.35        77.39471
259.81          76.798
260.27         75.3942
260.72        71.84812
261.18        66.93269
261.63        61.22298
262.09        56.18094
262.55        52.79875
263.00        50.97374
263.46        50.26075
263.91        49.77538
264.37        48.89023
264.83        47.41333
265.28        45.48999
265.74        43.63792
266.19        42.36409
266.65        41.87995
267.11         41.8519
267.56        41.83882
268.02        41.34248
268.47        40.24844
268.93        38.75843
269.38        37.12728
269.84        36.00941
270.30        35.57607
270.75        35.63565
271.21        35.87051
271.66        35.80457
272.12        35.30555
272.57        34.53273
273.03         33.7021
273.48        33.04289
273.94        32.65922
274.39        32.42519
274.85        32.26583
275.31        32.06153
275.76        31.75859
276.22        31.42117
276.67        31.05848
277.13         30.7819
277.58        30.54891
278.04         30.3571
278.49        30.09657
278.95        29.69004
279.40         29.1005
279.86        28.43467
280.31        27.73838
280.77        27.20049
281.22        26.81791
281.68        26.56919
282.13        26.40016
282.59        26.27644
283.04        26.15955
283.50        26.08733
283.95        25.99339
284.41        25.80439
284.86        25.50255
285.32        25.12055
285.77        24.75319
286.22        24.61279
286.68        24.70492
287.13        24.93476
287.59        25.13482
288.04        25.03992
288.50        24.63631
288.95        24.01079
289.41        23.33909
289.86        22.77447
290.32        22.42425
290.77        22.21708
291.22        22.16941
291.68        22.26806
292.13        22.49099
292.59        22.83795
293.04        23.25047
293.50        23.63622
293.95        23.95463
294.40        24.19899
294.86        24.39114
295.31        24.58119
295.77        24.79346
296.22        25.02542
296.68        25.25551
297.13        25.42051
297.58        25.53263
298.04        25.63013
298.49        25.80112
298.95        26.21302
299.40        26.87186
299.85        27.71217
300.31        28.57751
300.76        29.23372
301.21        29.60863
301.67        29.79853
302.12        29.87432
302.58        29.99992
303.03        30.20183
303.48        30.44056
303.94        30.74576
304.39        31.12782
304.84        31.58015
305.30        32.09501
305.75        32.56084
306.20        32.81508
306.66        32.85379
307.11        32.71381
307.57        32.53776
308.02        32.46523
308.47         32.5632
308.93        32.78675
309.38        33.07597
309.83        33.36728
310.29        33.61844
310.74        33.83122
311.19        33.99976
311.65        34.11332
312.10        34.16842
312.55        34.17084
313.00        34.09446
313.46        33.91224
313.91        33.62897
314.36        33.28078
314.82        32.97948
315.27        32.87404
315.72        32.99424
316.18        33.28788
316.63        33.63398
317.08        33.80714
317.53        33.74324
317.99        33.49572
318.44        33.17994
318.89        32.98498
319.35        32.95206
319.80        33.03118
320.25        33.11296
320.70        33.02179
321.16        32.72206
321.61        32.28095
322.06        31.81407
322.51        31.49126
322.97        31.34082
323.42         31.3159
323.87        31.32076
324.32        31.20027
324.78        30.91172
325.23        30.51722
325.68        30.08549
326.13        29.72951
326.59        29.48277
327.04         29.3333
327.49        29.25079
327.94        29.19019
328.39        29.13431
328.85        29.08524
329.30         29.0843
329.75        29.15321
330.20         29.2883
330.66        29.44969
331.11        29.60283
331.56         29.6522
332.01        29.57199
332.46        29.37127
332.92        29.09775
333.37        28.88348
333.82        28.76225
334.27        28.72846
334.72        28.71406
335.17        28.59498
335.63        28.34896
336.08        28.02792
336.53         27.7534
336.98         27.7217
337.43         27.9634
337.88         28.4067
338.34        28.87136
338.79        29.11548
339.24        29.04682
339.69        28.73594
340.14        28.32772
340.59        28.08211
341.05        28.06762
341.50        28.20361
341.95        28.38757
342.40        28.46781
342.85        28.40551
343.30        28.27045
343.75        28.08294
344.20        27.87649
344.66        27.67667
345.11        27.43634
345.56        27.23057
346.01        27.17252
346.46        27.26345
346.91        27.48562
347.36        27.66353
347.81        27.51438
348.26         27.0132
348.72        26.28749
349.17        25.56692
349.62        25.30824
350.07        25.60945
350.52        26.30344
350.97        27.14351
351.42         27.7546
351.87         28.0186
352.32        28.03899
352.77        27.87961
353.22        27.64681
353.67        27.39578
354.13         27.0994
354.58        26.78599
355.03        26.54689
355.48        26.40299
355.93        26.35592
356.38        26.35846
356.83        26.31513
357.28        26.19865
357.73        26.02933
358.18        25.84284
358.63        25.69794
359.08        25.61005
359.53        25.56245
359.98        25.51592
360.43        25.41316
360.88         25.2449
361.33        25.02809
361.78        24.82265
362.23        24.72414
362.68        24.74348
363.13        24.83943
363.58        24.92778
364.03        24.87893
364.48        24.66649
364.93        24.34019
365.38        23.96507
365.83        23.64483
366.28        23.41862
366.73        23.25865
367.18        23.16138
367.63        23.11969
368.08        23.11792
368.53        23.15537
368.98        23.19638
369.43        23.18059
369.88         23.0961
370.33        22.95962
370.78        22.79291
371.23        22.64018
371.68        22.52011
372.13        22.41707
372.58         22.3514
373.03         22.3553
373.48        22.42371
373.93        22.54444
374.38        22.65351
374.83        22.65024
375.28          22.517
375.72        22.27484
376.17        22.01182
376.62        21.83246
377.07        21.77054
377.52        21.79273
377.97        21.86177
378.42        21.91615
378.87        21.92988
379.32        21.91848
379.77        21.88479
380.22        21.83114
380.67        21.75872
381.11        21.66381
381.56        21.54116
382.01        21.39443
382.46        21.23071
382.91         21.0567
383.36        20.88917
383.81        20.75154
384.26        20.65054
384.71        20.58268
385.15         20.5252
385.60        20.45666
386.05        20.36025
386.50        20.23564
386.95         20.1015
387.40        19.99307
387.85        19.92679
388.29        19.89633
388.74        19.87878
389.19        19.80888
389.64        19.67763
390.09        19.48686
390.54        19.31676
390.98        19.29913
391.43        19.45848
391.88        19.74164
392.33        19.99479
392.78        19.99278
393.23        19.72126
393.67        19.26286
394.12        18.82385
394.57        18.62506
395.02        18.70886
395.47        18.99914
395.91        19.37609
396.36         19.5949
396.81        19.58115
397.26        19.39542
397.71        19.13872
398.15        18.94398
398.60        18.87414
399.05        18.88574
399.50          18.904
399.95        18.77432
400.39        18.56309
400.84         18.2517
401.29        17.96477
401.74        17.88526
402.18        18.06509
402.63        18.41837
403.08         18.8127
403.53        19.03709
403.97        19.03567
404.42        18.87109
404.87        18.62288
405.32        18.43183
405.76        18.34576
406.21        18.32471
406.66        18.34481
407.11        18.38033
407.55        18.42299
408.00        18.48294
408.45        18.53882
408.90        18.53382
409.34        18.45641
409.79        18.32145
410.24        18.18451
410.68        18.12607
411.13        18.16437
411.58        18.27885
412.03        18.41675
412.47        18.48692
412.92        18.45011
413.37        18.33578
413.81        18.20179
414.26        18.15401
414.71        18.20372
415.15        18.31985
415.60        18.42399
416.05        18.40981
416.49        18.25667
416.94        18.01851
417.39        17.75907
417.83        17.58509
418.28        17.53851
418.73        17.57227
419.17        17.67306
419.62        17.81742
420.07        17.98322
420.51        18.17465
420.96        18.32351
421.41        18.31206
421.85        18.12342
422.30        17.82608
422.74        17.51217
423.19        17.35176
423.64        17.36195
424.08        17.50459
424.53         17.7067
424.98        17.86852
425.42        17.95658
425.87        17.98918
426.31        17.97437
426.76        17.97892
427.21        17.98708
427.65        17.85233
428.10        17.67982
428.54        17.75551
428.99        18.10052
429.44        18.60034
429.88        19.02756
430.33        19.08937
430.77        18.74481
431.22        18.09721
431.66        17.42264
432.11        17.21031
432.56        17.51031
433.00        18.06939
433.45        18.63223
433.89        19.03207
434.34        19.08679
434.78        18.58352
435.23        17.89316
435.67         17.7965
436.12         18.2517
436.57        18.53301
437.01        18.51405
437.46        18.48182
437.90        18.44895
438.35        18.34061
438.79        18.18641
439.24          18.081
439.68        18.05374
440.13        18.00092
440.57        17.95889
441.02        18.22954
441.46        18.66688
441.91         18.6146
442.35        18.14823
442.80        17.93205
443.24        17.94299
443.69        17.91845
444.13        17.82564
444.58        17.61735
445.02        17.37896
445.47        17.47334
445.91        17.80398
446.36        17.88852
446.80        17.68448
447.24         17.4574
447.69        17.29042
448.13        17.19714
448.58        17.20951
449.02        17.31609
449.47        17.45706
449.91         17.5335
450.36         17.5234
450.80        17.45182
451.25        17.37499
451.69        17.36798
452.13        17.44868
452.58        17.57401
453.02        17.70339
453.47        17.77639
453.91        17.77955
454.36        17.74201
454.80        17.66945
455.24        17.56841
455.69        17.46196
456.13        17.34127
456.58        17.26666
457.02        17.30048
457.46         17.4536
457.91        17.69642
458.35        17.94773
458.79        18.07288
459.24        18.05278
459.68        17.91223
460.13        17.74357
460.57        17.64862
461.01        17.67197
461.46        17.77505
461.90        17.90421
462.34        17.96901
462.79        17.94191
463.23        17.84464
463.68        17.74246
464.12        17.74704
464.56        17.88136
465.01        18.11849
465.45        18.32709
465.89        18.38402
466.34        18.28468
466.78        17.97258
467.22        17.61934
467.67        17.67764
468.11        18.10409
468.55        18.35024
468.99        18.33882
469.44        18.32028
469.88        18.34952
470.32        18.49485
470.77         18.7052
471.21         18.7612
471.65        18.64381
472.10         18.5332
472.54        18.46976
472.98        18.45546
473.42        18.50677
473.87        18.63185
474.31        18.78371
474.75        18.88237
475.20        18.91468
475.64        18.89245
476.08        18.86153
476.52        18.89231
476.97        19.00128
477.41        19.16962
477.85        19.34344
478.29         19.4736
478.74        19.54794
479.18        19.48564
479.62        19.34839
480.06        19.56041
480.50        19.73174
480.95        19.90059
481.39        19.89899
481.83        19.88311
482.27        19.85176
482.72        19.63943
483.16        19.34941
483.60        19.41171
484.04        19.84185
484.48        20.04372
484.93        20.25489
485.37        20.71889
485.81        21.30676
486.25        21.35338
486.69        28.31632
487.14        22.37127
487.58         14.6929
488.02        18.26829
488.46        20.38114
488.90         20.5333
489.34        20.86741
489.79        20.78122
490.23        21.73818
490.67        22.24188
491.11        22.09789
491.55        22.08831
491.99        22.13754
492.43        22.06416
492.88        21.92432
493.32        21.96412
493.76        22.06597
494.20        22.31858
494.64        22.65059
495.08        23.12092
495.52        23.63334
495.96        23.86937
496.41        23.83252
496.85        23.96988
497.29         24.2687
497.73        24.07701
498.17         23.6745
498.61        23.89988
499.05        24.74702
499.49        24.92148
499.93        25.00979
500.37        25.08495
500.82        25.10607
501.26        25.36407
501.70        25.73867
502.14        26.00156
502.58        26.08512
503.02        26.13443
503.46        26.14764
503.90        26.01413
504.34        25.81429
504.78        25.74061
505.22        25.82941
505.66        26.03313
506.10        26.28356
506.54         26.4609
506.98        26.53033
507.42        26.53123
507.86        26.52439
508.30        26.60346
508.74        26.78593
509.18        27.02851
509.62        27.27869
510.06        27.45479
510.50        27.53405
510.94        27.55328
511.38         27.5313
511.82        27.49443
512.26        27.46067
512.70        27.41815
513.14        27.40343
513.58        27.47841
514.02        27.63735
514.46        27.85284
514.90        28.05252
515.34        28.08778
515.78         27.9087
516.22        27.70709
516.66        27.56119
517.10        27.18658
517.54        26.61514
517.98        27.31344
518.42        27.12793
518.86        27.47935
519.30        27.70216
519.74         27.9928
520.18        28.27613
520.62        28.40399
521.06        28.37502
521.50        28.20881
521.93        27.97804
522.37        27.81569
522.81        27.76162
523.25        27.78317
523.69        27.84674
524.13        27.89766
524.57        27.91459
525.01        27.91309
525.45        27.89843
525.89        27.87555
526.32        27.84339
526.76        27.79904
527.20        27.72908
527.64        27.62535
528.08        27.49771
528.52        27.32977
528.96        27.14711
529.40        27.06343
529.83        27.10192
530.27        26.95161
530.71         27.1043
531.15        27.06805
531.59        26.98876
532.03        26.86693
532.46        26.75637
532.90        26.74143
533.34        26.82796
533.78        26.98575
534.22         27.1395
534.66        27.18042
535.09        27.08197
535.53        26.88986
535.97        26.66609
536.41        26.51482
536.85        26.46871
537.28        26.50314
537.72        26.57552
538.16        26.61853
538.60        26.61637
539.04        26.57318
539.47        26.53404
539.91        26.63358
540.35        26.85384
540.79         27.0563
541.22        27.20543
541.66        27.35654
542.10        27.49504
542.54        27.56536
542.97        27.60433
543.41        27.71645
543.85        27.91236
544.29        28.17376
544.72         28.4296
545.16        28.58181
545.60        28.61172
546.04        28.54764
546.47         28.4973
546.91        28.64097
547.35        28.99685
547.79        29.51114
548.22          30.027
548.66         30.2769
549.10         30.2271
549.53        30.01022
549.97        29.78691
550.41        29.73179
550.84        29.90408
551.28        30.26046
551.72        30.72124
552.15        31.13606
552.59        31.44306
553.03        31.67939
553.46        31.84834
553.90        31.98577
554.34        32.11024
554.77        32.17359
555.21        32.18501
555.65         32.2639
556.08        32.43687
556.52        32.28462
556.96        32.55767
557.39        32.63232
557.83        32.74126
558.27        32.86141
558.70        33.00625
559.14        33.17873
559.57        33.35574
560.01        33.53987
560.45        33.69667
560.88        33.75475
561.32        33.72828
561.75          33.679
562.19        33.64684
562.63        33.51741
563.06        33.37723
563.50        33.48108
563.93        33.78533
564.37        33.99538
564.80        34.07515
565.24         34.2019
565.68        34.35699
566.11        34.44588
566.55        34.49308
566.98        34.51376
567.42         34.5664
567.85        34.73882
568.29        35.06314
568.72        35.39857
569.16        35.73815
569.60        36.19661
570.03        36.60323
570.47          36.576
570.90        36.28247
571.34        35.80808
571.77        36.34251
572.21        36.38236
572.64        36.30532
573.08        36.17009
573.51        34.93041
573.95         36.3986
574.38        38.49742
574.82        37.59713
575.25        37.49616
575.69        36.33685
576.12        35.83982
576.56        35.59181
576.99        36.31971
577.42        37.97261
577.86        37.70595
578.29        37.55861
578.73        39.45942
579.16         36.4278
579.60        33.23226
580.03            34.7
580.47        36.96821
580.90        37.59732
581.33         36.6535
581.77        36.29565
582.20        39.85803
582.64        39.11412
583.07        33.34583
583.51         32.6371
583.94        32.19605
584.37        33.74757
584.81        35.43477
585.24         37.0143
585.68        37.42345
586.11         36.8431
586.54        34.16778
586.98        33.36427
587.41        33.66244
587.85        35.33175
588.28        36.35119
588.71        34.70271
589.15        33.74724
589.58        34.03394
590.01        34.46411
590.45        34.99688
590.88        35.30998
591.31        34.87845
591.75        34.58173
592.18        34.57458
592.61        35.28501
593.05        36.01806
593.48        37.51035
593.91        37.83611
594.35        34.82437
594.78        34.19832
595.21        34.17597
595.65        35.78696
596.08        37.16933
596.51        35.92705
596.94        35.20713
597.38        35.82493
597.81        37.49116
598.24        38.44094
598.68        37.73629
599.11        37.70271
599.54        39.68028
599.97        40.51006
600.41        38.36238
600.84        38.72155
601.27        39.79006
601.70        39.61727
602.14        39.80997
602.57        39.61274
603.00        40.36465
603.43        41.72058
603.87        43.10109
604.30        43.21167
604.73        42.28764
605.16        41.94675
605.60        42.75843
606.03        43.94977
606.46        45.16671
606.89        45.31207
607.32        44.37966
607.76        44.75554
608.19        46.46677
608.62        46.24144
609.05        45.79228
609.48        46.36776
609.92        46.40388
610.35        46.82532
610.78        48.66726
611.21        49.37923
611.64        47.53556
612.07        48.21148
612.50        48.67896
612.94        49.19268
613.37        49.04034
613.80        49.42598
614.23         50.0088
614.66        50.25101
615.09        50.74254
615.52         51.0206
615.96        51.16854
616.39        51.46322
616.82        51.04702
617.25         50.9891
617.68        51.77239
618.11        52.43956
618.54         52.9626
618.97        52.86874
619.40        52.48517
619.84        52.37828
620.27         53.5273
620.70         54.1504
621.13        54.42127
621.56        53.87574
621.99         53.2108
622.42        53.92376
622.85        55.70146
623.28        55.31792
623.71        55.04073
624.14        54.65361
624.57        54.51768
625.00        54.45107
625.43        54.46803
625.86        54.06578
626.29        54.27979
626.72        54.48543
627.15        54.27736
627.58         54.2584
628.01        54.21319
628.44        54.05957
628.87        53.87676
629.30        53.70572
629.73        54.03164
630.16         53.8666
630.59         53.3521
631.02        52.75308
631.45        52.18734
631.88        51.71622
632.31        51.37239
632.74        51.14029
633.17        50.95551
633.60        50.71009
634.03        50.37271
634.46        49.97946
634.89        49.55635
635.32        49.14679
635.75        48.76762
636.18        48.39681
636.61        48.03903
637.04        47.70487
637.47        47.38627
637.89        47.08625
638.32         46.7628
638.75        46.37723
639.18        45.93166
639.61        45.45429
640.04        44.98414
640.47        44.57568
640.90        44.24778
641.33        43.98388
641.76        43.77024
642.18          43.646
642.61        43.60307
643.04        43.53187
643.47        43.38483
643.90        43.64831
644.33        43.41383
644.76        43.41739
645.18        43.40301
645.61        43.41278
646.04        43.44495
646.47        43.48531
646.90        43.57981
647.33        43.77053
647.75         44.0768
648.18        44.51047
648.61        44.94446
649.04        45.20349
649.47        45.26348
649.89        45.03291
650.32        44.80329
650.75        45.24855
651.18        46.31904
651.61         47.3129
652.03         47.9745
652.46        48.42719
652.89        48.87519
653.32        48.89289
653.74        48.77497
654.17        50.09804
654.60        50.97001
655.03        49.69763
655.46        51.12712
655.88        54.18639
656.31        57.62584
656.74        129.8785
657.16        84.02094
657.59        29.60395
658.02        22.88845
658.45        40.61764
658.87        52.34369
659.30        55.19901
659.73        55.24669
660.15        53.01263
660.58        55.79787
661.01        57.38787
661.44        55.77371
661.86        55.44921
662.29        55.79505
662.72        56.70146
663.14        57.93722
663.57        58.06536
664.00        57.30848
664.42        57.31964
664.85         58.1809
665.27        58.83144
665.70        59.06876
666.13        59.17825
666.55        59.13428
666.98        58.85883
667.41        58.51908
667.83          58.429
668.26        58.66154
668.69        59.09833
669.11        59.54603
669.54        59.97676
669.96        59.76601
670.39        59.47854
670.82        59.13517
671.24        59.02425
671.67        59.25726
672.09        59.79184
672.52        60.36311
672.94        60.92168
673.37        60.41138
673.80        60.29695
674.22        60.36103
674.65        60.42035
675.07         60.4713
675.50        60.53205
675.92        60.63243
676.35        60.79707
676.77        61.01356
677.20        61.40756
677.62        61.57327
678.05         61.7609
678.47        61.83575
678.90        61.83666
679.32        61.80759
679.75        61.70853
680.17         61.8071
680.60        61.90222
681.02        62.01924
681.45        62.01673
681.87        61.90108
682.30        61.80164
682.72        61.78815
683.15        61.83837
683.57        62.02884
684.00        62.46598
684.42        63.17467
684.85        63.49879
685.27        63.41843
685.70         63.1675
686.12        62.87481
686.54        62.71366
686.97        62.73967
687.39        62.93273
687.82        63.20216
688.24        63.42548
688.66        63.54181
689.09        63.60023
689.51         63.6473
689.94        63.72453
690.36         63.8504
690.78        64.00222
691.21        64.15443
691.63        64.22871
692.06        64.21432
692.48         64.2569
692.90        64.34597
693.33        64.22893
693.75        64.47821
694.17        64.60901
694.60        64.79543
695.02         64.9717
695.44        65.08641
695.87        65.40533
696.29        65.83568
696.71        65.50893
697.14        64.72346
697.56        65.15491
697.98        66.50163
698.41        66.67393
698.83        65.74187
699.25        65.32352
699.68        65.52195
700.10        65.56579
700.52        65.46645
700.94        65.62733
701.37        65.99612
701.79        66.37192
702.21        66.67646
702.64        66.95934
703.06        67.15939
703.48        67.17779
703.90         67.0215
704.33        66.72166
704.75        66.37754
705.17        66.23602
705.59         66.3578
706.01        66.56865
706.44        66.76601
706.86        67.33088
707.28        67.31266
707.70        67.52555
708.12        67.67879
708.55        67.55011
708.97        67.22221
709.39        67.15629
709.81        67.36987
710.23        67.47301
710.66        67.45456
711.08        67.59627
711.50        67.82645
711.92        67.91599
712.34        67.84198
712.76         67.6566
713.19        67.47375
713.61        67.50689
714.03        67.78262
714.45        68.23134
714.87         68.6789
715.29        68.85309
715.71        68.69881
716.13        68.30495
716.56        67.84633
716.98        67.63937
717.40          67.759
717.82        68.09896
718.24        68.51659
718.66        68.79829
719.08        68.85652
719.50        68.70139
719.92         68.4292
720.34        68.26853
720.76        68.27332
721.19        68.23997
721.61        68.34874
722.03        68.43298
722.45        68.53383
722.87        68.66234
723.29        68.80551
723.71        68.92807
724.13        69.01921
724.55        69.07761
724.97        69.12587
725.39        69.20972
725.81        69.33353
726.23        69.47899
726.65        69.61127
727.07        69.67356
727.49        69.66035
727.91        69.60389
728.33        69.53242
728.75        69.49451
729.17        69.50897
729.59        69.54437
730.01        69.60609
730.43        69.77978
730.85        70.07767
731.27        70.34747
731.69         70.4403
732.10        70.94872
732.52        70.48136
732.94        70.22457
733.36        69.95935
733.78        69.88732
734.20        70.05155
734.62        70.71387
735.04        71.63116
735.46        71.67163
735.88        71.05896
736.30        71.35551
736.72         72.5238
737.13        73.11072
737.55        72.81483
737.97        72.62983
738.39        72.63564
738.81        71.81641
739.23        70.64769
739.65        71.44402
740.06         73.6913
740.48        73.98282
740.90        72.39755
741.32        71.73447
741.74        72.26444
742.16        72.62165
742.57        72.84332
742.99        73.69181
743.41        74.89877
743.83        75.58097
744.25        75.59047
744.67        75.16836
745.08        74.60786
745.50        74.38614
745.92        74.63871
746.34        75.18882
746.75        75.85095
747.17        76.25359
747.59        76.30701
748.01        76.30972
748.42        76.35321
748.84        76.14626
749.26        75.94438
749.68        76.58189
750.09        77.83895
750.51        78.59274
750.93        78.67953
751.35         78.4548
751.76        78.08137
752.18        77.95304
752.60        78.06262
753.01        77.90549
753.43          77.574
753.85        77.68214
754.27        78.27792
754.68        79.08601
755.10        79.88307
755.52         80.4743
755.93        80.75285
756.35        80.70828
756.77        80.49212
757.18        80.35481
757.60        80.38544
758.02        80.65411
758.43        80.83588
758.85        80.84357
759.26        79.27334
759.68        79.24853
760.10        80.11348
760.51        80.87186
760.93        81.15871
761.34        79.60086
761.76        79.03013
762.18        78.36781
762.59        78.54038
763.01        79.14042
763.42        80.04062
763.84          80.731
764.26        81.06427
764.67        81.12994
765.09        80.96824
765.50        80.84036
765.92        80.67804
766.33        79.66019
766.75         78.2315
767.16         77.8922
767.58        78.75816
768.00         80.1276
768.41         81.6642
768.83        82.83637
769.24        83.17803
769.66         82.5435
770.07        81.37268
770.49        79.94975
770.90        78.73867
771.32        79.65662
771.73        82.03404
772.15        81.64834
772.56        78.95554
772.97        78.51194
773.39        80.22746
773.80        80.83099
774.22        80.10287
774.63        80.01959
775.05        80.54218
775.46        80.78111
775.88        80.64317
776.29        80.39003
776.70        80.12119
777.12        80.02448
777.53          80.161
777.95        80.41212
778.36        80.65375
778.77        80.66901
779.19        80.44678
779.60        80.05279
780.02        79.66037
780.43        79.61265
780.84        80.02154
781.26        80.37379
781.67         80.6354
782.09        81.58131
782.50        82.72996
782.91        81.87682
783.33        79.65711
783.74        78.95807
784.15        79.91856
784.57        80.60942
784.98        80.73738
785.39        80.80293
785.81        80.72446
786.22        80.25924
786.63        79.72925
787.04        79.63822
787.46        80.11615
787.87        81.25076
788.28        82.62932
788.70        83.27592
789.11        83.01228
789.52        82.26826
789.93        81.39888
790.35        80.79078
790.76        80.60558
791.17        80.83379
791.58        81.30276
792.00        81.60023
792.41        81.61169
792.82        81.51758
793.23        81.48434
793.65        81.33523
794.06        81.24151
794.47        82.15856
794.88        83.43735
795.29        82.85805
795.71        80.57327
796.12        78.72154
796.53        77.82242
796.94        77.50194
797.35        77.88395
797.76        79.25206
798.18        80.99908
798.59        82.06532
799.00        82.07474
799.41        81.20729
799.82        79.97208
800.23        79.29322
800.64        79.39299
801.06        79.90687
801.47        80.63815
801.88        81.14847
802.29        81.27242
802.70        81.17924
803.11        80.94871
803.52        80.68341
803.93        80.46024
804.34        80.21595
804.75         80.0183
805.17        80.09383
805.58        80.51288
805.99        80.88596
806.40        81.08755
806.81        81.73767
807.22        82.36819
807.63        81.15129
808.04        78.74044
808.45        77.77218
808.86        78.48518
809.27        79.58217
809.68        80.57832
810.09        81.13561
810.50        81.01141
810.91        80.34039
811.32        79.45578
811.73        78.88651
812.14         78.7859
812.55        78.97793
812.96        79.37613
813.37        79.76653
813.78        80.07119
814.19        80.50324
814.60        80.84991
815.01        80.67838
815.42        79.96429
815.83        78.81021
816.24        77.68028
816.65        77.37303
817.05        78.12019
817.46        79.66946
817.87        81.38544
818.28        82.12169
818.69        81.57442
819.10        80.03139
819.51        78.23489
819.92        77.44796
820.33        77.99377
820.74        79.47997
821.14        81.19479
821.55        81.87724
821.96        81.25028
822.37          79.763
822.78        78.03859
823.19        76.98592
823.60        76.86053
824.00        77.42563
824.41        78.30893
824.82         78.9968
825.23        79.24982
825.64        79.25665
826.04        79.13975
826.45        79.06534
826.86        79.08402
827.27        79.07614
827.68         79.0399
828.08        79.04079
828.49        79.02451
828.90        79.07475
829.31        79.09029
829.72        78.87037
830.12        78.42417
830.53        77.79879
830.94        77.29179
831.35        77.30275
831.75        77.93599
832.16        79.02959
832.57        80.26969
832.97         81.0123
833.38        80.97979
833.79         80.3406
834.20        79.51141
834.60        79.12899
835.01          79.367
835.42        80.04204
835.82        80.76124
836.23         80.7776
836.64        79.97129
837.04        78.61835
837.45        77.24144
837.86         76.6552
838.26        77.05493
838.67        78.14594
839.08        79.48901
839.48         80.2926
839.89        80.26951
840.29        79.70204
840.70        78.86313
841.11        78.14601
841.51         77.6993
841.92        77.35429
842.33        77.16714
842.73        77.25807
843.14        77.57584
843.54        78.15939
843.95        78.71898
844.35        78.81487
844.76        78.34892
845.17        77.46064
845.57        76.49216
845.98        75.98872
846.38        76.07539
846.79        76.57658
847.19        77.25972
847.60        77.60677
848.00        77.50679
848.41        77.10979
848.81        76.64196
849.22         76.3616
849.62        76.39822
850.03        76.65471
850.43        77.10173
850.84        77.60304
851.24         78.1227
851.65        78.51367
852.05        78.89848
852.46         79.2942
852.86        79.70399
853.27        80.15285
853.67        80.22323
854.07        79.40797
854.48        77.77535
854.88        75.52185
855.29        73.44149
855.69        72.67159
856.10        73.41515
856.50        75.54906
856.90        78.29159
857.31        79.83482
857.71        79.62445
858.12        78.12209
858.52        76.22259
858.92         75.1115
859.33        75.04771
859.73        75.71726
860.13         76.8645
860.54         77.9326
860.94        78.72515
861.34         79.3661
861.75        79.86172
862.15        80.31891
862.55        80.72868
862.96        80.98405
863.36        81.11028
863.76        81.15149
864.17        81.12897
864.57         81.1208
864.97        81.12981
865.38        81.12592
865.78        81.16207
866.18         81.1833
866.58        81.25791
866.99        81.48453
867.39        81.92892
867.79        82.58207
868.19         83.1769
868.60        83.21084
869.00        82.58762
869.40        81.44881
869.80        80.40817
870.21        80.41607
870.61        81.75974
871.01        84.14866
871.41        86.80994
871.81        88.42001
872.22        88.60481
872.62        87.72675
873.02        86.52056
873.42        86.28575
873.82        87.17606
874.22        88.59702
874.63        90.07856
875.03        90.64069
875.43         89.8587
875.83        88.81274
876.23        86.91248
876.63        86.27998
877.03        87.05296
877.44        89.56805
877.84        101.8187
878.24        97.71088
878.64        97.25218
879.04        95.50143
879.44        91.59842
879.84        89.76218
880.24        93.05862
880.64        95.54385
881.04        97.78131
881.44        99.05206
881.84         98.2363
882.24        95.94721
882.65        93.52486
883.05         92.4137
883.45        92.86084
883.85        94.61465
884.25        96.94634
884.65        98.36185
885.05        98.36461
885.45        97.48764
885.85        96.37976
886.25        95.91657
886.65        96.30279
887.05         97.1878
887.45        98.30426
887.85        99.20484
888.25        99.67367
888.65        99.89034
889.04        99.81171
889.44        99.40541
889.84        98.71041
890.24        97.71086
890.64        96.71671
891.04          96.212
891.44        96.27979
891.84        96.85286
892.24        97.52996
892.64        97.55813
893.04        96.83994
893.44        95.71569
893.83        94.72252
894.23        94.65456
894.63        95.61971
895.03        97.25931
895.43         99.2892
895.83        101.1575
896.23        102.5386
896.63        103.5915
897.02        103.9499
897.42        103.0674
897.82        101.0429
898.22        98.12818
898.62        95.35667
899.01        94.23666
899.41        95.03752
899.81        97.27057
900.21        99.95956
900.61        101.4854
901.00        101.3993
901.40        100.1905
901.80        98.54377
902.20        97.53883
902.59        97.49292
902.99        98.06312
903.39        98.83089
903.79        99.10886
904.18        98.70021
904.58        97.90559
904.98         97.1377
905.38        96.99213
905.77        97.55344
906.17        98.56467
906.57        99.60754
906.96        100.1349
907.36         99.9753
907.76        99.34117
908.15         98.5068
908.55        97.80614
908.95        97.42521
909.34        97.22295
909.74        97.19583
910.14        97.15786
910.53        97.07417
910.93        97.05687
911.33         97.1443
911.72         97.4048
912.12        97.76279
912.52        98.09447
912.91        98.41806
913.31        98.80383
913.70        99.30071
914.10        99.91352
914.49        100.3757
914.89        99.95789
915.29        98.58593
915.68        96.54775
916.08         94.8026
916.47        94.18272
916.87        94.74562
917.26        96.20959
917.66        97.81072
918.05          98.314
918.45        97.42761
918.84        95.63322
919.24        93.73273
919.64        92.88545
920.03        93.40659
920.42        94.88999
920.82        96.88686
921.21        98.74886
921.61        99.95657
922.00        100.6911
922.40         100.815
922.79        100.1264
923.19        98.74411
923.58        96.72691
923.98        94.41099
924.37        92.79962
924.77         92.5099
925.16        91.78339
925.55        93.33486
925.95        94.86217
926.34        96.96373
926.74        99.33062
927.13        101.4089
927.52        102.0667
927.92        101.2228
928.31        99.21793
928.70        96.68758
929.10        94.74833
929.49        93.71354
929.89        93.33058
930.28        93.62561
930.67        94.60595
931.07        96.01169
931.46         97.8979
931.85        99.56383
932.24        99.96109
932.64        98.93263
933.03        96.63004
933.42        93.67126
933.82        91.54177
934.21        90.71285
934.60        90.85266
934.99        91.41762
935.39        91.78185
935.78        91.84073
936.17        91.60968
936.56        90.88775
936.96        91.25875
937.35         90.1086
937.74        89.63587
938.13        89.39893
938.53        89.92783
938.92        91.23574
939.31        93.35471
939.70        95.65482
940.09        96.39437
940.49        95.03569
940.88        92.29366
941.27        89.50445
941.66        88.24542
942.05        88.70358
942.44        90.38498
942.84        92.57816
943.23        94.10612
943.62        94.44656
944.01        93.92729
944.40        92.99319
944.79          92.321
945.18        92.12585
945.57        92.21789
945.97        92.26768
946.36        91.69025
946.75        90.48529
947.14        89.10536
947.53        88.10229
947.92        87.93157
948.31        88.58134
948.70        89.93628
949.09         91.6149
949.48        92.69949
949.87        92.74852
950.26        91.92028
950.65        90.79483
951.04        90.30473
951.43        90.65502
951.82        91.57006
952.21        92.43181
952.60        92.25624
952.99        90.85616
953.38        88.62153
953.77        86.29985
954.16        84.93395
954.55        84.76055
954.94        85.53773
955.33          86.592
955.72        86.79786
956.11        85.87385
956.50        84.10452
956.89        82.37642
957.28        82.29025
957.66        84.31774
958.05         87.6954
958.44        91.21895
958.83        93.12388
959.22          93.001
959.61        91.33556
960.00        89.03812
960.39        87.60433
960.78        87.48267
961.16        88.28195
961.55         89.2816
961.94        89.25785
962.33        87.93893
962.72        85.88396
963.11        83.85421
963.49        82.78733
963.88        82.86082
964.27        83.82491
964.66        85.22568
965.04        86.12069
965.43        86.02888
965.82         85.3018
966.21        84.49213
966.60        84.33461
966.98         84.9709
967.37        86.09564
967.76        87.28586
968.15        87.74513
968.53        87.23901
968.92        86.05744
969.31        84.67502
969.69        83.66927
970.08        83.19085
970.47        83.09449
970.86        83.15121
971.24        82.97372
971.63        82.44057
972.02        81.68852
972.40        81.05343
972.79        81.06502
973.17        81.97697
973.56        83.50665
973.95        85.21741
974.33        86.23765
974.72        86.17766
975.11        85.25172
975.49        84.06183
975.88        83.52386
976.26        83.78237
976.65        84.67876
977.04        85.55193
977.42         84.8859
977.81        82.32766
978.19        78.61678
978.58        75.58855
978.96        75.04616
979.35        77.20782
979.74        81.70887
980.12        87.53749
980.51        91.13864
980.89        91.34687
981.28        89.09089
981.66        85.89663
982.05        83.74173
982.43        83.01257
982.82        83.06774
983.20         83.7352
983.59        84.89131
983.97        86.49802
984.35        88.74575
984.74        91.07511
985.12        92.44595
985.51        92.09054
985.89        90.12453
986.28        87.17428
986.66        84.32852
987.04         82.3473
987.43        81.19376
987.81        80.58789
988.20        80.11083
988.58        79.55045
988.96        78.79374
989.35        78.28664
989.73         79.6278
990.12        82.95202
990.50        87.24118
990.88        89.90928
991.27        89.27334
991.65        85.82728
992.03        80.11576
992.42        74.18064
992.80        71.77694
993.18        73.87859
993.56        78.36087
993.95        83.16309
994.33        86.44676
994.71        87.77838
995.10        88.09856
995.48        87.40568
995.86        85.45709
996.24        82.31302
996.63        77.60979
997.01        72.49063
997.39        70.47131
997.77        73.04733
998.15        79.46795
998.54        86.49716
998.92        89.70741
999.30        87.77814
999.68        81.81686
1000.06        73.52411
1000.45         67.2276
1000.83        64.82381
1001.21        64.96315
1001.59        66.66876
1001.97        68.93824
1002.35        71.43262
1002.73         74.9988
1003.12        78.58945
1003.50        78.83261
1003.88        74.49536
1004.26        67.36951
1004.64        60.82671
1005.02        57.72145
1005.40        58.27357
1005.78        62.36289
1006.16        70.84202
1006.54        80.38352
1006.92        85.29314
1007.30        85.98302
1007.69        85.00201
1008.07        84.52716
1008.45        84.96159
1008.83         85.9939
1009.21        87.00878
1009.59         82.1316
1009.97         51.3861
1010.35       -12.12359
1010.73       -20.85791
1011.11        10.65297
1011.49        38.40979
1011.86        59.67205
1012.24        71.98343
1012.62        76.80253
1013.00        76.85522
1013.38        73.23784
1013.76        68.09808
1014.14        69.22289
1014.52         83.1932
1014.90        111.8741
1015.28        146.8393
1015.66        163.1945
1016.04        146.4035
1016.41        102.5774
1016.79        56.23944
1017.17        32.99068
1017.55        30.90125
1017.93        36.98447
1018.31        44.83324
1018.69        51.67251
1019.06        58.01983
1019.44        65.68182
1019.82        77.32014
1020.20        95.39613
1020.58        122.7514
1020.95        165.4263
1021.33        244.0239
1021.71       -816.7073
1022.09         42.6478
1022.46        93.16199
1022.84        111.8331
1023.22        123.7224
1023.60        140.5997
1023.97        271.2336
1024.35        55.53876
1024.73        80.96507
