SpectraSmart Spectrum 2.9.0.0
--------- Device Information -----------
Spectrum Name :  反射率_0
Saving Time :  2024/04/26 00:35:25
Spectro-Module Model Name : SE2030-DUVN
Spectro-Module Serial Number : OS361AC55029948
Wavelength Start : 200
Wavelength End : 1025
Wavelength Unit : Wavelength(nm)
Spectrum Unit : Reflectance(%)
-----------Spectrum Setting ------------
Integration Time : 20ms
Average : 10
Boxcar : 0
Background removal :  enabled
linearity correction :  enabled
SC :  disabled
Intensity correction :  disabled
DWT denoise :  enabled
savitzky-golay :  disabled
FFT :  disabled
Running average :  disabled
Kalman :  disabled
High pass :  disabled
---------------BEGIN--------------------
Wavelength(nm)             Reflectance(%)
200.29               0
200.75        75.21479
201.21        69.65337
201.67        63.06312
202.13        58.06335
202.58        55.01485
203.04        53.54839
203.50        53.35106
203.96        53.91049
204.42        54.83679
204.88        56.10873
205.34          57.504
205.80        59.00665
206.26        61.03788
206.72         64.4966
207.18        70.90012
207.64        78.08037
208.10        77.32955
208.55        71.01295
209.01        66.17474
209.47        64.18627
209.93        63.84985
210.39        64.70667
210.85        65.28008
211.31        62.78056
211.77        56.93992
212.23        49.02259
212.69        42.38649
213.14        42.21523
213.60         49.0086
214.06        61.28916
214.52        74.77534
214.98        82.86272
215.44         83.8326
215.90        79.65122
216.36        73.28813
216.81        68.93211
217.27        67.86053
217.73        68.66833
218.19        69.31763
218.65        67.03897
219.11        60.71695
219.57        49.69818
220.02        35.40345
220.48        26.62612
220.94        28.52288
221.40        39.00944
221.86        49.55315
222.32        51.16992
222.77        44.72927
223.23        34.96348
223.69        26.82139
224.15        25.33073
224.61        29.91025
225.06        38.02438
225.52        45.98486
225.98        49.13059
226.44        46.70448
226.90        40.77658
227.36        34.14617
227.81        30.57079
228.27        31.12496
228.73        34.30885
229.19        38.51411
229.65        41.37198
230.10        42.31608
230.56         42.2756
231.02        42.04745
231.48        42.50031
231.93        43.70271
232.39        45.19628
232.85        46.62526
233.31        47.56257
233.77        47.83407
234.22         47.5934
234.68        46.82477
235.14        45.47689
235.60        43.72204
236.05        41.74171
236.51        39.82255
236.97        38.18926
237.43        36.88504
237.88         35.9679
238.34        35.59525
238.80        36.13934
239.26        37.71607
239.71        40.21506
240.17        43.17437
240.63        46.23964
241.08        49.15186
241.54        51.65096
242.00        53.51056
242.46        54.65114
242.91        55.22884
243.37        54.81891
243.83        53.56779
244.28         58.0197
244.74        79.78781
245.20        89.32922
245.66        87.46661
246.11        86.01024
246.57        85.30138
247.03         83.7383
247.48        75.42799
247.94        64.97234
248.40        70.03623
248.85        73.29335
249.31         75.0186
249.77        75.82211
250.22        76.15551
250.68        76.07094
251.14        75.25977
251.59        72.89587
252.05        69.56075
252.51        66.68252
252.96        64.08131
253.42         61.5785
253.88        58.77899
254.33        55.73326
254.79        54.69985
255.25        58.03361
255.70        64.62937
256.16        72.46702
256.62        78.17706
257.07        78.53455
257.53         74.6143
257.99        68.04621
258.44        61.50961
258.90        58.84492
259.35        59.17575
259.81        60.79152
260.27        61.49951
260.72        59.24715
261.18         54.7653
261.63        49.07905
262.09        43.82698
262.55        40.25325
263.00        38.36525
263.46        37.61491
263.91        37.14581
264.37        36.26904
264.83        34.81854
265.28        32.94431
265.74        31.22322
266.19        30.27904
266.65        30.24718
267.11        30.74002
267.56        31.15928
268.02        30.79056
268.47        29.54997
268.93         27.6897
269.38        25.66179
269.84        24.47415
270.30         24.3802
270.75        25.08162
271.21        25.99918
271.66        26.26881
272.12        25.67728
272.57        24.51575
273.03        23.23501
273.48        22.43423
273.94        22.28032
274.39        22.52049
274.85        22.86243
275.31        22.89159
275.76         22.5002
276.22        21.86047
276.67        21.15551
277.13        20.71417
277.58         20.5579
278.04        20.59589
278.49        20.61452
278.95        20.36643
279.40        19.80195
279.86        19.07251
280.31        18.34091
280.77        17.94132
281.22        17.88801
281.68        18.07017
282.13        18.31241
282.59        18.39267
283.04        18.25788
283.50        18.01308
283.95        17.70312
284.41        17.40645
284.86        17.15361
285.32        16.92111
285.77        16.76113
286.22        16.80924
286.68        17.04534
287.13        17.40953
287.59         17.7334
288.04        17.76155
288.50         17.4752
288.95        16.95164
289.41        16.37377
289.86        15.92667
290.32        15.71168
290.77         15.6558
291.22        15.73745
291.68        15.88644
292.13        16.07877
292.59        16.33351
293.04        16.64509
293.50        16.99977
293.95        17.37671
294.40        17.74368
294.86        18.07452
295.31        18.34864
295.77        18.56935
296.22        18.75419
296.68        18.91622
297.13        19.04673
297.58        19.17527
298.04        19.32663
298.49        19.55428
298.95        19.97051
299.40        20.57255
299.85        21.30665
300.31        22.07095
300.76        22.71898
301.21        23.18578
301.67        23.52793
302.12        23.73479
302.58        23.83976
303.03        23.85821
303.48        23.79835
303.94        23.77352
304.39        23.92785
304.84        24.28366
305.30        24.78799
305.75        25.28214
306.20        25.52282
306.66         25.4816
307.11        25.23253
307.57        24.92645
308.02        24.72552
308.47        24.69919
308.93        24.78392
309.38         24.9411
309.83        25.13867
310.29        25.33705
310.74        25.54181
311.19        25.69468
311.65         25.7023
312.10        25.55316
312.55        25.27366
313.00        24.92854
313.46        24.64001
313.91        24.44096
314.36        24.31764
314.82        24.26163
315.27        24.24475
315.72        24.25588
316.18        24.29922
316.63        24.35526
317.08        24.36942
317.53        24.32508
317.99         24.2206
318.44        24.09016
318.89        23.99541
319.35        23.94291
319.80        23.91934
320.25        23.86992
320.70        23.70774
321.16        23.42118
321.61        23.04289
322.06        22.64407
322.51        22.32867
322.97        22.11249
323.42        21.97383
323.87        21.85108
324.32        21.64347
324.78        21.32941
325.23         20.9491
325.68        20.56181
326.13        20.26199
326.59        20.07439
327.04         19.9889
327.49        19.96254
327.94        19.92538
328.39        19.85525
328.85        19.75922
329.30        19.69505
329.75        19.73299
330.20        19.88164
330.66        20.09163
331.11        20.30066
331.56        20.37097
332.01        20.26632
332.46        20.01255
332.92        19.68607
333.37        19.44644
333.82        19.34837
334.27         19.3727
334.72        19.43933
335.17        19.40609
335.63        19.23402
336.08        18.96359
336.53        18.70997
336.98        18.65672
337.43        18.83503
337.88         19.1891
338.34        19.52922
338.79        19.59114
339.24        19.29566
339.69        18.72435
340.14        18.11066
340.59        17.85911
341.05        18.05643
341.50        18.57008
341.95        19.15761
342.40         19.4643
342.85        19.40838
343.30        19.11234
343.75        18.69929
344.20        18.38599
344.66        18.24794
345.11          18.176
345.56         18.1629
346.01        18.19937
346.46        18.25655
346.91        18.36523
347.36        18.39805
347.81        18.14006
348.26        17.58967
348.72        16.85375
349.17        16.14355
349.62        15.89094
350.07        16.18755
350.52        16.88048
350.97        17.73342
351.42        18.38397
351.87        18.71358
352.32        18.81196
352.77        18.73357
353.22        18.57303
353.67        18.37889
354.13        18.12762
354.58        17.83959
355.03        17.59094
355.48        17.40631
355.93        17.29603
356.38         17.2407
356.83        17.18923
357.28        17.12151
357.73        17.04027
358.18        16.95629
358.63        16.88752
359.08         16.8358
359.53        16.79818
359.98        16.73594
360.43          16.593
360.88        16.36832
361.33        16.08058
361.78        15.81487
362.23        15.70869
362.68        15.77842
363.13        15.96713
363.58        16.16192
364.03        16.18609
364.48        16.00009
364.93         15.6693
365.38        15.26537
365.83        14.90421
366.28        14.63439
366.73        14.42369
367.18        14.28923
367.63        14.25875
368.08        14.31846
368.53         14.4548
368.98        14.59755
369.43         14.6306
369.88        14.53109
370.33        14.33565
370.78        14.08824
371.23        13.87245
371.68        13.72158
372.13        13.60496
372.58        13.55043
373.03        13.60123
373.48        13.74744
373.93        13.97639
374.38         14.1836
374.83        14.20532
375.28        14.01557
375.72        13.65142
376.17        13.26054
376.62        13.04527
377.07        13.06149
377.52        13.24669
377.97        13.49932
378.42        13.65404
378.87        13.65965
379.32        13.56521
379.77        13.43042
380.22        13.33916
380.67        13.31239
381.11        13.32309
381.56        13.32153
382.01         13.2409
382.46        13.06878
382.91        12.82999
383.36        12.59576
383.81        12.47305
384.26        12.48398
384.71        12.59988
385.15        12.72369
385.60        12.71848
386.05        12.55534
386.50        12.26954
386.95        11.97542
387.40        11.86881
387.85        11.98779
388.29         12.2568
388.74        12.53104
389.19        12.62021
389.64        12.49922
390.09        12.22328
390.54        11.92224
390.98        11.81263
391.43        11.94867
391.88        12.24209
392.33        12.53963
392.78        12.61886
393.23        12.45088
393.67        12.12283
394.12        11.78302
394.57        11.58748
395.02         11.5729
395.47         11.6833
395.91        11.85954
396.36        11.98118
396.81        12.00604
397.26        11.95819
397.71        11.87603
398.15        11.80146
398.60        11.76668
399.05        11.76204
399.50        11.74226
399.95        11.61292
400.39        11.41948
400.84        11.14772
401.29        10.91002
401.74        10.88461
402.18        11.11624
402.63        11.52957
403.08        11.97111
403.53        12.19721
403.97        12.14853
404.42        11.89404
404.87        11.55759
405.32        11.35741
405.76        11.35523
406.21         11.4805
406.66        11.64498
407.11        11.72746
407.55        11.70059
408.00        11.60437
408.45         11.4755
408.90        11.37282
409.34        11.32143
409.79        11.29571
410.24        11.29231
410.68        11.30889
411.13        11.34423
411.58        11.41189
412.03        11.48213
412.47        11.50177
412.92         11.4525
413.37         11.3398
413.81        11.23323
414.26        11.25643
414.71        11.41715
415.15        11.68262
415.60        11.92181
416.05        11.94246
416.49        11.70794
416.94         11.2944
417.39        10.84226
417.83        10.59227
418.28        10.61659
418.73         10.8252
419.17        11.11755
419.62        11.33297
420.07        11.42546
420.51        11.44708
420.96        11.39973
421.41        11.28273
421.85        11.11337
422.30        10.90602
422.74        10.71568
423.19        10.65174
423.64        10.71761
424.08        10.89537
424.53        11.10483
424.98        11.22052
425.42        11.20587
425.87        11.08759
426.31        10.91971
426.76        10.82586
427.21        10.81571
427.65        10.78145
428.10        10.74819
428.54        10.81812
428.99        10.98661
429.44         11.2094
429.88        11.38791
430.33        11.39543
430.77        11.21813
431.22        10.89527
431.66        10.56246
432.11        10.47345
432.56        10.64711
433.00        10.95218
433.45        11.25077
433.89        11.44811
434.34        11.45971
434.78        11.21626
435.23        10.89448
435.67        10.84529
436.12        11.03532
436.57        11.07917
437.01         10.9436
437.46        10.84973
437.90        10.82026
438.35        10.79324
438.79        10.75711
439.24        10.72546
439.68        10.70196
440.13        10.64001
440.57         10.5639
441.02        10.65216
441.46        10.82302
441.91        10.69554
442.35        10.33928
442.80        10.17052
443.24         10.1713
443.69        10.18808
444.13        10.16768
444.58        10.03113
445.02        9.816803
445.47        9.749341
445.91        9.804847
446.36        9.771509
446.80        9.639163
447.24        9.532175
447.69        9.470506
448.13        9.416844
448.58        9.379183
449.02        9.368777
449.47        9.364353
449.91        9.328856
450.36        9.261154
450.80        9.168526
451.25        9.095359
451.69        9.102163
452.13        9.198099
452.58        9.346826
453.02        9.502869
453.47        9.588334
453.91         9.58884
454.36        9.533456
454.80        9.439456
455.24        9.340225
455.69        9.259792
456.13        9.181554
456.58        9.144638
457.02        9.191719
457.46        9.326571
457.91        9.531693
458.35         9.73868
458.79        9.825937
459.24        9.779854
459.68        9.625623
460.13        9.459273
460.57        9.399865
461.01        9.485701
461.46        9.667589
461.90        9.875546
462.34        9.985679
462.79        9.967427
463.23        9.853556
463.68        9.714865
464.12        9.667436
464.56         9.74432
465.01        9.906352
465.45         10.0651
465.89        10.12613
466.34        10.08108
466.78        9.914604
467.22         9.71928
467.67         9.74052
468.11        9.955273
468.55          10.058
468.99        10.03136
469.44        10.05203
469.88         10.1543
470.32        10.36463
470.77        10.60845
471.21        10.68865
471.65         10.5762
472.10        10.39918
472.54        10.23069
472.98        10.16158
473.42        10.22183
473.87        10.38576
474.31        10.58117
474.75        10.68565
475.20        10.67532
475.64        10.58471
476.08        10.47758
476.52        10.45116
476.97        10.52825
477.41        10.67887
477.85         10.8472
478.29        10.96529
478.74        11.01417
479.18        10.96099
479.62        10.85518
480.06        10.95814
480.50        11.05549
480.95        11.15586
481.39         11.1584
481.83        11.14174
482.27        11.10642
482.72        10.97329
483.16         10.7974
483.60        10.82446
484.04         11.0553
484.48        11.16083
484.93        11.31829
485.37        11.67566
485.81        12.04627
486.25        12.48098
486.69         15.9488
487.14        12.56064
487.58        8.459857
488.02        10.53036
488.46        11.90333
488.90        11.89795
489.34        11.83018
489.79        11.75487
490.23        12.47055
490.67        12.90841
491.11        12.86602
491.55        12.73975
491.99        12.52877
492.43        12.34907
492.88        12.26852
493.32        12.27617
493.76        12.29912
494.20        12.46834
494.64        12.74437
495.08        13.08026
495.52        13.43369
495.96        13.76048
496.41        14.00226
496.85        14.15179
497.29        14.20797
497.73        14.03539
498.17        13.81314
498.61        13.89001
499.05        14.28378
499.49         14.3597
499.93          14.472
500.37        14.63174
500.82        14.77391
501.26        15.00754
501.70        15.24523
502.14        15.37243
502.58          15.375
503.02           15.38
503.46        15.39756
503.90        15.34558
504.34        15.25947
504.78         15.2352
505.22        15.28845
505.66        15.40263
506.10        15.53402
506.54        15.60341
506.98        15.59505
507.42        15.53713
507.86        15.48918
508.30         15.5441
508.74        15.71575
509.18        15.96231
509.62        16.22651
510.06         16.4147
510.50        16.50032
510.94        16.52293
511.38        16.49607
511.82        16.44137
512.26        16.37643
512.70         16.2855
513.14        16.22515
513.58        16.29023
514.02        16.47882
514.46        16.75709
514.90        17.01147
515.34        17.02263
515.78        16.72673
516.22        16.35871
516.66        16.06087
517.10        15.58857
517.54        14.99332
517.98        15.94229
518.42        15.87617
518.86        16.33412
519.30        16.52554
519.74         16.7147
520.18        16.86551
520.62         16.8882
521.06          16.807
521.50        16.61653
521.93        16.38745
522.37        16.25273
522.81        16.24345
523.25        16.33082
523.69        16.45481
524.13         16.5163
524.57        16.48919
525.01        16.40248
525.45        16.29761
525.89        16.24133
526.32        16.24735
526.76        16.28976
527.20        16.32714
527.64        16.30492
528.08        16.21327
528.52         16.0579
528.96        15.87165
529.40        15.74681
529.83        15.70988
530.27         15.5786
530.71        15.62988
531.15        15.56636
531.59        15.47244
532.03        15.35314
532.46        15.26486
532.90        15.30043
533.34         15.4603
533.78        15.70274
534.22        15.93385
534.66        16.01755
535.09        15.92488
535.53         15.7098
535.97        15.44479
536.41        15.24877
536.85        15.16266
537.28         15.1569
537.72        15.20766
538.16        15.27354
538.60        15.33723
539.04        15.40062
539.47        15.46802
539.91        15.58194
540.35        15.72564
540.79        15.82608
541.22        15.88078
541.66        15.95224
542.10        16.04235
542.54         16.1101
542.97        16.17085
543.41        16.27722
543.85         16.4312
544.29        16.62762
544.72        16.82256
545.16        16.95298
545.60        17.00752
546.04        17.00102
546.47        17.00194
546.91        17.12878
547.35        17.39064
547.79        17.74898
548.22        18.10146
548.66        18.27034
549.10        18.23495
549.53        18.08357
549.97        17.92053
550.41        17.85644
550.84        17.93255
551.28        18.12527
551.72        18.40054
552.15        18.69228
552.59         18.9609
553.03        19.21587
553.46        19.43471
553.90        19.59867
554.34        19.71379
554.77        19.76362
555.21        19.76463
555.65        19.80627
556.08        19.91237
556.52        19.81974
556.96         20.0011
557.39        20.09542
557.83        20.24253
558.27        20.41777
558.70        20.59966
559.14        20.73716
559.57        20.81043
560.01        20.84507
560.45        20.84441
560.88        20.81477
561.32        20.78465
561.75        20.74217
562.19        20.72574
562.63        20.76465
563.06         20.8585
563.50        21.00093
563.93        21.16112
564.37        21.29765
564.80        21.39136
565.24        21.46243
565.68        21.51447
566.11        21.55629
566.55        21.61155
566.98        21.67154
567.42        21.76447
567.85        21.92671
568.29        22.16932
568.72        22.41655
569.16        22.67849
569.60        22.99375
570.03        23.24885
570.47        23.31682
570.90        23.31634
571.34        22.79463
571.77        23.34943
572.21        23.36243
572.64        23.34185
573.08        23.26979
573.51        22.64522
573.95        23.74096
574.38         25.1689
574.82        24.70718
575.25        24.39846
575.69        23.57408
576.12        23.20623
576.56         23.2411
576.99        23.95917
577.42        24.65364
577.86        24.72491
578.29        24.56647
578.73        25.72167
579.16        23.72167
579.60        21.80804
580.03        22.81116
580.47        24.18553
580.90         24.6494
581.33        24.20012
581.77        23.65228
582.20        25.63904
582.64        25.45501
583.07        21.68608
583.51         21.3033
583.94         20.9059
584.37        21.78517
584.81        22.65074
585.24        23.66113
585.68         24.1582
586.11         23.4831
586.54        21.94944
586.98        21.43756
587.41        21.73616
587.85        22.58198
588.28        23.07226
588.71        22.07753
589.15        21.32233
589.58        21.76652
590.01        22.19176
590.45         22.3949
590.88        22.40256
591.31        22.07081
591.75        22.04217
592.18        22.14882
592.61        22.63729
593.05        22.95481
593.48        23.87558
593.91        24.08736
594.35          22.018
594.78        21.70656
595.21        21.88642
595.65         22.9778
596.08        23.76787
596.51        22.93654
596.94        22.52058
597.38        22.96466
597.81        24.10434
598.24        24.80081
598.68        24.51254
599.11        24.58433
599.54        25.95081
599.97        26.36703
600.41        25.42294
600.84        25.81148
601.27         26.6174
601.70        26.40771
602.14         26.7619
602.57        26.73061
603.00        27.35417
603.43        28.44765
603.87        29.59946
604.30        29.80036
604.73        29.24163
605.16        29.19897
605.60        30.17455
606.03        31.14353
606.46        31.95768
606.89        32.07074
607.32        31.86463
607.76        32.40888
608.19        33.55436
608.62        33.38107
609.05        33.03739
609.48         33.7091
609.92        34.20717
610.35        34.57106
610.78         36.1819
611.21        36.74009
611.64        35.48733
612.07        36.16721
612.50        36.76844
612.94        37.33812
613.37        37.31474
613.80        37.82818
614.23        38.40826
614.66        38.75964
615.09         39.2762
615.52        39.57137
615.96        39.71925
616.39         40.2068
616.82        39.92442
617.25        40.12959
617.68        40.98041
618.11        41.57963
618.54         41.9411
618.97        41.98425
619.40        41.91558
619.84        42.16199
620.27        42.95103
620.70        43.45818
621.13         43.6727
621.56        43.51531
621.99        43.19405
622.42        43.79792
622.85        44.97947
623.28        45.02009
623.71        44.84208
624.14        44.59907
624.57        44.39533
625.00        44.28522
625.43        44.32975
625.86        43.87639
626.29        43.73457
626.72        44.24379
627.15        43.68192
627.58        43.64445
628.01        43.55812
628.44        43.44033
628.87        43.28473
629.30        43.19971
629.73        43.13381
630.16        42.86864
630.59        42.39349
631.02        41.81306
631.45         41.2055
631.88        40.66142
632.31        40.20992
632.74        39.82203
633.17        39.46659
633.60        39.09165
634.03        38.67722
634.46        38.24298
634.89        37.77964
635.32        37.27016
635.75        36.72036
636.18        36.13805
636.61        35.55706
637.04        35.02681
637.47        34.55156
637.89        34.13255
638.32        33.74598
638.75        33.32773
639.18        32.86499
639.61        32.55636
640.04        32.09724
640.47        31.73173
640.90        31.37313
641.33        31.02677
641.76        30.70544
642.18        30.48514
642.61        30.37627
643.04        30.28346
643.47         30.1619
643.90         30.3277
644.33        30.14254
644.76        30.13111
645.18        30.10693
645.61        30.08941
646.04        30.07633
646.47        30.05608
646.90        30.09791
647.33        30.28832
647.75        30.65428
648.18        31.20151
648.61        31.77137
649.04        32.12385
649.47        32.22376
649.89        32.02465
650.32        31.83594
650.75        32.32581
651.18        33.45387
651.61        34.59624
652.03        35.45156
652.46         35.9458
652.89        36.33127
653.32        36.49067
653.74          36.609
654.17        38.33067
654.60        39.31514
655.03        38.25179
655.46        39.37443
655.88        42.55603
656.31        45.65038
656.74        103.9591
657.16        67.76951
657.59        24.02107
658.02        18.55045
658.45        32.69181
658.87         42.9096
659.30        45.36227
659.73         45.4147
660.15        43.98652
660.58        46.23372
661.01          47.957
661.44        47.08156
661.86        46.95435
662.29        47.13662
662.72         48.1461
663.14        49.76518
663.57        50.10962
664.00        49.36536
664.42        49.43821
664.85        50.42015
665.27        51.15976
665.70        51.47636
666.13        51.71917
666.55        51.86886
666.98        51.83518
667.41        51.75878
667.83        51.89912
668.26        52.31196
668.69        52.89808
669.11        53.47533
669.54        53.99872
669.96        53.90633
670.39        53.72192
670.82        53.47689
671.24        53.43858
671.67        53.72293
672.09        54.31584
672.52        54.97372
672.94        55.62131
673.37        55.28768
673.80        55.32928
674.22        55.52616
674.65        55.66474
675.07        55.73929
675.50        55.76601
675.92        55.80648
676.35        55.98647
676.77        56.32011
677.20        56.70963
677.62        57.09626
678.05        57.36901
678.47        57.48249
678.90        57.53068
679.32        57.59287
679.75        57.49394
680.17        57.44997
680.60        58.02496
681.02        57.90137
681.45        58.05325
681.87        58.07639
682.30        58.03034
682.72        57.97408
683.15        58.05373
683.57        58.31855
684.00        58.59035
684.42        58.99854
684.85        59.24992
685.27        59.36513
685.70        59.37863
686.12        59.33142
686.54        59.35118
686.97        59.46067
687.39        59.56649
687.82        59.75187
688.24        59.87894
688.66        59.95743
689.09        60.00707
689.51        60.06684
689.94        60.17093
690.36        60.33535
690.78        60.54129
691.21        60.76118
691.63        60.95824
692.06        61.11858
692.48        61.25315
692.90        61.38019
693.33        61.51414
693.75        61.66592
694.17        61.84866
694.60        62.03765
695.02        62.17936
695.44        62.25283
695.87        62.38712
696.29        62.59485
696.71        62.61894
697.14        62.57654
697.56        62.96096
697.98        63.71356
698.41        63.88059
698.83        63.04687
699.25        62.70446
699.68        62.78552
700.10        62.80666
700.52        62.78293
700.94        63.04036
701.37        63.50608
701.79        63.93261
702.21        64.23022
702.64        64.47131
703.06        64.61917
703.48        64.60692
703.90        64.45249
704.33         64.1842
704.75         63.8958
705.17        63.80725
705.59        63.97271
706.01        64.28899
706.44        64.54327
706.86        65.19162
707.28        65.27869
707.70        65.54543
708.12        65.71677
708.55        65.69979
708.97        65.52769
709.39        65.40259
709.81        65.39075
710.23        65.41885
710.66        65.50497
711.08        65.76117
711.50        66.06605
711.92         66.1824
712.34        66.07006
712.76        65.78587
713.19        65.48011
713.61         65.4247
714.03        65.66541
714.45        66.12108
714.87        66.59216
715.29        66.76273
715.71        66.56931
716.13        66.11939
716.56          65.616
716.98        65.41373
717.40         65.5935
717.82        66.04137
718.24        66.58799
718.66         66.9399
719.08        67.00613
719.50        66.89937
719.92        66.70257
720.34        66.51627
720.76        66.42203
721.19        66.37377
721.61        66.55824
722.03        66.71708
722.45        66.88589
722.87        67.13082
723.29        67.42917
723.71        67.67638
724.13        67.83993
724.55        67.97638
724.97        68.12226
725.39        68.05879
725.81        68.06839
726.23        68.11613
726.65        68.35383
727.07        67.84389
727.49        68.24518
727.91        68.23949
728.33        68.29808
728.75        68.35117
729.17        68.39724
729.59        68.41753
730.01        68.43182
730.43        68.51031
730.85        68.66319
731.27        68.90128
731.69        69.13801
732.10        69.21301
732.52        69.09772
732.94        68.87564
733.36        68.71506
733.78        68.75478
734.20        69.02836
734.62        69.78059
735.04        70.73936
735.46        70.77401
735.88        70.10709
736.30        70.29772
736.72        71.33807
737.13        71.85272
737.55        71.57381
737.97        71.45874
738.39        71.57219
738.81        70.92619
739.23         69.9403
739.65        70.77583
740.06        72.92856
740.48        73.15932
740.90        71.55999
741.32        70.82557
741.74        71.22256
742.16         71.4481
742.57        71.55646
742.99        72.28999
743.41        73.41937
743.83        74.13441
744.25        74.28618
744.67        74.07825
745.08        73.73154
745.50        73.60838
745.92        73.82269
746.34         74.2401
746.75        74.70684
747.17        74.96609
747.59         74.9818
748.01        74.85511
748.42        74.74312
748.84        74.92267
749.26        75.46232
749.68          76.083
750.09        76.69065
750.51        77.48351
750.93        78.20187
751.35        78.04587
751.76        77.26249
752.18        76.75266
752.60        77.15696
753.01        77.17738
753.43        76.84624
753.85        76.91071
754.27        77.32919
754.68        78.29205
755.10         78.8908
755.52        79.36418
755.93        79.44959
756.35        79.41364
756.77        79.44882
757.18        79.43869
757.60        79.43014
758.02        80.12325
758.43        81.02743
758.85        80.19481
759.26        77.99095
759.68        77.74827
760.10        79.25927
760.51        80.56818
760.93        80.32784
761.34        79.48946
761.76        78.50006
762.18        77.83633
762.59         77.1065
763.01        77.70306
763.42         79.2133
763.84        80.22961
764.26        80.49946
764.67        80.60102
765.09        80.59327
765.50        80.44212
765.92        80.11742
766.33        79.13845
766.75        77.89168
767.16        77.38062
767.58        77.80363
768.00        79.34486
768.41        81.01817
768.83        82.69411
769.24        83.43451
769.66        82.60627
770.07        80.79053
770.49        78.89426
770.90        77.53111
771.32         78.5572
771.73        81.18161
772.15        80.89277
772.56        78.10513
772.97        77.40167
773.39        78.82677
773.80        79.69064
774.22        79.62965
774.63        79.63025
775.05        79.67471
775.46        79.75582
775.88        79.82368
776.29        79.60225
776.70        79.18935
777.12        79.03863
777.53        79.21928
777.95        79.53205
778.36        79.83989
778.77         79.9065
779.19        79.72221
779.60        79.38002
780.02        79.03284
780.43        79.04924
780.84        79.56007
781.26        79.85036
781.67         79.9645
782.09        81.31203
782.50        83.17863
782.91        82.18525
783.33        79.15148
783.74        78.16006
784.15        79.40976
784.57        80.43746
784.98        80.78371
785.39        80.70673
785.81        80.22697
786.22        79.70443
786.63         79.4501
787.04        79.51636
787.46        79.96323
787.87         80.9449
788.28        82.09792
788.70         82.6179
789.11        82.35423
789.52        81.59821
789.93        80.70428
790.35        80.14916
790.76        80.07759
791.17        80.40875
791.58         80.9604
792.00        81.31856
792.41        81.35697
792.82        81.31655
793.23        81.31892
793.65         81.0553
794.06        80.83184
794.47        81.81844
794.88        83.20868
795.29        83.45776
795.71        80.54962
796.12        78.63159
796.53        77.65584
796.94        77.30122
797.35        77.69273
797.76          79.085
798.18        80.87247
798.59        81.97703
799.00        82.01263
799.41        81.14909
799.82        79.87623
800.23          79.103
800.64        79.05761
801.06        79.37977
801.47        79.93571
801.88        80.40305
802.29        80.63715
802.70        80.76337
803.11        80.79034
803.52        80.69826
803.93        80.53247
804.34        80.27601
804.75        80.00243
805.17        79.99287
805.58        80.34769
805.99         80.5311
806.40        80.52002
806.81        81.40565
807.22        82.59475
807.63        81.55194
808.04        78.90649
808.45        77.81508
808.86        78.52946
809.27         79.4258
809.68         80.0875
810.09        80.50146
810.50        80.47326
810.91        80.02562
811.32        79.44374
811.73        79.13915
812.14        79.21142
812.55        79.65382
812.96        80.28053
813.37        80.37889
813.78        80.00803
814.19        80.15478
814.60        80.64704
815.01         80.4911
815.42        79.66221
815.83        78.64067
816.24        77.80875
816.65        77.60815
817.05        78.21769
817.46        79.48577
817.87        80.88396
818.28        81.45197
818.69        80.93707
819.10        79.55113
819.51        77.95889
819.92        77.30065
820.33        77.85661
820.74        79.28795
821.14        80.88765
821.55        81.40038
821.96        80.57745
822.37        78.86733
822.78        76.98007
823.19        75.96281
823.60         76.0902
824.00        77.09132
824.41        78.47181
824.82        79.46651
825.23        79.74397
825.64        79.55593
826.04        79.13369
826.45        78.81992
826.86        78.72014
827.27        78.66386
827.68        78.62053
828.08        78.60835
828.49         78.5526
828.90        78.56461
829.31        78.54581
829.72        78.28403
830.12        77.79684
830.53        77.14194
830.94        76.61613
831.35         76.6264
831.75        77.27422
832.16        78.37321
832.57        79.65408
832.97        80.54628
833.38        80.77148
833.79        80.48263
834.20          79.938
834.60        79.53922
835.01        79.43573
835.42        79.50776
835.82        79.61584
836.23        79.45256
836.64        78.99464
837.04        78.37711
837.45        77.81611
837.86        77.63898
838.26        77.91988
838.67        78.51035
839.08        79.19543
839.48        79.58844
839.89        79.53851
840.29         79.1861
840.70        78.68443
841.11        78.24992
841.51        77.96776
841.92        77.74662
842.33        77.62118
842.73        77.66279
843.14        77.82529
843.54        78.13605
843.95        78.41661
844.35        78.43008
844.76        78.11382
845.17        77.55301
845.57         76.9243
845.98        76.51112
846.38        76.38959
846.79        76.46822
847.19        76.67307
847.60        76.77406
848.00         76.7453
848.41        76.63173
848.81        76.53631
849.22        76.53827
849.62        76.70648
850.03         76.9969
850.43        77.38873
850.84         77.7578
851.24        78.09203
851.65        78.23953
852.05        78.37173
852.46        78.59806
852.86         78.9451
853.27        79.41571
853.67        79.57159
854.07        78.85814
854.48        77.32352
854.88        75.18597
855.29        73.19434
855.69        72.41866
856.10        73.05392
856.50        74.97026
856.90        77.49714
857.31        79.06702
857.71        79.17758
858.12        78.19506
858.52        76.79401
858.92         75.8797
859.33        75.66283
859.73        75.89172
860.13        76.45416
860.54        77.11253
860.94        77.80634
861.34          78.588
861.75        79.31175
862.15        79.82571
862.55        80.05138
862.96        79.97366
863.36         79.7495
863.76        79.63779
864.17        79.71989
864.57        79.98598
864.97        80.32423
865.38         80.5466
865.78        80.65104
866.18        80.61432
866.58        80.56188
866.99        80.68612
867.39        81.08445
867.79        81.73618
868.19        82.29888
868.60         82.1403
869.00        81.15478
869.40        79.55022
869.80        78.12556
870.21        78.11204
870.61        79.84702
871.01        82.94257
871.41        86.41142
871.81        88.56392
872.22        88.90331
872.62        87.88365
873.02         86.3756
873.42         85.8946
873.82        86.65689
874.22        87.98479
874.63        89.37233
875.03        89.79564
875.43        88.84103
875.83        87.71831
876.23        85.67982
876.63        84.91307
877.03        85.49603
877.44        87.69327
877.84        102.5046
878.24        95.80534
878.64        95.65494
879.04        94.40646
879.44        90.37393
879.84        88.13073
880.24        91.26032
880.64        93.11299
881.04        94.20252
881.44        94.72104
881.84        94.04335
882.24        92.51128
882.65        91.12386
883.05        90.88806
883.45        91.98681
883.85        94.30796
884.25        97.02986
884.65        98.50516
885.05        98.22755
885.45         96.7587
885.85        94.99197
886.25        94.15249
886.65        94.50502
887.05        95.64143
887.45        97.09109
887.85        98.01568
888.25        98.11477
888.65        97.72173
889.04        97.05635
889.44        96.48186
889.84        96.12518
890.24        95.81718
890.64        95.65439
891.04        95.82723
891.44        96.30916
891.84        97.07075
892.24         97.7802
892.64        97.80796
893.04         97.0872
893.44        95.93253
893.83        94.75933
894.23        94.17343
894.63        94.29345
895.03        94.86858
895.43        95.89482
895.83        97.32423
896.23        98.98084
896.63        100.8533
897.02        102.3193
897.42        102.3805
897.82         100.944
898.22        98.36981
898.62        95.64222
899.01        94.22882
899.41        94.45152
899.81        95.81451
900.21        97.63973
900.61        98.79753
901.00        98.94122
901.40         98.4726
901.80        97.67382
902.20        96.96891
902.59         96.5372
902.99        96.19587
903.39        96.02063
903.79        96.17251
904.18        96.65018
904.58        97.47321
904.98        98.39677
905.38        99.02336
905.77        99.22361
906.17        99.04728
906.57        98.71283
906.96        98.61987
907.36        98.78766
907.76        99.14004
908.15        99.36222
908.55        98.82777
908.95        97.50974
909.34        95.61383
909.74        93.79114
910.14        92.86259
910.53        93.06039
910.93        94.20687
911.33        95.82664
911.72        97.04211
912.12        97.47134
912.52         97.3112
912.91        96.99884
913.31         97.1287
913.70        97.86706
914.10        99.06251
914.49        100.2465
914.89        100.2072
915.29        98.64857
915.68        96.07639
916.08        93.72463
916.47        92.70158
916.87        93.11212
917.26          94.595
917.66        96.30099
918.05        96.86765
918.45        95.96096
918.84         94.0935
919.24        92.16994
919.64         91.4997
920.03         92.4231
920.42        94.49949
920.82         97.0681
921.21        99.10402
921.61        100.0083
922.00        100.0866
922.40        99.53541
922.79        98.61679
923.19        97.52044
923.58        96.15183
923.98         94.5602
924.37        93.15053
924.77         92.3665
925.16        90.56963
925.55        91.07121
925.95        91.72931
926.34        93.46164
926.74         95.8102
927.13        98.11672
927.52        99.05618
927.92         98.4587
928.31        96.73144
928.70        94.48803
929.10        92.79845
929.49         91.9588
929.89         91.6919
930.28        92.03317
930.67          93.035
931.07        94.45397
931.46        96.34196
931.85        97.99815
932.24        98.37041
932.64        97.30083
933.03        94.93853
933.42        91.92199
933.82        89.76596
934.21        88.95183
934.60        89.15117
934.99        89.75248
935.39        90.06592
935.78        89.97832
936.17        89.42877
936.56        88.27095
936.96        88.87542
937.35          87.927
937.74        88.04419
938.13         88.2806
938.53        88.97019
938.92        90.13892
939.31        91.86961
939.70        93.66198
940.09        94.10637
940.49        92.81961
940.88        90.41496
941.27        88.01456
941.66        86.93686
942.05        87.33356
942.44        88.78179
942.84        90.72182
943.23        92.23924
943.62        92.86892
944.01        92.83377
944.40        92.36509
944.79        91.81986
945.18        91.31943
945.57        90.73229
945.97        89.90463
946.36        88.71755
946.75        87.40218
947.14        86.25565
947.53        85.60374
947.92        85.66978
948.31        86.40542
948.70        87.76771
949.09        89.42551
949.48        90.54365
949.87        90.71559
950.26        90.06808
950.65        89.11783
951.04        88.72141
951.43        89.08011
951.82        89.94291
952.21         90.8027
952.60        90.85224
952.99        89.90891
953.38        88.26614
953.77        86.49954
954.16        85.40777
954.55        85.16927
954.94        85.61253
955.33        86.17194
955.72        85.89571
956.11         84.5896
956.50         82.5429
956.89        80.60939
957.28        80.33077
957.66        82.16782
958.05        85.34888
958.44        88.82212
958.83        91.04418
959.22        91.58507
959.61        90.83527
960.00        89.29702
960.39        87.80682
960.78        86.69447
961.16        85.77868
961.55        84.88763
961.94        83.79807
962.33        82.54151
962.72        81.36644
963.11        80.55013
963.49        80.36842
963.88         80.8253
964.27        81.84635
964.66        83.10751
965.04        83.92262
965.43        83.91479
965.82        83.30748
966.21        82.54408
966.60         82.2515
966.98        82.55463
967.37        83.19732
967.76          83.911
968.15        84.16576
968.53        83.80371
968.92        83.03632
969.31        82.09445
969.69        81.21482
970.08        80.49339
970.47        79.87189
970.86        79.36643
971.24        79.03289
971.63        78.87977
972.02         78.9096
972.40         79.1503
972.79        79.58153
973.17        80.25198
973.56        81.01498
973.95        81.68993
974.33        81.91104
974.72        81.51041
975.11        80.59226
975.49        79.57685
975.88        79.13331
976.26        79.33711
976.65        80.07291
977.04        80.83895
977.42         80.4264
977.81        78.54108
978.19        75.76629
978.58        73.51221
978.96        73.10922
979.35        74.73444
979.74        78.09267
980.12         82.6401
980.51        85.94236
980.89        87.14967
981.28        86.70161
981.66        85.32628
982.05        84.02222
982.43        83.08549
982.82         82.2795
983.20        81.81023
983.59        82.07043
983.97        83.18361
984.35        85.15935
984.74          87.464
985.12        89.10072
985.51        89.25089
985.89        87.99969
986.28        85.71464
986.66        83.00955
987.04        80.58569
987.43        78.63246
987.81        77.02025
988.20        75.39255
988.58        73.44402
988.96        70.73562
989.35        67.93923
989.73        68.15618
990.12        72.77822
990.50        80.07047
990.88        85.64329
991.27        86.40473
991.65           82.96
992.03        76.25838
992.42        68.80653
992.80        65.32906
993.18        67.18369
993.56        71.87949
993.95        77.09365
994.33        80.73886
994.71        82.31952
995.10        82.93737
995.48        82.59373
995.86        81.00741
996.24         78.2454
996.63        73.89737
997.01        69.22366
997.39        68.00751
997.77        71.74944
998.15        79.57165
998.54        87.74888
998.92        91.23466
999.30        88.62074
999.68         81.1061
1000.06        70.99494
1000.45        63.95929
1000.83        62.28484
1001.21        64.10005
1001.59        67.55614
1001.97        70.68047
1002.35        72.98904
1002.73        75.53012
1003.12         77.4735
1003.50        76.43506
1003.88        71.83128
1004.26        65.06309
1004.64        59.01772
1005.02         56.0419
1005.40        56.17934
1005.78        59.36542
1006.16        66.14819
1006.54        73.39021
1006.92         76.5485
1007.30        76.33305
1007.69         74.8763
1008.07         73.8611
1008.45        73.30573
1008.83        72.50243
1009.21        69.67854
1009.59        57.39569
1009.97        17.68855
1010.35       -44.07843
1010.73       -38.20418
1011.11       0.3599106
1011.49        29.78671
1011.86        51.29097
1012.24        63.13589
1012.62         67.0172
1013.00        65.66386
1013.38        59.83768
1013.76        51.81026
1014.14        50.90104
1014.52        65.31539
1014.90        97.84385
1015.28        139.1878
1015.66        159.9545
1016.04        142.8827
1016.41        94.97153
1016.79        43.56642
1017.17        17.92789
1017.55        15.86698
1017.93        22.51036
1018.31        31.05109
1018.69        38.64555
1019.06        45.77658
1019.44        54.65029
1019.82        67.31188
1020.20        83.13918
1020.58        99.73374
1020.95        112.6341
1021.33        111.4211
1021.71         189.517
1022.09        125.2408
1022.46         123.556
1022.84        126.1771
1023.22        136.8531
1023.60        169.2653
1023.97        492.0003
1024.35       -57.12024
1024.73        2.329458
