SpectraSmart Spectrum 2.9.0.0
--------- Device Information -----------
Spectrum Name :  反射率_0
Saving Time :  2024/04/26 00:38:43
Spectro-Module Model Name : SE2030-DUVN
Spectro-Module Serial Number : OS361AC55029948
Wavelength Start : 200
Wavelength End : 1025
Wavelength Unit : Wavelength(nm)
Spectrum Unit : Reflectance(%)
-----------Spectrum Setting ------------
Integration Time : 20ms
Average : 10
Boxcar : 0
Background removal :  enabled
linearity correction :  enabled
SC :  disabled
Intensity correction :  disabled
DWT denoise :  enabled
savitzky-golay :  disabled
FFT :  disabled
Running average :  disabled
Kalman :  disabled
High pass :  disabled
---------------BEGIN--------------------
Wavelength(nm)             Reflectance(%)
200.29               0
200.75        74.44159
201.21         66.4787
201.67        58.17836
202.13        54.15158
202.58        54.78695
203.04        58.99598
203.50        64.85883
203.96        68.77348
204.42        69.56809
204.88        68.49887
205.34        66.91991
205.80        66.14129
206.26        66.57738
206.72        68.54462
207.18        72.27151
207.64        73.35667
208.10        67.04321
208.55        59.83309
209.01         56.7774
209.47         57.9089
209.93        61.86082
210.39        68.39561
210.85        75.00059
211.31        75.81207
211.77        69.14003
212.23        57.17668
212.69        45.09138
213.14        40.84904
213.60        45.80129
214.06        57.95826
214.52        72.07361
214.98        79.90292
215.44        79.45443
215.90        73.36899
216.36        65.73896
216.81        62.24298
217.27        64.02932
217.73        68.78336
218.19        73.22052
218.65        73.20293
219.11        67.43134
219.57         55.5048
220.02        39.40981
220.48        29.90306
220.94        33.21944
221.40        46.30751
221.86        59.25177
222.32        61.80066
222.77        54.93999
223.23        44.24444
223.69        35.08166
224.15        32.82367
224.61        36.96979
225.06        44.85486
225.52        52.85345
225.98        56.39782
226.44        54.72495
226.90        49.87035
227.36        44.48671
227.81        42.12342
228.27        43.76239
228.73        47.82162
229.19        52.67929
229.65         55.9879
230.10        57.12614
230.56         57.0774
231.02        56.56125
231.48        56.34421
231.93         56.5655
232.39        56.94485
232.85         57.3087
233.31        57.51751
233.77        57.49925
234.22        57.33696
234.68        57.05016
235.14        56.61757
235.60        56.07815
236.05        55.47747
236.51        54.81446
236.97        53.99329
237.43        52.98051
237.88        51.84201
238.34        50.67989
238.80        50.11607
239.26        50.50155
239.71        51.83142
240.17        53.70604
240.63          55.825
241.08         57.9726
241.54        59.98442
242.00        61.68366
242.46        62.97095
242.91        64.14995
243.37        65.30272
243.83        68.08006
244.28        81.10214
244.74        103.1399
245.20        99.70385
245.66        92.29466
246.11        89.81835
246.57        90.49194
247.03        96.12259
247.48        110.6819
247.94        92.05514
248.40        73.69485
248.85         68.9744
249.31        68.86457
249.77        71.82868
250.22        77.63759
250.68        87.40967
251.14        100.7253
251.59        108.0742
252.05        100.8593
252.51        84.09856
252.96        66.98851
253.42        57.45543
253.88        54.83025
254.33        56.27932
254.79        60.96025
255.25        67.03105
255.70        72.86068
256.16        78.51752
256.62        82.14316
257.07        81.83855
257.53        78.59643
257.99        73.20119
258.44        67.72166
258.90        65.44877
259.35        65.51889
259.81        66.66925
260.27        66.93533
260.72        64.43415
261.18        59.93816
261.63        54.34763
262.09        49.28151
262.55        45.94121
263.00        44.26891
263.46        43.70457
263.91        43.37454
264.37        42.62575
264.83        41.27629
265.28        39.48392
265.74        37.74288
266.19        36.53625
266.65        36.05866
267.11        36.00732
267.56        35.95672
268.02        35.39853
268.47        34.23556
268.93        32.66159
269.38        30.97018
269.84        29.88148
270.30        29.58045
270.75        29.86642
271.21        30.34683
271.66        30.43723
272.12        29.98059
272.57        29.15622
273.03        28.27336
273.48          27.715
273.94         27.5948
274.39        27.73285
274.85        27.90553
275.31        27.78637
275.76        27.29856
276.22        26.58641
276.67        25.82863
277.13        25.36552
277.58        25.20783
278.04        25.27383
278.49         25.3224
278.95        25.07714
279.40        24.47612
279.86        23.68277
280.31        22.87214
280.77        22.41198
281.22        22.31705
281.68        22.47062
282.13        22.67796
282.59        22.70123
283.04         22.4807
283.50        22.13769
283.95        21.72536
284.41        21.34071
284.86        21.01904
285.32        20.73617
285.77        20.54148
286.22        20.57225
286.68        20.80416
287.13         21.1667
287.59        21.48738
288.04        21.49868
288.50        21.17864
288.95        20.60124
289.41        19.94216
289.86        19.37016
290.32        18.99247
290.77        18.74385
291.22        18.62945
291.68        18.61524
292.13        18.68897
292.59        18.87053
293.04        19.13702
293.50        19.44673
293.95        19.77139
294.40        20.08185
294.86        20.38094
295.31        20.69148
295.77        21.01789
296.22        21.35833
296.68        21.66298
297.13        21.82623
297.58        21.85714
298.04         21.8083
298.49        21.81242
298.95        22.10527
299.40        22.71436
299.85        23.56026
300.31        24.46441
300.76        25.15391
301.21        25.54304
301.67        25.73644
302.12        25.81756
302.58        25.96043
303.03        26.19535
303.48        26.47173
303.94        26.80479
304.39         27.1896
304.84        27.61714
305.30        28.08829
305.75        28.50923
306.20         28.7407
306.66        28.78274
307.11        28.66546
307.57        28.51934
308.02        28.47297
308.47        28.58564
308.93        28.81534
309.38        29.10112
309.83        29.37399
310.29        29.59359
310.74        29.76772
311.19        29.89597
311.65        29.97814
312.10        30.01324
312.55        29.99854
313.00        29.91356
313.46        29.73878
313.91        29.47641
314.36        29.16272
314.82        28.87922
315.27         28.7305
315.72        28.74331
316.18        28.88335
316.63        29.08019
317.08        29.19431
317.53        29.17907
317.99        29.05582
318.44        28.89085
318.89        28.79396
319.35        28.78348
319.80        28.83438
320.25        28.85081
320.70        28.68135
321.16        28.30813
321.61        27.79205
322.06        27.27542
322.51        26.97018
322.97        26.90963
323.42        27.03529
323.87        27.21164
324.32        27.20861
324.78        26.96082
325.23        26.54701
325.68        26.06397
326.13        25.67523
326.59        25.42978
327.04        25.29162
327.49        25.22536
327.94        25.17785
328.39        25.12481
328.85        25.07994
329.30        25.05876
329.75        25.04172
330.20        25.02643
330.66        24.99405
331.11        24.96398
331.56        24.92819
332.01        24.88276
332.46        24.81518
332.92        24.73597
333.37         24.6922
333.82        24.68452
334.27        24.72052
334.72        24.73695
335.17        24.62629
335.63        24.37275
336.08        24.01141
336.53        23.67469
336.98        23.57959
337.43        23.76429
337.88        24.16619
338.34        24.58812
338.79        24.75052
339.24        24.55859
339.69        24.09212
340.14        23.54865
340.59        23.27696
341.05        23.35835
341.50        23.68014
341.95        24.05674
342.40        24.21519
342.85        24.09459
343.30        23.80253
343.75        23.43021
344.20         23.1357
344.66        22.97905
345.11         22.8685
345.56        22.82696
346.01        22.89025
346.46        23.03393
346.91        23.26479
347.36          23.417
347.81        23.22081
348.26        22.66033
348.72        21.85789
349.17        21.05485
349.62        20.73147
350.07        20.99586
350.52        21.68478
350.97        22.54243
351.42        23.17488
351.87        23.45854
352.32        23.49691
352.77        23.36693
353.22        23.19705
353.67        23.03976
354.13        22.85388
354.58        22.63465
355.03        22.42173
355.48        22.22945
355.93        22.08224
356.38        21.96889
356.83        21.85128
357.28        21.71947
357.73        21.57458
358.18        21.44337
358.63        21.36914
359.08        21.35425
359.53        21.38467
359.98        21.39736
360.43        21.29681
360.88        21.07106
361.33        20.75036
361.78        20.42823
362.23        20.25833
362.68        20.26656
363.13        20.39233
363.58        20.53526
364.03        20.53739
364.48        20.36155
364.93        20.07089
365.38         19.7161
365.83        19.37742
366.28        19.09404
366.73        18.84005
367.18        18.65646
367.63        18.61129
368.08        18.70048
368.53        18.90039
368.98        19.10984
369.43        19.16553
369.88        19.03583
370.33        18.77008
370.78        18.45293
371.23        18.23502
371.68        18.16315
372.13        18.18504
372.58        18.27411
373.03         18.3819
373.48        18.47703
373.93        18.57939
374.38        18.63874
374.83        18.57367
375.28        18.37956
375.72        18.06615
376.17        17.75084
376.62        17.58889
377.07        17.61641
377.52        17.78275
377.97        17.99306
378.42        18.09089
378.87        18.03338
379.32        17.87293
379.77        17.66636
380.22        17.49335
380.67        17.37849
381.11         17.2984
381.56        17.23218
382.01        17.15779
382.46        17.06728
382.91        16.96858
383.36        16.88108
383.81        16.82916
384.26        16.81541
384.71        16.83345
385.15        16.83401
385.60        16.75764
386.05        16.58944
386.50        16.33998
386.95        16.08763
387.40        15.96877
387.85        16.01114
388.29        16.16723
388.74         16.3285
389.19        16.33144
389.64        16.15685
390.09         15.8483
390.54        15.53302
390.98        15.42439
391.43         15.5744
391.88        15.89645
392.33        16.22804
392.78         16.3333
393.23        16.17792
393.67         15.8429
394.12        15.49277
394.57        15.29743
395.02        15.29566
395.47        15.43043
395.91         15.6191
396.36        15.69622
396.81        15.61786
397.26         15.4259
397.71        15.21187
398.15         15.0919
398.60        15.10798
399.05        15.21796
399.50        15.31996
399.95        15.23112
400.39        14.99809
400.84        14.62052
401.29        14.24758
401.74        14.11942
402.18        14.30566
402.63        14.70892
403.08        15.16623
403.53        15.41765
403.97        15.39511
404.42        15.17729
404.87        14.87194
405.32        14.66568
405.76        14.61869
406.21        14.67312
406.66        14.77353
407.11        14.85074
407.55        14.88587
408.00         14.8988
408.45         14.9001
408.90        14.89232
409.34        14.87727
409.79         14.8497
410.24        14.81116
410.68        14.76679
411.13        14.72397
411.58        14.68718
412.03         14.6633
412.47         14.6672
412.92        14.69032
413.37        14.72258
413.81         14.7614
414.26        14.81859
414.71        14.88161
415.15        14.95169
415.60        14.97723
416.05        14.89494
416.49        14.70077
416.94        14.43143
417.39        14.15765
417.83        14.00163
418.28        14.00121
418.73        14.10509
419.17        14.26897
419.62         14.4164
420.07        14.52028
420.51         14.6043
420.96        14.63229
421.41        14.54337
421.85        14.33991
422.30        14.06575
422.74         13.8052
423.19        13.71153
423.64        13.79396
424.08        14.01748
424.53         14.2851
424.98        14.44675
425.42        14.45652
425.87        14.34938
426.31        14.17691
426.76        14.06515
427.21        14.02372
427.65        13.92362
428.10        13.82817
428.54        13.92319
428.99        14.21182
429.44         14.6145
429.88        14.96619
430.33        15.05227
430.77        14.83955
431.22        14.39577
431.66        13.91686
432.11        13.75862
432.56        13.95381
433.00        14.32481
433.45        14.69032
433.89        14.92257
434.34        14.91467
434.78        14.58219
435.23        14.16465
435.67         14.1326
436.12        14.44255
436.57        14.58675
437.01        14.49595
437.46        14.42074
437.90        14.38261
438.35        14.31069
438.79        14.21386
439.24        14.14685
439.68         14.1248
440.13        14.07475
440.57        14.01877
441.02        14.17995
441.46        14.44494
441.91        14.31122
442.35         13.8672
442.80        13.66032
443.24        13.67272
443.69        13.69708
444.13         13.6791
444.58        13.53577
445.02        13.32101
445.47        13.32781
445.91        13.50831
446.36        13.54076
446.80        13.40231
447.24        13.27661
447.69        13.20051
448.13        13.14115
448.58        13.11395
449.02        13.12604
449.47        13.15257
449.91        13.15061
450.36        13.11493
450.80        13.05429
451.25        13.00503
451.69        13.01293
452.13        13.08698
452.58         13.1961
453.02        13.30901
453.47        13.37375
453.91        13.38052
454.36        13.35166
454.80        13.29248
455.24        13.21246
455.69        13.13185
456.13        13.04345
456.58        12.99582
457.02        13.04043
457.46        13.18479
457.91        13.40169
458.35        13.62676
458.79         13.7487
459.24        13.75145
459.68        13.65568
460.13        13.53109
460.57        13.45061
461.01        13.45191
461.46        13.50495
461.90        13.58337
462.34        13.63378
462.79        13.64038
463.23        13.61721
463.68          13.599
464.12        13.63993
464.56        13.75008
465.01        13.91285
465.45        14.05182
465.89        14.10525
466.34        14.07426
466.78         13.9071
467.22        13.70323
467.67        13.76448
468.11        14.04589
468.55        14.13323
468.99        14.01927
469.44        13.97729
469.88        14.06458
470.32        14.31046
470.77        14.61579
471.21        14.71182
471.65        14.56038
472.10        14.33772
472.54        14.13607
472.98        14.05799
473.42        14.13999
473.87        14.35185
474.31        14.60756
474.75         14.7664
475.20        14.79775
475.64        14.73721
476.08        14.65085
476.52         14.6393
476.97        14.72732
477.41        14.88316
477.85        15.04776
478.29        15.15783
478.74        15.19652
479.18        15.11191
479.62        14.96336
480.06        15.09288
480.50        15.20483
480.95        15.32685
481.39        15.32321
481.83        15.30418
482.27        15.26629
482.72        15.08585
483.16        14.85564
483.60        14.92454
484.04        15.31404
484.48        15.56652
484.93        15.81156
485.37        16.23159
485.81         16.7385
486.25        16.68846
486.69        21.91305
487.14        17.60254
487.58        11.56572
488.02        14.40961
488.46        16.10214
488.90        16.19899
489.34        16.35955
489.79        16.27517
490.23        17.06884
490.67        17.53345
491.11        17.46719
491.55        17.38807
491.99        17.26344
492.43        17.11654
492.88        17.01443
493.32        17.04687
493.76        17.10822
494.20        17.31396
494.64        17.61016
495.08        17.96507
495.52         18.3271
495.96        18.64001
496.41        18.83672
496.85        18.90945
497.29        18.89633
497.73        18.67694
498.17        18.48931
498.61        18.77485
499.05        19.50727
499.49        19.71657
499.93        19.84991
500.37        19.95146
500.82        19.98465
501.26        20.17781
501.70        20.43753
502.14        20.58598
502.58        20.59133
503.02        20.60109
503.46         20.6206
503.90         20.5556
504.34        20.44544
504.78        20.40141
505.22        20.44223
505.66        20.54212
506.10        20.66753
506.54        20.75891
506.98        20.80031
507.42        20.81311
507.86        20.83096
508.30        20.90507
508.74        21.04372
509.18        21.22133
509.62        21.40807
510.06        21.55717
510.50        21.65451
510.94        21.72079
511.38         21.7591
511.82        21.77351
512.26        21.77198
512.70        21.74771
513.14        21.73495
513.58        21.79156
514.02        21.91459
514.46        22.08063
514.90         22.2274
515.34        22.22003
515.78        22.01159
516.22        21.80192
516.66        21.67196
517.10        21.30643
517.54        20.73117
517.98        21.52732
518.42        21.35255
518.86        21.71617
519.30        21.89714
519.74        22.11749
520.18        22.31479
520.62        22.35927
521.06        22.26306
521.50        22.04482
521.93        21.78336
522.37        21.62115
522.81        21.59562
523.25        21.66636
523.69        21.79214
524.13        21.90594
524.57        21.97948
525.01        22.03105
525.45         22.0495
525.89        22.01543
526.32        21.92909
526.76        21.79645
527.20        21.64339
527.64        21.52302
528.08        21.45351
528.52        21.40219
528.96        21.35389
529.40        21.33998
529.83         21.3649
530.27        21.20488
530.71        21.26312
531.15        21.17703
531.59        21.07154
532.03        20.93616
532.46        20.82544
532.90        20.82916
533.34        20.95066
533.78        21.16084
534.22        21.36515
534.66        21.42329
535.09        21.30562
535.53        21.06363
535.97         20.7878
536.41        20.62728
536.85        20.62309
537.28        20.73607
537.72        20.89357
538.16        20.97755
538.60         20.9606
539.04        20.86893
539.47        20.77364
539.91        20.83267
540.35        21.04318
540.79         21.2754
541.22        21.47583
541.66        21.64867
542.10        21.77179
542.54        21.81606
542.97        21.82052
543.41        21.88328
543.85        22.01988
544.29        22.21095
544.72        22.40569
545.16        22.53575
545.60        22.58602
546.04        22.57567
546.47        22.57832
546.91        22.71788
547.35        23.00333
547.79        23.39711
548.22        23.78188
548.66        23.95594
549.10        23.89734
549.53        23.70777
549.97        23.51902
550.41        23.46713
550.84        23.59024
551.28        23.88946
551.72        24.30492
552.15        24.61917
552.59        24.75968
553.03        25.16572
553.46        25.15086
553.90        25.32411
554.34        25.49539
554.77        25.63581
555.21        25.72199
555.65         25.8117
556.08        25.92465
556.52         25.7343
556.96        25.87297
557.39        25.89592
557.83        25.99761
558.27        26.14007
558.70        26.31129
559.14        26.47492
559.57        26.60581
560.01        26.72534
560.45        26.80998
560.88        26.82296
561.32        26.78626
561.75        26.69695
562.19        26.61687
562.63        26.60487
563.06        26.66986
563.50        26.80049
563.93        26.95964
564.37        27.09937
564.80        27.19613
565.24        27.27614
565.68        27.34393
566.11        27.40915
566.55        27.49687
566.98        27.59253
567.42        27.71983
567.85        27.90925
568.29        28.17772
568.72        28.43112
569.16        28.67223
569.60        29.01722
570.03        29.33518
570.47        29.29444
570.90        29.04155
571.34        28.72011
571.77        29.08311
572.21        29.20346
572.64        29.31682
573.08        28.95846
573.51        27.96017
573.95        29.20751
574.38        31.12792
574.82        30.54107
575.25        30.19331
575.69        29.13144
576.12        28.68652
576.56        28.65373
576.99        29.31424
577.42          30.683
577.86        30.61354
578.29        30.08608
578.73        31.81116
579.16        29.26568
579.60        26.81091
580.03        28.03852
580.47         29.8882
580.90        30.35793
581.33        29.86084
581.77        29.34524
582.20        31.88968
582.64        31.41199
583.07         26.9573
583.51        26.40646
583.94        25.81909
584.37        26.84252
584.81        28.08111
585.24         29.5162
585.68        30.24012
586.11         29.5421
586.54        27.49669
586.98        26.65066
587.41        26.85419
587.85        28.11079
588.28        28.93249
588.71        27.38523
589.15        26.50201
589.58        27.13897
590.01         27.3172
590.45        27.81842
590.88        27.98375
591.31        27.69239
591.75        27.59294
592.18        27.72592
592.61        28.40783
593.05        28.76504
593.48         29.9529
593.91        30.06872
594.35        27.69326
594.78        27.32077
595.21        27.50553
595.65        28.85854
596.08        29.88703
596.51        28.71301
596.94        28.23433
597.38        28.74244
597.81        30.11835
598.24        30.78331
598.68        30.55877
599.11        30.39719
599.54        31.55221
599.97        32.50176
600.41        30.93905
600.84        31.41339
601.27        32.26493
601.70        31.99093
602.14        32.25021
602.57        32.18317
603.00        32.90516
603.43        34.17022
603.87        34.93211
604.30         35.0168
604.73        34.45643
605.16        34.24233
605.60         35.1888
606.03        36.16355
606.46        37.02649
606.89        37.21163
607.32         36.6196
607.76         36.9554
608.19        38.30756
608.62        37.98952
609.05        37.55613
609.48        38.08373
609.92        38.32532
610.35        38.54962
610.78        40.36636
611.21        40.87404
611.64        39.50551
612.07        40.08886
612.50        40.49748
612.94        40.96631
613.37        40.90336
613.80        41.23696
614.23         41.9854
614.66        41.99382
615.09        42.46724
615.52        42.72279
615.96        43.01365
616.39        43.32671
616.82        42.91096
617.25        43.09307
617.68        43.71688
618.11         44.2706
618.54         44.6093
618.97        44.54573
619.40        44.29357
619.84        44.31649
620.27        45.02902
620.70        45.45825
621.13        45.65236
621.56        45.44853
621.99        45.04353
622.42        45.70986
622.85        47.08307
623.28        46.85158
623.71        46.68737
624.14         46.3812
624.57        46.25275
625.00        46.15007
625.43        46.07287
625.86        45.64627
626.29        45.75326
626.72        45.82998
627.15        45.62227
627.58        45.58822
628.01         45.5656
628.44          45.453
628.87        45.28191
629.30        45.24329
629.73        45.26194
630.16        45.24745
630.59        44.77848
631.02        44.35525
631.45        43.90833
631.88        43.45455
632.31        43.01552
632.74         42.5947
633.17        42.21066
633.60        41.88201
634.03        41.60927
634.46        41.38826
634.89        41.17211
635.32        40.88159
635.75        40.50067
636.18        40.05245
636.61        39.58293
637.04        39.16724
637.47        38.82097
637.89        38.51855
638.32         38.2299
638.75        37.93047
639.18        37.61433
639.61        37.30719
640.04        36.99623
640.47         36.6522
640.90        36.28018
641.33        35.88573
641.76        35.52191
642.18        35.33105
642.61        35.33241
643.04        35.40174
643.47         35.4361
643.90        35.72999
644.33          35.511
644.76        35.41356
645.18        35.26805
645.61        35.17609
646.04        35.16171
646.47        35.19752
646.90        35.30347
647.33        35.49446
647.75        35.78009
648.18        36.15203
648.61        36.52556
649.04        36.84141
649.47         37.0387
649.89        36.90424
650.32        36.69046
650.75         37.0092
651.18        37.87035
651.61        38.84989
652.03        39.63478
652.46        40.04228
652.89        40.29959
653.32        40.15754
653.74        39.89399
654.17        41.79613
654.60        42.47767
655.03        41.76719
655.46        42.76587
655.88        45.43142
656.31        48.65892
656.74         109.908
657.16        71.70091
657.59        25.23402
658.02        19.35091
658.45        33.91671
658.87         43.8119
659.30        46.53882
659.73        46.15284
660.15        44.99012
660.58        47.14671
661.01        48.53704
661.44        47.00157
661.86        46.81363
662.29        47.39732
662.72        48.18472
663.14        49.02409
663.57        49.15451
664.00         48.7563
664.42        48.88401
664.85        49.60022
665.27         50.1749
665.70         50.4305
666.13        50.53642
666.55        50.47261
666.98        50.19083
667.41        49.86375
667.83          49.811
668.26        50.10575
668.69        50.62785
669.11        51.17365
669.54        51.66364
669.96        51.54471
670.39        51.30025
670.82        50.97742
671.24        50.91953
671.67        51.21372
672.09        51.70268
672.52        52.16589
672.94        52.66669
673.37        52.29242
673.80        52.25384
674.22        52.34275
674.65        52.39268
675.07         52.4021
675.50        52.38059
675.92        52.37883
676.35        52.50201
676.77        52.76023
677.20        53.06124
677.62        53.36022
678.05         53.5885
678.47        53.71086
678.90        53.75756
679.32        53.76036
679.75        53.67151
680.17        53.72487
680.60        53.74834
681.02        53.77965
681.45        53.74715
681.87         53.6628
682.30        53.56388
682.72        53.51672
683.15        53.63051
683.57        53.93026
684.00        54.25895
684.42        54.72317
684.85        54.93833
685.27        54.92279
685.70        54.74261
686.12        54.50396
686.54        54.40975
686.97        54.49788
687.39        54.72066
687.82        54.98868
688.24        55.19266
688.66        55.27885
689.09        55.29185
689.51        55.28443
689.94        55.32253
690.36        55.43398
690.78        55.57637
691.21        55.72774
691.63        55.88602
692.06         56.0287
692.48        56.11922
692.90        56.17442
693.33        56.25357
693.75        56.36806
694.17         56.4925
694.60        56.61671
695.02        56.73495
695.44        56.83147
695.87        56.97696
696.29        57.18184
696.71        57.17006
697.14         57.0393
697.56        57.42141
697.98        58.12322
698.41        58.09852
698.83        57.48365
699.25         57.2004
699.68        57.31964
700.10        57.32326
700.52        57.22047
700.94        57.32055
701.37        57.60011
701.79        57.92438
702.21        58.22845
702.64        58.54958
703.06        58.80094
703.48        58.83512
703.90        58.64995
704.33        58.30035
704.75        57.90552
705.17         57.7338
705.59        57.85369
706.01        58.09142
706.44        58.35152
706.86        58.95707
707.28        59.05509
707.70        59.36355
708.12        59.59576
708.55        59.48123
708.97        59.07075
709.39        58.93832
709.81        58.82637
710.23        58.80803
710.66        58.80712
711.08        59.02466
711.50        59.35092
711.92        59.52454
712.34         59.5039
712.76        59.35123
713.19        59.17342
713.61        59.16776
714.03        59.36668
714.45        59.70253
714.87        60.04111
715.29        60.17623
715.71        60.06522
716.13        59.78123
716.56        59.45304
716.98        59.31081
717.40        59.40801
717.82        59.67266
718.24        60.00321
718.66        60.22696
719.08        60.28999
719.50        60.24635
719.92         60.1404
720.34        60.06015
720.76        60.03949
721.19        59.95097
721.61        59.99022
722.03        60.05662
722.45        60.19905
722.87        60.40715
723.29        60.63573
723.71        60.79975
724.13        60.87241
724.55        60.87133
724.97         60.8327
725.39        60.81599
725.81        60.83939
726.23        60.89851
726.65        60.97593
727.07        60.97934
727.49        61.00598
727.91        60.99833
728.33         61.0059
728.75        61.05527
729.17        61.15015
729.59        61.26609
730.01         61.4025
730.43        61.55578
730.85        61.72144
731.27        61.92498
731.69        62.10352
732.10        62.13726
732.52        62.00904
732.94        61.78729
733.36        61.61912
733.78         61.6134
734.20        61.80089
734.62        62.43893
735.04        63.28501
735.46        63.26594
735.88        62.60496
736.30        62.81671
736.72         63.8763
737.13        64.37556
737.55        64.03631
737.97         63.8834
738.39        63.96571
738.81        63.12063
739.23        61.85998
739.65        62.70829
740.06        65.13825
740.48        65.57999
740.90         64.0556
741.32         63.3485
741.74          63.737
742.16        63.95284
742.57        64.05374
742.99        64.72617
743.41        65.74569
743.83        66.35773
744.25        66.42712
744.67        66.15076
745.08        65.74974
745.50        65.58511
745.92         65.7698
746.34        66.17697
746.75        66.65978
747.17        66.95252
747.59        67.00185
748.01        66.95038
748.42        66.93649
748.84        67.03919
749.26        67.37842
749.68         68.1035
750.09        68.99408
750.51        69.58716
750.93        69.70211
751.35        69.15462
751.76        68.23006
752.18        67.82168
752.60        67.97827
753.01        68.04502
753.43        67.99868
753.85         68.2547
754.27        68.80431
754.68        69.45342
755.10        70.07365
755.52        70.59804
755.93        70.95681
756.35        71.09431
756.77        71.11188
757.18         71.1439
757.60        71.23647
758.02         71.5718
758.43         71.8576
758.85        71.64874
759.26        70.05068
759.68        69.96151
760.10        70.93734
760.51        71.40583
760.93        71.05803
761.34        70.60129
761.76        70.21597
762.18        69.65548
762.59        69.20534
763.01        69.54839
763.42        70.61286
763.84        71.31516
764.26         71.5196
764.67        71.56406
765.09        71.49386
765.50        71.54626
765.92        71.57577
766.33        70.58935
766.75        69.03468
767.16        68.54591
767.58        69.28975
768.00        70.59032
768.41        72.07934
768.83         73.1488
769.24        73.35013
769.66        72.56604
770.07        71.29582
770.49        70.07001
770.90        69.24287
771.32        70.12248
771.73        72.08954
772.15         71.7117
772.56        69.39421
772.97         68.8904
773.39        70.16622
773.80        70.71888
774.22        70.30602
774.63        70.18398
775.05        70.35573
775.46        70.49743
775.88        70.55247
776.29        70.47863
776.70        70.34334
777.12        70.40125
777.53        70.68905
777.95        71.07288
778.36        71.39028
778.77        71.36906
779.19        71.00124
779.60        70.39122
780.02          69.782
780.43        69.63587
780.84        70.09328
781.26        70.57877
781.67        71.01815
782.09         72.2236
782.50        73.61179
782.91        72.75675
783.33        70.35709
783.74        69.55135
784.15        70.50433
784.57        71.31828
784.98        71.60363
785.39        71.45126
785.81        70.90687
786.22        70.40575
786.63        70.20859
787.04        70.28288
787.46        70.67046
787.87        71.52201
788.28        72.57479
788.70        73.16812
789.11        73.15974
789.52        72.87582
789.93        72.46313
790.35         71.8784
790.76         71.3236
791.17        71.28101
791.58        71.69157
792.00        71.95331
792.41        71.94675
792.82        72.00728
793.23         72.1876
793.65        71.98511
794.06        71.66921
794.47        72.54039
794.88        73.90118
795.29        73.82551
795.71        71.38931
796.12         69.5187
796.53        68.48788
796.94        68.37712
797.35        69.19321
797.76        70.44304
798.18        71.58512
798.59        72.35632
799.00        72.45971
799.41        71.64033
799.82        70.34469
800.23        69.59761
800.64        69.61069
801.06        70.00056
801.47          70.633
801.88        71.18789
802.29        71.51461
802.70        71.73621
803.11        71.83294
803.52        71.74071
803.93        71.49153
804.34        71.07849
804.75        70.62629
805.17         70.4637
805.58        70.70315
805.99        70.92028
806.40         71.0263
806.81        71.72561
807.22        72.53495
807.63        71.55282
808.04        69.35264
808.45        68.49429
808.86        69.18964
809.27        70.13484
809.68        70.91393
810.09        71.34351
810.50        71.22826
810.91        70.65857
811.32        69.90664
811.73        69.40723
812.14        69.28619
812.55        69.38492
812.96        69.65382
813.37        69.98672
813.78        70.30942
814.19        70.71138
814.60        70.99116
815.01        70.82224
815.42        70.18339
815.83        69.12627
816.24         68.0879
816.65        67.84656
817.05        68.61377
817.46        70.12977
817.87        71.79836
818.28         72.5493
818.69        72.09357
819.10        70.71102
819.51        69.04631
819.92        68.19827
820.33         68.4694
820.74        69.52452
821.14        70.82681
821.55        71.40762
821.96        71.04379
822.37        70.07938
822.78        68.94086
823.19        68.24184
823.60        68.15802
824.00        68.52144
824.41        69.07489
824.82        69.50692
825.23        69.66402
825.64         69.6699
826.04         69.5938
826.45        69.51917
826.86        69.47133
827.27        69.37162
827.68        69.23504
828.08        69.13595
828.49         69.0396
828.90        69.01528
829.31        68.96649
829.72        68.70767
830.12        68.25519
830.53        67.65774
830.94        67.20075
831.35        67.26975
831.75        67.95486
832.16         69.0853
832.57        70.35761
832.97        71.14297
833.38        71.17554
833.79        70.63297
834.20        69.86317
834.60        69.40089
835.01        69.41283
835.42        69.73365
835.82        70.14047
836.23        70.18346
836.64        69.78854
837.04        69.14006
837.45        68.47782
837.86        68.17069
838.26        68.31271
838.67         68.7319
839.08        69.27709
839.48        69.67783
839.89        69.80202
840.29          69.762
840.70        69.55696
841.11        69.16805
841.51        68.64293
841.92        67.96085
842.33        67.33894
842.73        67.14905
843.14        67.42719
843.54        68.11386
843.95        68.86521
844.35         69.1534
844.76        68.83556
845.17        68.08531
845.57        67.22235
845.98         66.7444
846.38        66.77366
846.79        67.13512
847.19        67.64014
847.60        67.87914
848.00        67.76612
848.41        67.42792
848.81        67.03539
849.22        66.75192
849.62        66.68467
850.03        66.77756
850.43        67.03956
850.84        67.43223
851.24        67.94476
851.65        68.41774
852.05        68.93835
852.46        69.48389
852.86        70.02332
853.27        70.56831
853.67        70.71283
854.07        69.95827
854.48        68.37586
854.88        66.18735
855.29        64.12592
855.69        63.23965
856.10        63.73132
856.50        65.46781
856.90        67.85811
857.31         69.4816
857.71        69.84196
858.12        69.23124
858.52        68.18727
858.92        67.43443
859.33         67.1571
859.73        67.14064
860.13        67.32065
860.54        67.59055
860.94        67.95294
861.34        68.45509
861.75        68.98931
862.15        69.44008
862.55        69.73318
862.96        69.87698
863.36        69.94166
863.76        70.03736
864.17        70.19696
864.57        70.42644
864.97        70.71643
865.38        71.05216
865.78        71.46262
866.18        71.86887
866.58        72.25275
866.99        72.57516
867.39        72.85526
867.79        73.11901
868.19        73.18902
868.60        72.74759
869.00        71.77408
869.40        70.41035
869.80        69.24198
870.21        69.14675
870.61        70.38592
871.01        72.70438
871.41        75.36819
871.81        77.10468
872.22        77.54948
872.62        77.00578
873.02        76.10131
873.42        76.10324
873.82        77.03638
874.22        78.04233
874.63        78.85384
875.03        78.99659
875.43        78.23796
875.83        78.07989
876.23        76.06618
876.63        75.00497
877.03        74.60949
877.44        75.07124
877.84        107.0351
878.24        82.62821
878.64        83.41399
879.04        84.64326
879.44        78.73011
879.84        75.60458
880.24        81.64482
880.64        84.01606
881.04        83.96071
881.44        83.60963
881.84        82.78011
882.24        81.47968
882.65        80.44903
883.05        80.15162
883.45        80.67338
883.85        82.24537
884.25        84.28033
884.65         85.3643
885.05        85.10845
885.45         83.9691
885.85        82.66636
886.25        82.20855
886.65        82.79529
887.05        84.06995
887.45         85.5776
887.85        86.51182
888.25        86.58071
888.65        86.07876
889.04        85.24832
889.44         84.4972
889.84        83.97398
890.24        83.53966
890.64        83.25295
891.04        83.22401
891.44        83.43267
891.84        83.88509
892.24        84.37815
892.64        84.50205
893.04        84.20536
893.44          83.675
893.83          83.151
894.23        82.99743
894.63        83.27635
895.03        83.79386
895.43        84.56873
895.83        85.61037
896.23        86.80302
896.63        88.14981
897.02        89.11814
897.42        88.85928
897.82        87.32439
898.22        84.85954
898.62         82.4015
899.01        81.32735
899.41         81.9064
899.81        83.65328
900.21        85.84002
900.61        87.26942
901.00        87.56846
901.40        87.11411
901.80        86.25426
902.20        85.52835
902.59        85.13521
902.99        84.88366
903.39        84.73018
903.79        84.63429
904.18        84.57898
904.58         84.6833
904.98        84.93434
905.38        85.27454
905.77        85.64883
906.17        85.99157
906.57        86.29903
906.96        86.63999
907.36        86.93481
907.76        87.17294
908.15        87.20548
908.55        86.68675
908.95        85.64836
909.34        84.21143
909.74         82.7817
910.14        81.79896
910.53        81.41788
910.93        81.57819
911.33        82.16096
911.72        82.93906
912.12        83.67139
912.52        84.31092
912.91        84.85666
913.31         85.3186
913.70        85.76118
914.10        86.18317
914.49        86.34644
914.89        85.76216
915.29        84.42943
915.68        82.60156
916.08        81.12769
916.47        80.75459
916.87        81.50288
917.26        83.14221
917.66           84.91
918.05        85.56499
918.45        84.79602
918.84        83.03873
919.24        81.11851
919.64         80.2455
920.03         80.7361
920.42        82.20295
920.82        84.08225
921.21        85.50724
921.61        85.98217
922.00        85.82107
922.40        85.16487
922.79        84.23978
923.19        83.26951
923.58         81.9918
923.98        80.43639
924.37        79.58939
924.77        79.96795
925.16        77.36417
925.55        79.41113
925.95        80.37202
926.34        82.40708
926.74        84.93441
927.13        87.31271
927.52        88.18382
927.92        87.36306
928.31        85.34193
928.70        82.73032
929.10        80.59274
929.49        79.26115
929.89        78.48959
930.28        78.45425
930.67         79.4291
931.07        81.20715
931.46        83.77058
931.85        86.17775
932.24        87.01503
932.64        86.02283
933.03        83.36566
933.42        79.88661
933.82        77.51113
934.21        76.84346
934.60        77.43981
934.99        78.31126
935.39        78.46355
935.78        77.74064
936.17        75.67638
936.56        72.21381
936.96        73.87372
937.35        72.91245
937.74        75.12827
938.13        77.10645
938.53        78.51426
938.92        79.42861
939.31        80.16569
939.70        80.62797
940.09        80.32974
940.49        79.31305
940.88        77.85305
941.27        76.55571
941.66        76.14907
942.05        76.67735
942.44        77.88231
942.84        79.45244
943.23        80.85507
943.62        81.75006
944.01        82.26033
944.40        82.26373
944.79        81.58148
945.18        80.19479
945.57        78.02177
945.97        75.52058
946.36        73.89266
946.75        73.71348
947.14        74.60236
947.53        75.81848
947.92        76.55061
948.31        76.70639
948.70        76.54613
949.09        76.21235
949.48        76.01863
949.87        76.10537
950.26        76.26869
950.65        76.53967
951.04        77.02541
951.43        77.69302
951.82        78.53563
952.21        79.19337
952.60        79.07737
952.99        78.09121
953.38        76.40958
953.77        74.59161
954.16        73.44866
954.55        73.16674
954.94        73.62476
955.33        74.23867
955.72         74.0043
956.11        72.70734
956.50        70.60115
956.89        68.62353
957.28        68.47559
957.66        70.62154
958.05        74.24274
958.44        78.01129
958.83        79.97459
959.22        79.67427
959.61        77.66714
960.00        74.85891
960.39        72.74548
960.78        71.83514
961.16        71.75264
961.55        72.03335
961.94        71.86246
962.33        71.03896
962.72        69.96141
963.11        69.04088
963.49         68.7594
963.88        69.18266
964.27        70.13242
964.66        71.28486
965.04        71.99367
965.43        71.91369
965.82         71.3112
966.21        70.55814
966.60        70.13692
966.98        70.17377
967.37        70.47388
967.76        70.92213
968.15        71.27872
968.53        71.42578
968.92        71.38837
969.31        71.23835
969.69        71.02721
970.08        70.78712
970.47        70.53767
970.86        70.19661
971.24        69.63049
971.63        68.86986
972.02        67.98027
972.40        67.30678
972.79        67.45254
973.17        68.62871
973.56        70.54197
973.95        72.69483
974.33        74.08458
974.72        74.22857
975.11        73.36991
975.49        71.98104
975.88        70.75666
976.26        69.80004
976.65        68.93092
977.04        67.81609
977.42        65.91899
977.81        63.39124
978.19        60.70478
978.58        58.93713
978.96        58.93587
979.35        60.75879
979.74        64.29105
980.12        68.90919
980.51        72.08433
980.89        73.00074
981.28        72.14255
981.66        70.59354
982.05        69.82109
982.43        70.09868
982.82         70.8632
983.20        72.02795
983.59        73.54341
983.97         75.4056
984.35        77.80022
984.74        80.02045
985.12        80.67259
985.51        78.98388
985.89        75.16805
986.28        70.51069
986.66        67.08592
987.04        65.75414
987.43        66.02391
987.81        66.83635
988.20        66.78248
988.58        65.40118
988.96        62.52604
989.35        58.66563
989.73        56.87952
990.12        59.32806
990.50        64.64443
990.88        69.22377
991.27        70.27199
991.65        68.24438
992.03        64.03204
992.42        59.40874
992.80        57.41334
993.18        58.98193
993.56         62.3053
993.95        65.97048
994.33        69.02336
994.71        71.04742
995.10        72.70036
995.48        73.58829
995.86        72.82597
996.24        70.26656
996.63        65.69019
997.01        60.35887
997.39        58.21221
997.77        60.91483
998.15        67.56519
998.54        74.55583
998.92        76.91608
999.30        73.21661
999.68        64.71524
1000.06        53.77531
1000.45         46.1706
1000.83        44.25268
1001.21        46.11028
1001.59        49.77142
1001.97        53.15243
1002.35        55.73276
1002.73        58.56335
1003.12        60.89619
1003.50        60.19439
1003.88         55.9025
1004.26        49.51593
1004.64        43.79668
1005.02         41.0269
1005.40        41.32161
1005.78        44.51774
1006.16        51.77511
1006.54        61.25551
1006.92         67.5814
1007.30        69.95121
1007.69        69.76553
1008.07        68.58656
1008.45        66.28587
1008.83         60.9378
1009.21        46.40564
1009.59        4.298704
1009.97       -95.57542
1010.35       -209.9617
1010.73       -163.8623
1011.11       -76.82323
1011.49       -20.58706
1011.86        16.84193
1012.24        37.28833
1012.62        45.68441
1013.00        46.78168
1013.38        42.35782
1013.76        34.17736
1014.14         29.7015
1014.52         35.5285
1014.90         53.2001
1015.28        77.23589
1015.66         88.7115
1016.04        76.85516
1016.41        47.72047
1016.79        18.59082
1017.17        5.786466
1017.55        7.039368
1017.93        12.91114
1018.31        19.49186
1018.69        25.65333
1019.06        31.84273
1019.44         39.1611
1019.82        49.03867
1020.20        60.17148
1020.58        68.92585
1020.95        70.25273
1021.33        39.02048
1021.71        725.0745
1022.09         183.827
1022.46        160.3045
1022.84        158.1206
1023.22        169.1585
1023.60        207.7193
1023.97        604.1364
1024.35       -70.87241
1024.73        2.244962
