SpectraSmart Spectrum 2.9.0.0
--------- Device Information -----------
Spectrum Name :  反射率_0
Saving Time :  2024/04/26 00:39:02
Spectro-Module Model Name : SE2030-DUVN
Spectro-Module Serial Number : OS361AC55029948
Wavelength Start : 200
Wavelength End : 1025
Wavelength Unit : Wavelength(nm)
Spectrum Unit : Reflectance(%)
-----------Spectrum Setting ------------
Integration Time : 20ms
Average : 10
Boxcar : 0
Background removal :  enabled
linearity correction :  enabled
SC :  disabled
Intensity correction :  disabled
DWT denoise :  enabled
savitzky-golay :  disabled
FFT :  disabled
Running average :  disabled
Kalman :  disabled
High pass :  disabled
---------------BEGIN--------------------
Wavelength(nm)             Reflectance(%)
200.29               0
200.75         84.2521
201.21        79.04623
201.67        72.55939
202.13         68.9333
202.58        68.73353
203.04        71.07113
203.50        74.33358
203.96        75.78664
204.42        74.82587
204.88        72.64079
205.34        70.54786
205.80        69.72318
206.26        70.59396
206.72        74.03569
207.18        81.30225
207.64        87.11845
208.10        81.60442
208.55        71.58257
209.01        66.26478
209.47        66.77904
209.93        71.17908
210.39        78.78821
210.85        86.42762
211.31        86.78667
211.77        77.95073
212.23        62.98113
212.69        48.13575
213.14        42.98469
213.60        49.14584
214.06        63.73726
214.52        81.11315
214.98        92.36655
215.44         94.9285
215.90         91.7549
216.36        85.43693
216.81        79.48213
217.27        75.64728
217.73        72.88941
218.19        70.63528
218.65        68.16138
219.11        64.90083
219.57        60.44769
220.02        55.66322
220.48        54.75018
220.94        58.99237
221.40        66.90262
221.86        72.56555
222.32        70.32565
222.77        61.75573
223.23        50.90179
223.69         42.2223
224.15         40.3582
224.61        44.63037
225.06        52.59238
225.52        60.90459
225.98        65.27149
226.44        64.84705
226.90        61.44158
227.36        57.03992
227.81         54.2946
228.27         54.1759
228.73        55.51973
229.19        57.67213
229.65        59.71037
230.10        61.18008
230.56        62.44256
231.02        63.43144
231.48        64.03979
231.93         64.2871
232.39        64.19692
232.85        63.92472
233.31        63.81901
233.77         63.9346
234.22        64.21937
234.68        64.38532
235.14        63.87925
235.60         62.6361
236.05        60.93755
236.51        59.25422
236.97        58.13525
237.43        57.69874
237.88        57.91009
238.34        58.55013
238.80        59.26387
239.26        59.76612
239.71        60.25721
240.17        60.54253
240.63        60.88384
241.08        61.47219
241.54        62.12574
242.00        62.91908
242.46        64.07143
242.91        66.13031
243.37         70.1529
243.83        82.01651
244.28         122.047
244.74        170.1683
245.20        146.8365
245.66        123.1266
246.11        114.5338
246.57        113.0038
247.03        116.4151
247.48        122.2523
247.94        89.50583
248.40            75.4
248.85        74.43284
249.31        75.86201
249.77        78.30254
250.22        81.96284
250.68        87.81483
251.14        95.35336
251.59        98.22881
252.05        91.58176
252.51        79.22689
252.96        67.41653
253.42        61.57305
253.88         60.9236
254.33        63.32555
254.79        68.26064
255.25        74.25183
255.70        79.83588
256.16        85.08405
256.62        88.14251
257.07        87.12794
257.53        83.14056
257.99        77.03911
258.44        71.06446
258.90        68.70449
259.35        68.98473
259.81        70.48059
260.27        71.02116
260.72        68.53894
261.18        63.85583
261.63        57.95567
262.09        52.56544
262.55        48.98159
263.00        47.15878
263.46        46.51704
263.91        46.13604
264.37        45.33526
264.83        43.92636
265.28        42.08507
265.74        40.33995
266.19         39.2066
266.65        38.87704
267.11        39.00846
267.56         39.1359
268.02         38.7352
268.47        37.69696
268.93        36.21221
269.38        34.57482
269.84        33.50468
270.30        33.17882
270.75        33.39595
271.21        33.73531
271.66        33.56509
272.12        32.74685
272.57        31.50781
273.03         30.2391
273.48        29.43659
273.94        29.23919
274.39        29.41882
274.85        29.72063
275.31        29.76457
275.76        29.44081
276.22        28.90575
276.67        28.27731
277.13        27.81734
277.58        27.53372
278.04         27.3708
278.49         27.1884
278.95         26.8641
279.40        26.34723
279.86        25.75088
280.31        25.13558
280.77        24.69842
281.22        24.43196
281.68        24.30147
282.13        24.21514
282.59        24.08182
283.04        23.87017
283.50        23.64634
283.95        23.41038
284.41        23.18582
284.86        22.97222
285.32        22.75887
285.77        22.59328
286.22        22.61165
286.68         22.7948
287.13        23.07551
287.59        23.28109
288.04        23.14337
288.50        22.65777
288.95        21.91243
289.41        21.12829
289.86        20.53315
290.32         20.2387
290.77        20.15108
291.22        20.22227
291.68        20.33923
292.13        20.46142
292.59         20.6205
293.04        20.81604
293.50        21.04638
293.95        21.29875
294.40         21.5421
294.86        21.75634
295.31        21.92924
295.77        22.06537
296.22        22.17527
296.68        22.27661
297.13         22.3679
297.58        22.47213
298.04        22.60846
298.49        22.79955
298.95        23.11085
299.40        23.53839
299.85        24.05688
300.31        24.60737
300.76        25.11133
301.21        25.52599
301.67        25.88583
302.12        26.17208
302.58         26.4094
303.03        26.59391
303.48        26.73111
303.94         26.8925
304.39        27.15503
304.84        27.53503
305.30         28.0029
305.75        28.44839
306.20         28.7101
306.66        28.77909
307.11        28.69769
307.57        28.59132
308.02        28.57834
308.47        28.71468
308.93        28.95157
309.38        29.24057
309.83        29.53514
310.29        29.79738
310.74         30.0324
311.19        30.20872
311.65        30.27782
312.10        30.23454
312.55        30.09215
313.00        29.88593
313.46         29.6872
313.91        29.51521
314.36        29.37485
314.82          29.279
315.27        29.22799
315.72        29.22454
316.18        29.26459
316.63         29.3322
317.08        29.37761
317.53         29.3814
317.99        29.34042
318.44        29.27748
318.89        29.23497
319.35        29.21401
319.80        29.20931
320.25        29.16862
320.70        29.01164
321.16        28.73251
321.61        28.36197
322.06        27.98373
322.51        27.72254
322.97        27.59455
323.42        27.57367
323.87        27.57446
324.32        27.45328
324.78        27.17503
325.23        26.79249
325.68        26.38164
326.13        26.07065
326.59        25.89053
327.04        25.81666
327.49        25.79975
327.94        25.76145
328.39        25.67504
328.85        25.55779
329.30        25.45101
329.75        25.38467
330.20        25.37155
330.66        25.38018
331.11        25.41514
331.56        25.44068
332.01        25.44328
332.46        25.42184
332.92        25.38001
333.37        25.35331
333.82        25.34071
334.27        25.34624
334.72        25.33205
335.17        25.23812
335.63        25.05563
336.08        24.80414
336.53        24.57311
336.98        24.51068
337.43        24.63996
337.88        24.92136
338.34        25.19782
338.79        25.25524
339.24        25.02448
339.69        24.57615
340.14         24.0896
340.59        23.87813
341.05        24.01002
341.50        24.37806
341.95        24.81608
342.40        25.08385
342.85        25.11761
343.30        25.00094
343.75        24.77822
344.20        24.53049
344.66        24.30173
345.11        24.03675
345.56        23.79766
346.01        23.67786
346.46        23.67905
346.91        23.79598
347.36        23.88476
347.81         23.7074
348.26        23.24254
348.72        22.59964
349.17        21.96291
349.62        21.71444
350.07        21.94066
350.52        22.51041
350.97         23.2172
351.42        23.74702
351.87        24.00143
352.32        24.05911
352.77        23.99092
353.22        23.91461
353.67        23.86991
354.13        23.81786
354.58        23.72388
355.03        23.57928
355.48        23.38729
355.93        23.17901
356.38        22.97614
356.83        22.79804
357.28        22.65005
357.73        22.52153
358.18        22.41014
358.63        22.31038
359.08        22.21894
359.53        22.14529
359.98        22.06311
360.43        21.93138
360.88        21.74827
361.33        21.52012
361.78        21.31216
362.23        21.23312
362.68        21.29196
363.13        21.44158
363.58        21.58131
364.03        21.55429
364.48        21.32903
364.93        20.96582
365.38        20.54023
365.83        20.17389
366.28        19.91448
366.73        19.72976
367.18        19.62505
367.63        19.60622
368.08        19.65682
368.53        19.77267
368.98        19.89589
369.43        19.93082
369.88        19.85924
370.33         19.7068
370.78        19.51793
371.23        19.37694
371.68        19.31121
372.13        19.28913
372.58        19.31021
373.03         19.3717
373.48        19.45617
373.93        19.56413
374.38        19.63754
374.83        19.58335
375.28        19.39289
375.72         19.0891
376.17        18.77441
376.62        18.57728
377.07        18.53442
377.52        18.60097
377.97        18.72981
378.42        18.84111
378.87        18.89902
379.32         18.9252
379.77        18.90542
380.22        18.81723
380.67        18.66569
381.11        18.45742
381.56        18.23119
382.01        18.06431
382.46        17.97795
382.91         17.9534
383.36        17.95996
383.81        17.94188
384.26        17.88296
384.71        17.80469
385.15        17.70858
385.60        17.60727
386.05        17.49925
386.50        17.37228
386.95        17.24996
387.40        17.17791
387.85        17.16521
388.29         17.1977
388.74        17.23322
389.19        17.18904
389.64        17.05502
390.09        16.84576
390.54        16.63535
390.98        16.54844
391.43        16.61816
391.88        16.79561
392.33        16.97167
392.78        16.98568
393.23         16.8208
393.67        16.53083
394.12        16.25106
394.57        16.11184
395.02        16.14055
395.47        16.28975
395.91        16.48851
396.36        16.58839
396.81        16.54751
397.26        16.39754
397.71        16.20897
398.15        16.06957
398.60        16.02367
399.05        16.04597
399.50        16.06394
399.95         15.9309
400.39        15.70358
400.84        15.36831
401.29         15.0567
401.74         14.9742
402.18        15.17718
402.63        15.57604
403.08         16.0199
403.53        16.26847
403.97         16.2588
404.42        16.06128
404.87        15.77225
405.32        15.56236
405.76        15.48708
406.21        15.49415
406.66         15.5425
407.11        15.58061
407.55        15.59429
408.00        15.60386
408.45        15.60183
408.90        15.55898
409.34        15.47474
409.79        15.35555
410.24        15.24576
410.68        15.21031
411.13        15.26254
411.58        15.38817
412.03        15.53721
412.47         15.6214
412.92        15.60375
413.37        15.50845
413.81        15.39378
414.26        15.36684
414.71        15.43868
415.15        15.57773
415.60        15.69989
416.05        15.69014
416.49        15.52534
416.94        15.26123
417.39         14.9701
417.83         14.7738
418.28        14.71912
418.73        14.75801
419.17        14.86545
419.62        14.99622
420.07        15.12773
420.51        15.27216
420.96        15.38265
421.41        15.37619
421.85        15.23992
422.30        15.02017
422.74        14.78721
423.19          14.678
423.64        14.70307
424.08        14.83341
424.53        14.99744
424.98        15.09548
425.42        15.10051
425.87        15.03775
426.31        14.93586
426.76        14.88422
427.21        14.87775
427.65        14.78642
428.10        14.68769
428.54        14.79782
428.99        15.12308
429.44        15.57051
429.88        15.94466
430.33        15.99135
430.77        15.67784
431.22        15.09427
431.66        14.48099
432.11        14.25571
432.56        14.46112
433.00        14.89715
433.45        15.35208
433.89         15.6518
434.34        15.65935
434.78        15.27899
435.23        14.78437
435.67        14.71135
436.12        15.02123
436.57        15.17047
437.01        15.07865
437.46        14.99816
437.90        14.95044
438.35        14.86595
438.79        14.77342
439.24        14.75774
439.68        14.83505
440.13        14.91434
440.57        14.98274
441.02        15.22548
441.46        15.50919
441.91        15.31007
442.35        14.75845
442.80        14.48514
443.24        14.47972
443.69        14.50727
444.13        14.49761
444.58        14.33991
445.02         14.0868
445.47        14.06176
445.91        14.21728
446.36        14.21759
446.80        14.04412
447.24        13.88777
447.69        13.79737
448.13        13.75676
448.58        13.78173
449.02        13.87116
449.47        13.97825
449.91        14.02482
450.36        13.99522
450.80        13.90652
451.25         13.8105
451.69        13.77791
452.13        13.82758
452.58        13.92521
453.02        14.03262
453.47        14.08724
453.91        14.07766
454.36        14.03032
454.80        13.96392
455.24        13.90807
455.69        13.88272
456.13         13.8683
456.58         13.8893
457.02        13.96188
457.46        14.08946
457.91        14.25992
458.35        14.42736
458.79        14.51072
459.24        14.50401
459.68         14.4167
460.13        14.31845
460.57        14.28107
461.01        14.33667
461.46        14.45407
461.90        14.58801
462.34        14.65665
462.79          14.638
463.23        14.55221
463.68         14.4556
464.12        14.44347
464.56        14.53979
465.01        14.72059
465.45        14.88766
465.89        14.95066
466.34        14.90447
466.78         14.6988
467.22        14.45615
467.67         14.5208
468.11        14.85017
468.55        15.00043
468.99        14.92882
469.44        14.87229
469.88        14.88508
470.32        15.01595
470.77        15.20857
471.21        15.26112
471.65        15.15146
472.10        15.03543
472.54        14.96074
472.98        14.95532
473.42         15.0361
473.87        15.19736
474.31        15.38078
474.75        15.48916
475.20        15.50518
475.64         15.4491
476.08        15.37606
476.52        15.37121
476.97         15.4548
477.41        15.60343
477.85        15.76166
478.29        15.87066
478.74        15.91542
479.18        15.83703
479.62        15.69403
480.06        15.84213
480.50        15.96788
480.95        16.09818
481.39        16.09208
481.83        16.06676
482.27        16.02021
482.72        15.82909
483.16        15.58287
483.60        15.62488
484.04        15.96093
484.48        16.16096
484.93         16.4215
485.37        16.82133
485.81        17.25007
486.25        17.63248
486.69        23.21219
487.14        18.45483
487.58        12.18895
488.02        15.07745
488.46        16.93785
488.90        17.00446
489.34        17.02256
489.79        16.87414
490.23        17.71652
490.67        18.22061
491.11        18.16512
491.55        18.12191
491.99        18.04045
492.43        17.90364
492.88        17.77525
493.32        17.76091
493.76        17.76607
494.20        17.94278
494.64        18.24526
495.08        18.62671
495.52        19.03985
495.96        19.43748
496.41        19.74262
496.85        19.93865
497.29        20.02666
497.73        19.81671
498.17        19.55121
498.61        19.71499
499.05        20.31158
499.49        20.40042
499.93        20.47886
500.37        20.57892
500.82        20.63923
501.26        20.85486
501.70        21.11742
502.14         21.2551
502.58        21.25075
503.02        21.27991
503.46        21.34995
503.90        21.34904
504.34        21.29387
504.78        21.26602
505.22        21.27827
505.66        21.31674
506.10        21.36806
506.54         21.4068
506.98        21.42965
507.42        21.44879
507.86        21.49114
508.30        21.59689
508.74        21.76676
509.18        21.97616
509.62        22.18805
510.06        22.34281
510.50        22.42463
510.94        22.45961
511.38        22.45537
511.82        22.42479
512.26        22.38155
512.70        22.31745
513.14        22.28051
513.58        22.34963
514.02        22.52276
514.46         22.7689
514.90        22.99755
515.34        23.02998
515.78        22.80928
516.22        22.54394
516.66        22.34129
517.10         21.9353
517.54         21.3644
517.98        22.18419
518.42          22.049
518.86        22.41946
519.30        22.57383
519.74        22.74743
520.18        22.89819
520.62        22.92751
521.06        22.85462
521.50        22.68489
521.93        22.48433
522.37        22.37508
522.81         22.3859
523.25        22.48281
523.69        22.62178
524.13        22.73156
524.57        22.78644
525.01        22.80532
525.45        22.79085
525.89        22.74799
526.32        22.67977
526.76        22.58223
527.20        22.46523
527.64        22.35546
528.08        22.26528
528.52        22.17389
528.96        22.07035
529.40        21.99436
529.83         21.9584
530.27        21.73283
530.71        21.75116
531.15        21.67149
531.59        21.62502
532.03         21.5926
532.46        21.59827
532.90        21.68004
533.34        21.82414
533.78         22.0097
534.22        22.17021
534.66        22.21007
535.09        22.11012
535.53        21.91248
535.97        21.67461
536.41         21.4947
536.85        21.40658
537.28        21.38798
537.72        21.42022
538.16        21.46983
538.60        21.52399
539.04        21.57983
539.47        21.63799
539.91        21.75327
540.35        21.90205
540.79        21.98532
541.22        22.01786
541.66        22.11382
542.10        22.27564
542.54        22.43582
542.97        22.57829
543.41          22.717
543.85        22.84479
544.29        22.97162
544.72        23.08022
545.16        23.15281
545.60         23.1898
546.04        23.19277
546.47        23.21976
546.91        23.37292
547.35        23.65413
547.79        24.03538
548.22         24.4083
548.66        24.58193
549.10        24.53789
549.53         24.3745
549.97        24.21184
550.41        24.17449
550.84        24.30645
551.28        24.57976
551.72        24.94124
552.15         25.2882
552.59        25.57129
553.03        25.80997
553.46        25.99212
553.90        26.12378
554.34        26.21716
554.77        26.24288
555.21        26.21623
555.65        26.24529
556.08        26.35892
556.52        26.21535
556.96        26.43244
557.39        26.51832
557.83        26.65871
558.27        26.82359
558.70        27.00853
559.14        27.18946
559.57        27.34254
560.01        27.48125
560.45        27.57344
560.88         27.5714
561.32        27.49832
561.75        27.36098
562.19         27.2321
562.63        27.18361
563.06        27.22953
563.50        27.35509
563.93        27.52461
564.37        27.69248
564.80        27.83017
565.24        27.95838
565.68        28.06916
566.11        28.15399
566.55        28.23453
566.98        28.30193
567.42        28.38479
567.85        28.52385
568.29        28.74123
568.72        28.94063
569.16        29.14554
569.60        29.47592
570.03        29.79821
570.47        29.82803
570.90        29.69804
571.34        29.28988
571.77        29.73208
572.21        29.82134
572.64        29.87376
573.08        29.50493
573.51        28.74423
573.95        30.02785
574.38        31.83754
574.82        31.13116
575.25        30.73079
575.69        29.76598
576.12        29.30648
576.56        29.23067
576.99        30.10132
577.42        31.23983
577.86        31.38803
578.29        30.98315
578.73        32.40289
579.16        29.78852
579.60        27.35542
580.03        28.64404
580.47        30.53421
580.90        30.91461
581.33        30.29695
581.77        30.07452
582.20        32.88726
582.64        32.17005
583.07        27.51999
583.51        26.88138
583.94        26.40421
584.37        27.54441
584.81        28.82122
585.24        30.26169
585.68        30.96791
586.11        30.10664
586.54        28.11603
586.98        27.19658
587.41        27.46856
587.85        28.62681
588.28        29.43287
588.71        28.24199
589.15        27.18508
589.58        27.90997
590.01        28.21941
590.45         28.7901
590.88        28.63564
591.31        28.25587
591.75        28.24266
592.18        28.42024
592.61        29.05921
593.05        29.65455
593.48        30.69212
593.91        30.86372
594.35        28.34105
594.78        27.94583
595.21        28.14289
595.65        29.49052
596.08        30.45917
596.51         29.3625
596.94         28.7921
597.38        29.33941
597.81          30.788
598.24        31.43935
598.68        31.10289
599.11        31.12997
599.54        32.31608
599.97        33.19133
600.41          31.521
600.84        31.92239
601.27        32.75149
601.70        32.61852
602.14         32.8698
602.57        32.76968
603.00        33.39471
603.43        34.75583
603.87        35.81386
604.30           35.96
604.73        35.10935
605.16        35.02238
605.60        36.00912
606.03        37.00047
606.46        37.76555
606.89        37.74206
607.32        37.13986
607.76        37.76926
608.19        38.96182
608.62        38.70221
609.05        38.29963
609.48        38.98002
609.92        39.40259
610.35        39.49012
610.78        40.91073
611.21        41.57489
611.64        40.09771
612.07        40.83189
612.50        41.31962
612.94        41.87199
613.37        41.86886
613.80        42.15223
614.23        42.75402
614.66        42.96704
615.09        43.40129
615.52        43.62801
615.96        43.73347
616.39        44.03504
616.82        43.81263
617.25        43.71148
617.68        44.60184
618.11         45.1515
618.54        45.51865
618.97        45.35555
619.40        44.93187
619.84        45.14268
620.27        45.92773
620.70        46.53374
621.13        46.82974
621.56        46.48367
621.99        46.15541
622.42        46.67058
622.85        47.84126
623.28        47.73085
623.71        47.35312
624.14        47.34762
624.57        47.33778
625.00        47.18393
625.43        47.21353
625.86         46.6982
626.29        46.72257
626.72        46.75872
627.15        46.58447
627.58        46.58385
628.01        46.56913
628.44        46.55322
628.87        46.54252
629.30         46.2595
629.73        46.31369
630.16        46.08873
630.59        45.76144
631.02        45.33549
631.45        44.85795
631.88        44.40857
632.31        44.00107
632.74         43.6062
633.17        43.22475
633.60        42.87204
634.03        42.54636
634.46        42.24656
634.89        41.94767
635.32        41.60666
635.75        41.21553
636.18        40.78692
636.61        40.34829
637.04        39.94231
637.47        39.57721
637.89        39.24253
638.32        38.91389
638.75        38.57733
639.18         38.2334
639.61        37.89972
640.04        37.58082
640.47        37.27598
640.90        36.98942
641.33        36.71759
641.76        36.46831
642.18        36.30996
642.61        36.24724
643.04        36.17762
643.47        36.05381
643.90        36.26719
644.33        36.05831
644.76        36.04652
645.18        36.01814
645.61         36.0056
646.04        36.00992
646.47        36.02392
646.90        36.09332
647.33        36.26549
647.75        36.55826
648.18        36.97218
648.61        37.39982
649.04        37.68803
649.47        37.79876
649.89         37.6703
650.32        37.53934
650.75        37.86815
651.18        38.66231
651.61        39.59867
652.03        40.39889
652.46        40.80056
652.89        41.02929
653.32        40.97231
653.74        40.88235
654.17        42.38868
654.60        43.39604
655.03         42.1827
655.46        43.25627
655.88        46.26322
656.31         48.9962
656.74        111.6117
657.16        72.32196
657.59        25.32818
658.02        19.53796
658.45        34.64716
658.87        44.85294
659.30        47.49967
659.73        47.26081
660.15        45.89376
660.58        47.89488
661.01        49.41165
661.44        48.18823
661.86        48.00709
662.29        48.32887
662.72        49.14554
663.14        50.28654
663.57        50.48147
664.00        49.90142
664.42         49.9332
664.85        50.64877
665.27        51.16705
665.70        51.32806
666.13        51.39159
666.55        51.34529
666.98        51.11761
667.41         50.8712
667.83        50.90405
668.26        51.27687
668.69        51.87563
669.11        52.47346
669.54        52.96009
669.96        52.76736
670.39         52.3986
670.82        51.94178
671.24        51.81242
671.67        52.11568
672.09         52.6785
672.52        53.23619
672.94        53.78716
673.37          53.385
673.80        53.28471
674.22         53.3131
674.65        53.36725
675.07        53.45745
675.50        53.56403
675.92        53.69201
676.35        53.87877
676.77        54.11905
677.20         54.3464
677.62        54.54434
678.05         54.6915
678.47          54.772
678.90        54.79938
679.32        54.81279
679.75        54.77573
680.17        54.92019
680.60        55.06263
681.02        55.20148
681.45        55.20944
681.87        55.08121
682.30        54.84686
682.72        54.63245
683.15        54.66916
683.57        55.00865
684.00        55.45449
684.42        56.06236
684.85        56.38062
685.27        56.40001
685.70        56.20552
686.12        55.93146
686.54        55.82568
686.97        55.93495
687.39        56.19297
687.82        56.48606
688.24         56.6695
688.66        56.68465
689.09        56.59635
689.51        56.48269
689.94        56.45682
690.36        56.56392
690.78        56.71685
691.21         56.8919
691.63        57.16763
692.06        57.47312
692.48        57.57792
692.90        57.53572
693.33        57.63214
693.75        57.88471
694.17        58.13369
694.60        58.33925
695.02        58.47842
695.44         58.5022
695.87        58.60719
696.29        58.80316
696.71        58.53638
697.14        58.03065
697.56        58.54192
697.98        59.79033
698.41        59.78759
698.83        59.12454
699.25        58.69288
699.68        58.76402
700.10        58.73943
700.52         58.6506
700.94        58.81959
701.37        59.18824
701.79        59.57633
702.21        59.90525
702.64        60.22704
703.06        60.47144
703.48        60.52209
703.90        60.37934
704.33        60.07145
704.75        59.71774
705.17         59.5923
705.59        59.76376
706.01        60.06821
706.44        60.35951
706.86        60.91188
707.28        60.85441
707.70        60.89054
708.12        60.84826
708.55         60.7973
708.97        60.76918
709.39        60.83509
709.81        60.98153
710.23        61.08517
710.66        61.13046
711.08        61.21512
711.50        61.30037
711.92        61.30782
712.34        61.23236
712.76         61.0807
713.19        60.94027
713.61        60.97859
714.03        61.21099
714.45        61.59288
714.87        61.96438
715.29        62.06895
715.71        61.86172
716.13        61.42813
716.56        60.95395
716.98         60.7668
717.40        60.94123
717.82         61.3769
718.24        61.90988
718.66        62.26025
719.08        62.33898
719.50        62.22627
719.92        62.01203
720.34        61.85674
720.76        61.81798
721.19        61.75023
721.61         61.8209
722.03        61.87257
722.45        61.94495
722.87        62.04356
723.29        62.18207
723.71        62.36587
724.13        62.58166
724.55        62.82153
724.97        63.03576
725.39         63.1044
725.81        63.00661
726.23         62.8657
726.65        62.79296
727.07         62.4903
727.49        62.75085
727.91        62.93723
728.33        63.19714
728.75        63.37709
729.17        63.43627
729.59        63.39501
730.01        63.31985
730.43        63.33113
730.85        63.45879
731.27        63.69185
731.69        63.92517
732.10        63.97265
732.52        63.80126
732.94        63.50999
733.36        63.27994
733.78        63.27331
734.20         63.5346
734.62        64.28331
735.04        65.25134
735.46        65.36145
735.88        64.79717
736.30        65.01249
736.72        66.02092
737.13        66.50242
737.55        66.22215
737.97        66.27385
738.39        66.61899
738.81        65.83773
739.23        64.41541
739.65        65.03478
740.06        67.24625
740.48        67.52094
740.90        65.92972
741.32        65.29128
741.74        65.81928
742.16        66.08577
742.57        66.11515
742.99         66.6553
743.41        67.54977
743.83        68.14528
744.25        68.33109
744.67        68.25998
745.08        68.08126
745.50        68.04839
745.92        68.24017
746.34         68.5525
746.75        68.88964
747.17        69.08769
747.59        69.13407
748.01        69.10211
748.42        69.08462
748.84        69.26427
749.26        69.68938
749.68        70.09824
750.09        70.46832
750.51        71.18232
750.93        72.00582
751.35        71.95596
751.76        71.18496
752.18        70.90986
752.60        71.14076
753.01        70.98114
753.43        70.52736
753.85        70.55209
754.27        71.11635
754.68        71.92004
755.10        72.74346
755.52        73.37403
755.93        73.69167
756.35        73.70535
756.77        73.57787
757.18        73.44097
757.60        73.35442
758.02        73.65789
758.43        74.08802
758.85        73.43584
759.26        72.11131
759.68        72.01217
760.10        73.05502
760.51        73.72362
760.93        73.61724
761.34         73.0103
761.76          72.214
762.18         71.6951
762.59        71.68546
763.01        72.17906
763.42        73.07385
763.84        73.71971
764.26        74.00607
764.67        74.12817
765.09        74.08426
765.50         73.9971
765.92        73.80239
766.33        72.77048
766.75         71.3323
767.16        71.11753
767.58        71.79205
768.00         73.2279
768.41        74.92731
768.83          76.062
769.24        76.10413
769.66        75.62025
770.07        74.02213
770.49        72.64959
770.90        71.61723
771.32        72.58847
771.73        74.87165
772.15        74.53504
772.56        71.97703
772.97        71.37257
773.39        72.68318
773.80        73.03309
774.22        72.27302
774.63         72.1632
775.05        72.66477
775.46        72.96928
775.88        72.97663
776.29        72.91896
776.70        72.85281
777.12        72.89421
777.53        73.07859
777.95         73.3035
778.36        73.46803
778.77        73.39558
779.19        73.09673
779.60        72.66925
780.02        72.27574
780.43        72.18249
780.84        72.53425
781.26        72.95699
781.67        73.39635
782.09        74.53683
782.50        75.82972
782.91        74.95997
783.33        72.58839
783.74        71.88651
784.15        72.80066
784.57        73.52885
784.98        73.70446
785.39         73.8153
785.81        73.78603
786.22        73.43244
786.63        73.03161
787.04        72.99774
787.46        73.42086
787.87        74.32357
788.28        75.36887
788.70        75.81112
789.11        75.51892
789.52        74.81725
789.93        74.00589
790.35        73.45023
790.76        73.27085
791.17        73.39534
791.58        73.72923
792.00        74.02221
792.41        74.17494
792.82        74.40002
793.23        74.72591
793.65        74.52974
794.06         74.0707
794.47        74.90961
794.88        76.42213
795.29        75.93174
795.71        73.68651
796.12        71.86442
796.53        71.01173
796.94        70.74825
797.35        71.16725
797.76        72.42052
798.18        73.92486
798.59        74.80202
799.00        74.70864
799.41        73.73832
799.82          72.409
800.23        71.68462
800.64        71.78825
801.06        72.36254
801.47         73.1771
801.88        73.73561
802.29        73.86466
802.70        73.75132
803.11        73.52744
803.52        73.38358
803.93        73.39452
804.34        73.44712
804.75        73.54733
805.17        73.75413
805.58        74.08286
805.99        74.41621
806.40        74.60736
806.81        74.68897
807.22        74.48587
807.63        73.43127
808.04        71.96679
808.45        71.32909
808.86        71.66736
809.27         72.4554
809.68        73.32956
810.09        73.80026
810.50        73.67085
810.91         73.1025
811.32        72.39214
811.73        72.02431
812.14        72.12788
812.55        72.51108
812.96        73.04932
813.37        73.51324
813.78        73.79366
814.19        74.01895
814.60        74.06608
815.01        73.73211
815.42        73.02776
815.83        71.96413
816.24        70.95756
816.65        70.74713
817.05        71.52573
817.46        73.05645
817.87        74.70844
818.28        75.34664
818.69        74.67841
819.10        72.99763
819.51        71.04673
819.92        70.08937
820.33        70.46679
820.74        71.80367
821.14        73.44373
821.55         74.2132
821.96        73.83277
822.37        72.69823
822.78        71.35123
823.19        70.58511
823.60        70.61976
824.00        71.24227
824.41        72.07958
824.82        72.61305
825.23        72.62734
825.64        72.31667
826.04        71.89967
826.45        71.67819
826.86        71.73017
827.27        71.92191
827.68        72.13879
828.08        72.23611
828.49        72.11018
828.90        71.88528
829.31        71.60565
829.72        71.33651
830.12        71.15372
830.53        71.01001
830.94        71.00935
831.35        71.28834
831.75        71.88764
832.16        72.70451
832.57        73.58035
832.97        74.15692
833.38        74.25325
833.79         73.9629
834.20        73.48286
834.60        73.12217
835.01        72.99276
835.42        73.00132
835.82        73.03576
836.23        72.82903
836.64        72.36751
837.04        71.78093
837.45        71.22227
837.86        70.92303
838.26        70.94951
838.67        71.18733
839.08        71.56268
839.48        71.93481
839.89        72.19709
840.29        72.38457
840.70        72.44976
841.11        72.31289
841.51        71.98801
841.92        71.48045
842.33        70.93169
842.73        70.59151
843.14        70.49512
843.54         70.6255
843.95        70.82795
844.35        70.89352
844.76        70.75301
845.17        70.49249
845.57        70.21638
845.98        70.09016
846.38        70.15278
846.79        70.31099
847.19        70.52985
847.60        70.67307
848.00        70.72716
848.41        70.71059
848.81        70.64203
849.22        70.46923
849.62        70.24723
850.03        69.99022
850.43        69.81272
850.84        69.85559
851.24        70.18714
851.65         70.6016
852.05        71.13403
852.46        71.66438
852.86        72.13482
853.27        72.60435
853.67         72.6925
854.07        71.93312
854.48        70.40056
854.88        68.28012
855.29        66.30206
855.69        65.52138
856.10        66.13544
856.50        68.02338
856.90        70.53815
857.31        72.14259
857.71        72.32518
858.12         71.4278
858.52        70.11375
858.92        69.27053
859.33        69.11098
859.73        69.39204
860.13        69.96714
860.54        70.53893
860.94        71.02647
861.34        71.50417
861.75        71.94586
862.15        72.38183
862.55        72.77413
862.96        73.07925
863.36         73.2777
863.76        73.33142
864.17        73.24767
864.57        73.10119
864.97          72.999
865.38        73.09068
865.78        73.44743
866.18        73.94926
866.58          74.501
866.99        74.92706
867.39         75.2107
867.79        75.42162
868.19        75.44397
868.60        75.06945
869.00         74.3076
869.40        73.23604
869.80        72.38702
870.21        72.56924
870.61        74.00793
871.01        76.46099
871.41        79.16238
871.81        80.78636
872.22        80.98124
872.62        80.10154
873.02        78.86469
873.42        78.63847
873.82        79.50198
874.22        80.62277
874.63         81.7057
875.03        82.16937
875.43        81.68555
875.83         81.5751
876.23          79.837
876.63        78.90374
877.03        78.56354
877.44        78.93964
877.84        105.9383
878.24        85.39351
878.64        86.12937
879.04        87.20608
879.44        82.35441
879.84        79.92377
880.24        85.09847
880.64        87.30812
881.04         87.6057
881.44        87.45766
881.84        86.56562
882.24         85.0369
882.65        83.73438
883.05        83.33855
883.45        83.96277
883.85         85.7412
884.25        87.99148
884.65        89.16573
885.05        88.82629
885.45        87.48282
885.85         85.9467
886.25        85.34187
886.65        85.90141
887.05        87.24866
887.45        88.88499
887.85        89.92693
888.25         90.0532
888.65         89.5627
889.04        88.76369
889.44        88.17153
889.84        87.92782
890.24        87.83169
890.64        87.79653
891.04        87.72002
891.44        87.55038
891.84        87.37688
892.24        87.15064
892.64        86.74383
893.04         86.2197
893.44        85.70313
893.83        85.35358
894.23        85.41235
894.63        85.89666
895.03        86.64652
895.43        87.68005
895.83        88.99483
896.23        90.44994
896.63        92.00555
897.02        93.10234
897.42        92.87103
897.82        91.26878
898.22        88.67365
898.62        86.03529
899.01        84.74142
899.41        85.08801
899.81        86.59483
900.21        88.61086
900.61        90.05902
901.00        90.56348
901.40        90.44118
901.80        89.90926
902.20        89.30065
902.59         88.7739
902.99        88.22015
903.39        87.67315
903.79        87.23255
904.18        86.96053
904.58         86.9399
904.98        87.23048
905.38        87.88513
905.77        88.80789
906.17        89.85027
906.57        90.81654
906.96        91.48736
907.36        91.73317
907.76        91.65157
908.15        91.18806
908.55        90.16431
908.95        88.70642
909.34        86.90225
909.74         85.2605
910.14        84.37865
910.53        84.41134
910.93        85.24713
911.33        86.55116
911.72        87.67706
912.12        88.27574
912.52        88.45181
912.91         88.3913
913.31        88.33722
913.70        88.39137
914.10        88.45286
914.49        88.33385
914.89         87.6683
915.29        86.49448
915.68        85.04404
916.08        83.94817
916.47        83.68112
916.87        84.24229
917.26        85.43752
917.66        86.71136
918.05          87.195
918.45        86.66623
918.84        85.46933
919.24        84.11871
919.64        83.33753
920.03        83.35454
920.42        83.91907
920.82        84.88367
921.21        86.14227
921.61         87.3558
922.00        88.50845
922.40        89.23308
922.79        89.08521
923.19        88.13123
923.58        86.37185
923.98        84.05261
924.37         82.4556
924.77        82.32749
925.16        79.81787
925.55        81.66911
925.95         82.6922
926.34        84.77148
926.74        87.42941
927.13        90.03184
927.52        91.21819
927.92        90.79536
928.31        89.18398
928.70        86.98264
929.10        85.26172
929.49        84.32381
929.89         83.9025
930.28        84.07185
930.67        84.94706
931.07        86.30554
931.46        88.19713
931.85        89.86942
932.24        90.17935
932.64        88.95272
933.03        86.34116
933.42        83.07251
933.82        80.82916
934.21         80.1358
934.60        80.59978
934.99        81.42719
935.39        81.84621
935.78        81.73866
936.17        80.77811
936.56        78.79049
936.96        80.20541
937.35        78.99303
937.74        79.82713
938.13        80.59884
938.53        81.46967
938.92        82.48782
939.31        83.79279
939.70        85.07401
940.09        85.31414
940.49        84.27869
940.88        82.42969
941.27        80.57478
941.66        79.66123
942.05        79.79098
942.44        80.63867
942.84         81.8844
943.23        83.02457
943.62        83.74187
944.01        84.17898
944.40         84.2549
944.79         83.8381
945.18         82.9207
945.57        81.42911
945.97        79.68138
946.36        78.52831
946.75        78.39427
947.14        79.02493
947.53        79.92178
947.92        80.54762
948.31        80.83685
948.70        80.94857
949.09        80.96733
949.48        81.05143
949.87         81.2346
950.26        81.37366
950.65        81.41544
951.04        81.32984
951.43        81.09581
951.82        80.75488
952.21        80.24725
952.60        79.48239
952.99        78.49718
953.38         77.3505
953.77        76.26221
954.16        75.52853
954.55        75.20789
954.94        75.27923
955.33        75.47855
955.72        75.34101
956.11        74.78654
956.50        73.94613
956.89        73.27611
957.28        73.59702
957.66        75.16025
958.05        77.44317
958.44        79.83587
958.83         81.4615
959.22        82.05723
959.61        81.79781
960.00        80.96987
960.39        80.04977
960.78        79.23971
961.16        78.50581
961.55        77.67416
961.94        76.49011
962.33        75.02015
962.72        73.47913
963.11        72.34477
963.49         72.2021
963.88        73.09222
964.27        74.90203
964.66        77.01134
965.04        78.06244
965.43        77.49504
965.82        75.80562
966.21        73.90657
966.60        72.99568
966.98        73.30791
967.37        74.43422
967.76        75.92242
968.15        76.87766
968.53        76.94177
968.92        76.36163
969.31        75.47654
969.69        74.68612
970.08        74.11696
970.47         73.6824
970.86        73.18283
971.24        72.31037
971.63        71.04234
972.02        69.51177
972.40        68.25029
972.79        68.15687
973.17        69.54247
973.56        72.06973
973.95        74.96075
974.33        76.68945
974.72        76.64848
975.11        75.25048
975.49        73.35647
975.88        72.17802
976.26        71.92229
976.65        72.32624
977.04        72.77095
977.42        71.89955
977.81        69.46367
978.19        66.20328
978.58        63.71434
978.96        63.50815
979.35         65.7857
979.74        70.24237
980.12        76.04862
980.51        80.09164
980.89        81.23207
981.28        80.13806
981.66        78.01115
982.05        76.46692
982.43        75.86915
982.82        75.67316
983.20        75.88008
983.59          76.578
983.97        77.78067
984.35          79.637
984.74         81.4648
985.12        81.94328
985.51        80.31368
985.89        76.77166
986.28        72.45913
986.66        69.19574
987.04         67.7814
987.43        67.83001
987.81        68.33932
988.20        67.94935
988.58        66.21009
988.96        62.89263
989.35        58.69894
989.73        57.38135
990.12        61.35013
990.50          68.667
990.88        74.97212
991.27         77.1937
991.65        75.88114
992.03        72.00112
992.42        67.30823
992.80        64.85181
993.18        65.68312
993.56        68.16309
993.95        70.95267
994.33        73.08874
994.71        74.16881
995.10        74.84604
995.48        74.87206
995.86        73.56838
996.24        70.84785
996.63        66.54201
997.01        61.66193
997.39        59.52304
997.77        61.57103
998.15        67.02576
998.54        73.06062
998.92         75.8876
999.30        74.32005
999.68         69.4104
1000.06        62.46429
1000.45        56.83783
1000.83        54.12381
1001.21        53.35014
1001.59        54.11154
1001.97        56.08127
1002.35        58.99979
1002.73        63.48611
1003.12        68.31006
1003.50          69.192
1003.88        64.46335
1004.26        56.44922
1004.64        48.65891
1005.02        43.78441
1005.40        41.78343
1005.78        41.74794
1006.16         45.2755
1006.54        53.93509
1006.92        63.61007
1007.30        71.00502
1007.69        74.95182
1008.07         76.1212
1008.45        75.06043
1008.83        70.16651
1009.21        56.42237
1009.59        23.03082
1009.97        -39.8141
1010.35       -88.14934
1010.73       -42.11985
1011.11        3.830687
1011.49        26.66405
1011.86        41.04295
1012.24        48.23365
1012.62        50.67813
1013.00        50.19948
1013.38        46.67819
1013.76         41.3071
1014.14        39.67343
1014.52        46.63999
1014.90        64.24683
1015.28        86.76851
1015.66        95.71893
1016.04         81.0296
1016.41        47.99361
1016.79        16.90034
1017.17        6.754809
1017.55        12.76443
1017.93         23.5661
1018.31        33.39916
1018.69         39.6799
1019.06        43.07473
1019.44        44.29249
1019.82        44.66381
1020.20        47.47009
1020.58        56.64772
1020.95        78.65854
1021.33        113.7464
1021.71        1.388001
1022.09        123.3533
1022.46        140.8828
1022.84        152.9668
1023.22        167.5056
1023.60        199.7656
1023.97        506.7032
1024.35        -10.1707
1024.73        49.83318
