SpectraSmart Spectrum 2.9.0.0
--------- Device Information -----------
Spectrum Name :  反射率_0
Saving Time :  2024/04/26 00:40:29
Spectro-Module Model Name : SE2030-DUVN
Spectro-Module Serial Number : OS361AC55029948
Wavelength Start : 200
Wavelength End : 1025
Wavelength Unit : Wavelength(nm)
Spectrum Unit : Reflectance(%)
-----------Spectrum Setting ------------
Integration Time : 20ms
Average : 10
Boxcar : 0
Background removal :  enabled
linearity correction :  enabled
SC :  disabled
Intensity correction :  disabled
DWT denoise :  enabled
savitzky-golay :  disabled
FFT :  disabled
Running average :  disabled
Kalman :  disabled
High pass :  disabled
---------------BEGIN--------------------
Wavelength(nm)             Reflectance(%)
200.29               0
200.75        84.83697
201.21        79.62611
201.67        73.55388
202.13        69.32244
202.58        67.29443
203.04        66.98817
203.50        67.99822
203.96        69.60391
204.42        71.15259
204.88        72.56567
205.34        73.65141
205.80        74.27241
206.26        74.51441
206.72        74.42796
207.18        72.79585
207.64        67.04842
208.10        60.17765
208.55        56.68136
209.01        56.49566
209.47        58.41716
209.93        61.78812
210.39        67.19917
210.85        72.48567
211.31        72.52819
211.77        66.08372
212.23        54.92666
212.69        44.34556
213.14        42.64149
213.60        50.99308
214.06        67.04568
214.52        84.52067
214.98        93.68549
215.44        92.30469
215.90        83.67643
216.36        72.59483
216.81        65.79066
217.27        64.92439
217.73         67.5386
218.19        70.30147
218.65        68.87614
219.11          61.729
219.57         48.3965
220.02        30.87753
220.48        20.29541
220.94        23.31689
221.40        37.02422
221.86        50.94106
222.32        54.16162
222.77        47.69514
223.23        37.19975
223.69        28.51911
224.15        27.59717
224.61        33.77436
225.06        43.99144
225.52        54.07977
225.98        58.63534
226.44        56.72869
226.90         50.7651
227.36        43.70437
227.81        39.51491
228.27        39.42523
228.73        41.86395
229.19        45.49538
229.65        48.37521
230.10        49.85268
230.56        50.62733
231.02        51.11088
231.48        51.70975
231.93        52.50025
232.39        53.30433
232.85        53.92189
233.31        54.17262
233.77         54.0022
234.22        53.46545
234.68        52.79121
235.14        52.35981
235.60        52.31775
236.05        52.62898
236.51        52.95186
236.97        52.71157
237.43        51.76846
237.88        50.20691
238.34        48.45297
238.80        47.98096
239.26        49.50739
239.71        52.83707
240.17        56.72299
240.63        59.34385
241.08        60.17067
241.54        59.61765
242.00        58.50665
242.46        57.98013
242.91        58.70004
243.37        60.99019
243.83        69.49139
244.28        103.1918
244.74        152.0006
245.20        138.8424
245.66        119.9442
246.11        113.8389
246.57        115.2916
247.03        125.2322
247.48        150.1451
247.94        115.3304
248.40        83.15346
248.85        75.88069
249.31        75.19519
249.77        77.34973
250.22        81.75632
250.68        89.18709
251.14        99.35224
251.59        105.0347
252.05        99.64747
252.51         87.0735
252.96        73.61614
253.42        64.82756
253.88        60.28741
254.33        58.18477
254.79        59.38831
255.25        64.35076
255.70        71.48259
256.16        79.53587
256.62        85.42375
257.07        86.14034
257.53        82.75014
257.99        76.57968
258.44        70.21569
258.90        67.51664
259.35        67.60028
259.81         68.9381
260.27        69.29663
260.72        66.55389
261.18        61.55865
261.63        55.37225
262.09         49.8031
262.55        46.25093
263.00        44.63396
263.46        44.26543
263.91        44.13873
264.37         43.4753
264.83        42.08728
265.28         40.1842
265.74        38.32172
266.19        37.07183
266.65        36.63974
267.11        36.67221
267.56        36.69706
268.02        36.16042
268.47        34.95673
268.93        33.29813
269.38        31.49109
269.84        30.28201
270.30         29.8695
270.75        30.04465
271.21        30.41578
271.66        30.39763
272.12         29.8329
272.57        28.91017
273.03         27.9322
273.48        27.26858
273.94        27.03408
274.39        27.05469
274.85        27.12938
275.31         26.9643
275.76        26.48894
276.22        25.83917
276.67        25.16099
277.13        24.74719
277.58        24.59696
278.04        24.62933
278.49        24.64596
278.95        24.43157
279.40         23.9246
279.86        23.26527
280.31        22.55604
280.77        22.05318
281.22        21.77352
281.68        21.66403
282.13        21.62643
282.59        21.55484
283.04        21.41165
283.50        21.25702
283.95        21.09431
284.41        20.94577
284.86         20.8049
285.32        20.65533
285.77        20.51673
286.22        20.48257
286.68        20.53769
287.13          20.643
287.59        20.67792
288.04         20.4559
288.50        19.98546
288.95        19.32808
289.41        18.67005
289.86        18.19003
290.32        17.98177
290.77        17.97229
291.22        18.10763
291.68        18.26647
292.13        18.41396
292.59        18.57815
293.04        18.79253
293.50         19.1117
293.95        19.52642
294.40        19.98207
294.86        20.40582
295.31        20.70354
295.77        20.86426
296.22         20.9304
296.68        20.95809
297.13         21.0089
297.58        21.12903
298.04        21.31688
298.49        21.59437
298.95        22.02574
299.40          22.596
299.85        23.27593
300.31        23.97198
300.76        24.54887
301.21        24.95271
301.67        25.23501
302.12        25.41027
302.58        25.55418
303.03        25.67826
303.48        25.77403
303.94        25.90451
304.39        26.13315
304.84         26.4707
305.30        26.89499
305.75        27.29271
306.20        27.49462
306.66        27.49218
307.11        27.33082
307.57        27.14507
308.02        27.06943
308.47        27.16245
308.93        27.37176
309.38        27.64025
309.83        27.90739
310.29        28.13011
310.74        28.31457
311.19        28.43979
311.65         28.4728
312.10        28.41202
312.55        28.27024
313.00        28.06038
313.46        27.81796
313.91        27.55944
314.36        27.30129
314.82        27.10211
315.27        27.03275
315.72        27.10407
316.18        27.28868
316.63        27.50877
317.08        27.61287
317.53        27.55748
317.99         27.3713
318.44        27.13649
318.89         26.9903
319.35        26.95921
319.80        27.00679
320.25        27.04271
320.70        26.92188
321.16        26.61723
321.61         26.1839
322.06        25.72312
322.51        25.38323
322.97        25.18986
323.42        25.10467
323.87        25.04636
324.32        24.88174
324.78        24.57758
325.23        24.18788
325.68        23.77529
326.13        23.44113
326.59        23.21305
327.04        23.07426
327.49        22.99576
327.94        22.93348
328.39        22.86856
328.85        22.80468
329.30        22.76506
329.75        22.75416
330.20        22.76955
330.66         22.7825
331.11        22.79061
331.56        22.74951
332.01        22.64659
332.46        22.48542
332.92        22.28583
333.37        22.10782
333.82        21.97071
334.27        21.88315
334.72        21.81676
335.17        21.71948
335.63        21.57857
336.08        21.40306
336.53        21.26605
336.98         21.2885
337.43        21.48096
337.88        21.80597
338.34        22.09249
338.79        22.10831
339.24        21.78303
339.69        21.18517
340.14        20.53736
340.59        20.22839
341.05        20.34756
341.50        20.78135
341.95        21.29578
342.40        21.54293
342.85        21.44374
343.30        21.11204
343.75        20.68965
344.20        20.42514
344.66         20.3913
345.11        20.46462
345.56        20.58007
346.01        20.64225
346.46        20.61224
346.91        20.55099
347.36        20.39981
347.81        20.05338
348.26        19.53444
348.72        18.91227
349.17        18.34689
349.62        18.18386
350.07        18.48627
350.52        19.13093
350.97        19.90157
351.42        20.46306
351.87        20.71543
352.32        20.74699
352.77         20.6229
353.22        20.45819
353.67        20.30208
354.13          20.117
354.58        19.92438
355.03        19.79984
355.48        19.75518
355.93        19.79666
356.38        19.85079
356.83        19.78354
357.28        19.57086
357.73        19.24964
358.18        18.92069
358.63        18.74531
359.08        18.75608
359.53        18.90194
359.98        19.07295
360.43        19.09858
360.88        18.94205
361.33         18.6577
361.78        18.34991
362.23        18.18757
362.68        18.20621
363.13        18.33856
363.58        18.49081
364.03        18.52047
364.48        18.39205
364.93        18.16326
365.38        17.88237
365.83        17.62212
366.28         17.4168
366.73        17.24412
367.18        17.12479
367.63        17.09592
368.08        17.14977
368.53        17.26814
368.98        17.39429
369.43        17.43426
369.88        17.36934
370.33         17.2347
370.78        17.05533
371.23        16.87949
371.68        16.73375
372.13        16.59872
372.58        16.52619
373.03        16.60062
373.48        16.81913
373.93        17.14835
374.38        17.46212
374.83        17.56569
375.28         17.4232
375.72        17.08347
376.17        16.68954
376.62        16.43804
377.07        16.38873
377.52        16.47898
377.97        16.63815
378.42        16.75033
378.87        16.77302
379.32        16.74497
379.77        16.68082
380.22        16.59536
380.67         16.4996
381.11        16.38825
381.56        16.26477
382.01        16.14993
382.46        16.05124
382.91        15.96436
383.36        15.90175
383.81        15.87748
384.26        15.88791
384.71        15.92892
385.15        15.95147
385.60        15.89375
386.05        15.74011
386.50        15.50128
386.95        15.24599
387.40        15.09752
387.85        15.08651
388.29        15.17503
388.74        15.27534
389.19        15.25212
389.64        15.08765
390.09        14.81696
390.54        14.54548
390.98        14.44913
391.43        14.57132
391.88        14.83937
392.33        15.11349
392.78        15.19063
393.23        15.04356
393.67        14.74255
394.12        14.43457
394.57        14.27029
395.02        14.28269
395.47         14.4178
395.91        14.60353
396.36        14.69292
396.81        14.64422
397.26        14.49356
397.71        14.30792
398.15         14.1698
398.60        14.11979
399.05        14.13102
399.50        14.13869
399.95        14.01311
400.39        13.80263
400.84        13.49703
401.29        13.20811
401.74         13.1105
402.18        13.25559
402.63        13.56732
403.08        13.92336
403.53        14.12696
403.97        14.12444
404.42        13.97252
404.87        13.74758
405.32        13.58511
405.76        13.52843
406.21        13.53582
406.66        13.57043
407.11        13.58579
407.55        13.57095
408.00        13.54264
408.45        13.50487
408.90        13.45336
409.34        13.39175
409.79        13.31787
410.24        13.25392
410.68        13.23223
411.13        13.25959
411.58        13.33276
412.03        13.41561
412.47        13.44582
412.92        13.39981
413.37        13.29417
413.81        13.18561
414.26        13.17758
414.71        13.27648
415.15        13.44978
415.60        13.60545
416.05         13.6145
416.49         13.4502
416.94        13.17316
417.39          12.856
417.83        12.62469
418.28        12.52984
418.73        12.52057
419.17        12.58681
419.62        12.70285
420.07        12.84696
420.51        13.02651
420.96        13.16578
421.41        13.13277
421.85        12.91066
422.30        12.56626
422.74        12.21182
423.19         12.0348
423.64        12.05704
424.08         12.2343
424.53        12.47069
424.98        12.61777
425.42          12.628
425.87        12.53703
426.31        12.39603
426.76        12.32485
427.21        12.32923
427.65        12.28618
428.10         12.2304
428.54        12.29414
428.99        12.47738
429.44        12.72727
429.88         12.9244
430.33        12.91565
430.77          12.684
431.22        12.27857
431.66        11.86563
432.11         11.7475
432.56        11.94782
433.00        12.31597
433.45        12.67869
433.89        12.89289
434.34        12.85655
434.78        12.50723
435.23         12.0754
435.67        11.99143
436.12         12.2229
436.57        12.33162
437.01        12.25355
437.46        12.18862
437.90        12.15132
438.35        12.08927
438.79        12.00937
439.24        11.95693
439.68        11.94371
440.13        11.90235
440.57        11.85761
441.02        12.00876
441.46        12.25901
441.91        12.17749
442.35        11.81628
442.80        11.61476
443.24        11.55345
443.69         11.4657
444.13        11.33152
444.58        11.12983
445.02        10.91837
445.47        10.92587
445.91        11.08877
446.36        11.10387
446.80        10.94372
447.24        10.77356
447.69        10.64429
448.13        10.56001
448.58        10.54082
449.02        10.57873
449.47        10.63797
449.91        10.65975
450.36         10.6321
450.80        10.56957
451.25        10.50725
451.69        10.49005
452.13        10.52897
452.58        10.59299
453.02        10.66159
453.47        10.69704
453.91        10.69348
454.36        10.67175
454.80        10.62575
455.24        10.54633
455.69        10.44849
456.13        10.33049
456.58        10.25506
457.02        10.29823
457.46        10.46983
457.91         10.7361
458.35        11.01153
458.79        11.15054
459.24        11.13026
459.68        10.98207
460.13        10.80453
460.57        10.71811
461.01        10.76652
461.46         10.9039
461.90        11.06679
462.34        11.14244
462.79        11.10389
463.23        10.98254
463.68         10.8538
464.12        10.83941
464.56        10.96826
465.01        11.19708
465.45        11.41647
465.89        11.50958
466.34        11.46541
466.78        11.26505
467.22        11.02404
467.67        11.03818
468.11        11.28505
468.55        11.41573
468.99        11.39369
469.44        11.39222
469.88        11.44713
470.32        11.59902
470.77        11.78956
471.21        11.83884
471.65        11.72525
472.10        11.57767
472.54        11.45452
472.98        11.41768
473.42        11.49006
473.87        11.65578
474.31        11.85025
474.75        11.96343
475.20         11.9748
475.64        11.91205
476.08        11.83547
476.52        11.83816
476.97        11.94132
477.41        12.11676
477.85        12.30634
478.29        12.44106
478.74        12.50106
479.18        12.44463
479.62         12.3268
480.06        12.44193
480.50        12.54802
480.95        12.66242
481.39        12.66651
481.83        12.64141
482.27        12.58759
482.72        12.41485
483.16        12.20579
483.60        12.26725
484.04         12.6192
484.48        12.85069
484.93        13.10063
485.37        13.56458
485.81        14.09088
486.25        14.18858
486.69        18.54428
487.14        14.59093
487.58        9.772002
488.02        12.14639
488.46        13.42181
488.90        13.51417
489.34           13.75
489.79        13.67661
490.23        14.22762
490.67         14.6652
491.11        14.78518
491.55        14.74799
491.99        14.52796
492.43        14.34653
492.88        14.27359
493.32        14.27201
493.76        14.27094
494.20        14.44709
494.64        14.76118
495.08        15.16017
495.52        15.57918
495.96        15.93677
496.41        16.16282
496.85        16.26138
497.29        16.26057
497.73        16.05058
498.17          15.842
498.61        16.01593
499.05        16.56924
499.49        16.71811
499.93        16.85556
500.37        17.01111
500.82        17.12737
501.26        17.35839
501.70        17.61381
502.14        17.75081
502.58        17.75992
503.02        17.79943
503.46        17.87823
503.90        17.89734
504.34        17.87218
504.78        17.87305
505.22        17.90925
505.66         17.9712
506.10        18.03342
506.54        18.04955
506.98        18.01631
507.42        17.95591
507.86        17.92032
508.30         17.9883
508.74        18.16991
509.18        18.42959
509.62        18.71315
510.06        18.93115
510.50        19.05523
510.94        19.11638
511.38        19.12554
511.82        19.10239
512.26        19.06287
512.70        18.99511
513.14        18.94438
513.58        18.98706
514.02        19.12334
514.46        19.32797
514.90         19.5201
515.34        19.53196
515.78        19.30852
516.22        19.06206
516.66        18.89408
517.10        18.50886
517.54         17.9384
517.98        18.80695
518.42        18.66846
518.86        19.05101
519.30        19.20316
519.74        19.36993
520.18        19.50352
520.62        19.49592
521.06        19.36848
521.50        19.12973
521.93        18.86363
522.37        18.72136
522.81        18.73661
523.25        18.86712
523.69        19.04553
524.13        19.16333
524.57        19.18786
525.01        19.15161
525.45        19.07861
525.89        19.00832
526.32        18.95433
526.76        18.90101
527.20        18.84616
527.64        18.79765
528.08        18.75776
528.52        18.71023
528.96        18.64492
529.40        18.59374
529.83        18.56665
530.27         18.3692
530.71        18.36347
531.15         18.2541
531.59        18.15519
532.03        18.05738
532.46        17.99715
532.90        18.03471
533.34        18.16287
533.78        18.35187
534.22        18.53206
534.66        18.60202
535.09        18.53661
535.53        18.37716
535.97        18.16519
536.41        17.97236
536.85        17.83144
537.28        17.73145
537.72        17.68037
538.16        17.68845
538.60         17.7528
539.04        17.85633
539.47        17.98369
539.91          18.155
540.35        18.34007
540.79        18.46222
541.22        18.52202
541.66        18.59766
542.10        18.69262
542.54        18.75533
542.97        18.80132
543.41        18.88961
543.85        19.02406
544.29        19.20192
544.72        19.38011
545.16         19.4959
545.60        19.53944
546.04        19.52793
546.47        19.53378
546.91        19.68132
547.35        19.97934
547.79        20.38638
548.22        20.79389
548.66        21.01408
549.10        21.02227
549.53        20.90998
549.97         20.7815
550.41        20.74298
550.84        20.83627
551.28        21.04072
551.72        21.32195
552.15         21.6118
552.59        21.87288
553.03        22.11685
553.46        22.32634
553.90        22.49368
554.34         22.6247
554.77        22.69475
555.21         22.7129
555.65        22.76551
556.08        22.87537
556.52        22.74697
556.96        22.92081
557.39        22.97853
557.83        23.08475
558.27        23.21361
558.70        23.36153
559.14        23.50542
559.57        23.62535
560.01        23.73606
560.45         23.8127
560.88        23.81403
561.32         23.7609
561.75        23.66621
562.19        23.58862
562.63        23.56512
563.06        23.61481
563.50        23.76606
563.93        23.97923
564.37        24.16319
564.80        24.28887
565.24        24.40264
565.68         24.4976
566.11        24.55477
566.55        24.59764
566.98        24.62587
567.42        24.67784
567.85        24.80886
568.29        25.04162
568.72        25.28085
569.16        25.52891
569.60        25.89381
570.03        26.25607
570.47        26.31575
570.90        26.17044
571.34        25.94782
571.77        26.25212
572.21        26.33105
572.64        26.30709
573.08        26.07382
573.51        25.37548
573.95        26.58298
574.38        28.25134
574.82        27.74376
575.25        27.32749
575.69        26.49051
576.12        25.92712
576.56        25.84612
576.99        26.74029
577.42        28.00037
577.86        27.92653
578.29         27.5722
578.73         28.8939
579.16        26.59978
579.60         24.4776
580.03        25.58822
580.47        27.07636
580.90        27.80899
581.33        27.19286
581.77         26.8004
582.20        29.18254
582.64        28.88725
583.07        24.75767
583.51        24.16154
583.94        23.42375
584.37        24.42324
584.81        25.64063
585.24        26.89448
585.68        27.29797
586.11        26.70683
586.54        24.78587
586.98        24.14972
587.41        24.38772
587.85        25.39723
588.28         26.1169
588.71        25.00827
589.15        24.01287
589.58        24.49774
590.01        24.68518
590.45        25.07456
590.88        25.34264
591.31        25.08403
591.75        24.96775
592.18        25.03289
592.61        25.56594
593.05        26.01748
593.48        27.10391
593.91        27.12453
594.35        24.90748
594.78        24.58278
595.21        24.87314
595.65         26.0592
596.08         26.7976
596.51        25.82399
596.94        25.42093
597.38        25.92129
597.81        27.11036
598.24         27.7163
598.68        27.62041
599.11        27.35931
599.54        28.69166
599.97        29.56681
600.41        28.09578
600.84        28.50531
601.27        29.28706
601.70        29.18827
602.14        29.40454
602.57        29.33936
603.00        30.00412
603.43         31.1744
603.87        32.27404
604.30        32.54911
604.73        32.15137
605.16        31.74724
605.60        32.66453
606.03        33.61357
606.46        34.65588
606.89        34.56538
607.32         34.1717
607.76        34.55051
608.19        35.81584
608.62        35.59322
609.05        35.29133
609.48        35.89177
609.92        35.92724
610.35        36.76382
610.78         37.9722
611.21        38.60454
611.64         37.4258
612.07        38.10556
612.50        38.57032
612.94         39.1246
613.37        39.22077
613.80        39.64148
614.23        40.36856
614.66        40.58831
615.09        40.88296
615.52        41.07724
615.96        41.28087
616.39        41.55906
616.82        41.21232
617.25        41.44491
617.68         42.2022
618.11        42.81076
618.54        43.14593
618.97        42.98946
619.40        42.64204
619.84        42.78239
620.27        43.67804
620.70        44.44355
621.13        44.99157
621.56        44.57072
621.99         44.2373
622.42        44.68591
622.85        45.85741
623.28        45.85073
623.71         45.6273
624.14        45.28229
624.57        45.24517
625.00        44.84634
625.43        45.07467
625.86        44.70104
626.29        44.84359
626.72        44.95314
627.15        44.77887
627.58        44.72479
628.01        44.65247
628.44        44.56647
628.87         44.4697
629.30        44.44172
629.73         44.4182
630.16        44.20922
630.59        43.79965
631.02        43.28624
631.45        42.73758
631.88        42.23008
632.31        41.79161
632.74        41.39978
633.17        41.03549
633.60        40.66714
634.03        40.28116
634.46        39.89118
634.89        39.48503
635.32        39.03917
635.75        38.55591
636.18        38.04662
636.61        37.53551
637.04        37.05973
637.47        36.62625
637.89        36.22451
638.32        35.84464
638.75        35.49327
639.18        35.17046
639.61        34.88276
640.04         34.6021
640.47        34.27843
640.90        33.90615
641.33        33.49709
641.76        33.09377
642.18        32.81826
642.61        32.69394
643.04        32.61417
643.47        32.51242
643.90        32.70042
644.33        32.48183
644.76        32.42847
645.18        32.36276
645.61        32.34006
646.04        32.36371
646.47        32.41058
646.90        32.51017
647.33        32.68585
647.75        32.95148
648.18        33.33084
648.61        33.71881
649.04        33.95463
649.47        34.02135
649.89        33.87021
650.32        33.74931
650.75        34.18159
651.18        35.12981
651.61        36.10267
652.03        36.82681
652.46        37.21693
652.89        37.51166
653.32        37.55464
653.74        37.54123
654.17        39.24496
654.60        39.89472
655.03        39.12647
655.46        39.95634
655.88        43.04836
656.31          46.432
656.74        105.0953
657.16        68.34142
657.59         24.1328
658.02        18.46244
658.45        32.38408
658.87        42.13152
659.30        44.66779
659.73        43.99013
660.15        42.87089
660.58         45.1641
661.01        46.86963
661.44        45.72612
661.86        45.44685
662.29        45.61796
662.72        46.49868
663.14        47.90471
663.57         48.2088
664.00        47.56033
664.42        47.61448
664.85        48.44318
665.27        49.01363
665.70         49.1767
666.13        49.28272
666.55        49.32686
666.98        49.21688
667.41        49.08903
667.83        49.19769
668.26        49.59243
668.69          50.173
669.11        50.75734
669.54        51.27905
669.96        51.19263
670.39        51.02007
670.82        50.78197
671.24        50.65778
671.67        50.78985
672.09        51.31373
672.52        51.97187
672.94        52.52546
673.37        52.05265
673.80        51.92957
674.22        51.98497
674.65        52.04107
675.07         52.1061
675.50         52.1859
675.92        52.30415
676.35        52.52187
676.77        52.83134
677.20        53.16631
677.62         53.4884
678.05        53.69095
678.47        53.73632
678.90        53.85975
679.32        53.75864
679.75        53.70275
680.17        53.82383
680.60        53.94063
681.02         54.0681
681.45         54.1083
681.87        54.05866
682.30        53.95744
682.72        53.87858
683.15        53.92551
683.57         54.1545
684.00        54.48661
684.42        55.02795
684.85        55.31534
685.27        55.35658
685.70        55.26334
686.12        55.12186
686.54         55.0802
686.97        55.16937
687.39        55.35842
687.82        55.56401
688.24        55.69074
688.66        55.69465
689.09          55.618
689.51        55.53543
689.94         55.5421
690.36        55.67245
690.78        55.89339
691.21        56.14704
691.63        56.34622
692.06        56.46634
692.48         56.5345
692.90        56.60436
693.33        56.74844
693.75        56.98479
694.17        57.29306
694.60        57.60656
695.02        57.81464
695.44        57.86333
695.87        57.89343
696.29         57.9777
696.71        57.85812
697.14        57.68173
697.56        58.24166
697.98        59.28164
698.41        59.22941
698.83        58.68383
699.25        58.30099
699.68        58.34919
700.10        58.34192
700.52        58.31403
700.94          58.551
701.37        58.99263
701.79        59.45706
702.21        59.85596
702.64        60.23931
703.06        60.52114
703.48        60.55701
703.90        60.34966
704.33        59.95029
704.75        59.49561
705.17        59.28487
705.59        59.40104
706.01        59.67351
706.44        59.98697
706.86        60.65709
707.28        60.80776
707.70        61.11905
708.12        61.33872
708.55        61.40352
708.97        61.33223
709.39        61.26757
709.81        61.25303
710.23        61.23416
710.66        61.23226
711.08        61.34145
711.50        61.49948
711.92        61.57575
712.34        61.54921
712.76        61.44664
713.19         61.3553
713.61        61.43772
714.03         61.7081
714.45        62.11439
714.87        62.50161
715.29         62.6278
715.71        62.44945
716.13        62.04697
716.56        61.59745
716.98        61.41433
717.40        61.56939
717.82        61.97025
718.24        62.46114
718.66        62.77332
719.08        62.82803
719.50        62.71083
719.92         62.5148
720.34        62.40485
720.76        62.43665
721.19        62.45337
721.61        62.63045
722.03        62.81843
722.45        63.04942
722.87        63.32124
723.29        63.59807
723.71        63.80833
724.13        63.92703
724.55        63.97031
724.97        63.95638
725.39        63.91038
725.81        63.84977
726.23        63.83474
726.65        63.77827
727.07         63.7905
727.49        63.85033
727.91        63.96745
728.33        64.12042
728.75        64.27179
729.17        64.40506
729.59        64.49731
730.01        64.55326
730.43        64.70238
730.85        64.97623
731.27        65.14634
731.69        65.05572
732.10        65.66127
732.52        64.99526
732.94        64.71484
733.36        64.42306
733.78         64.4035
734.20        64.70278
734.62        65.42363
735.04        66.27541
735.46        66.72726
735.88        65.92432
736.30        66.21358
736.72         67.2693
737.13        67.70245
737.55        67.29177
737.97        67.19154
738.39         67.4466
738.81        66.81435
739.23        65.72235
739.65        66.51903
740.06        68.72863
740.48        69.06397
740.90        67.59187
741.32         66.9726
741.74         67.4398
742.16          67.673
742.57        67.71336
742.99        68.29336
743.41        69.22099
743.83        69.76608
744.25        69.81203
744.67        69.56416
745.08        69.22952
745.50        69.12244
745.92         69.3455
746.34        69.79461
746.75        70.30241
747.17        70.58171
747.59        70.58762
748.01        70.41461
748.42        70.25426
748.84        70.43391
749.26        71.02662
749.68        71.77836
750.09        72.51001
750.51         73.2152
750.93        73.66705
751.35        73.29067
751.76        72.36782
752.18        71.96254
752.60        72.09552
753.01        72.39545
753.43        72.09394
753.85        72.34248
754.27        72.91655
754.68        73.61329
755.10        74.25467
755.52        74.71115
755.93        74.91165
756.35        74.82964
756.77        74.65158
757.18        74.58466
757.60        74.70515
758.02        75.22442
758.43        75.77229
758.85        75.43742
759.26        74.32671
759.68        73.76669
760.10         74.7959
760.51        75.75158
760.93        74.95541
761.34        74.36901
761.76        73.72721
762.18        73.28519
762.59        73.00522
763.01          73.382
763.42        74.31293
763.84        75.00938
764.26        75.33765
764.67        75.63537
765.09        75.79805
765.50        75.50021
765.92        74.81018
766.33        73.71044
766.75        72.64078
767.16         72.4305
767.58        73.16644
768.00        74.66061
768.41        76.51582
768.83        77.54696
769.24        77.36957
769.66        76.67812
770.07        75.84312
770.49        74.35976
770.90        72.77869
771.32        73.67161
771.73        76.35313
772.15        76.17297
772.56        73.50204
772.97        72.95123
773.39         74.4698
773.80        74.94248
774.22        74.19302
774.63        74.06609
775.05        74.54282
775.46        74.83787
775.88        74.85954
776.29        74.82235
776.70        74.76865
777.12        74.79739
777.53        74.94342
777.95        75.11928
778.36        75.22495
778.77        75.09454
779.19        74.74767
779.60        74.24303
780.02        73.78298
780.43        73.76839
780.84        74.31186
781.26        74.85332
781.67        75.30086
782.09        76.41806
782.50        77.64629
782.91        76.61501
783.33        74.05969
783.74        73.18323
784.15        74.17372
784.57        74.99429
784.98        75.28268
785.39        75.46732
785.81        75.43652
786.22        74.93095
786.63        74.31494
787.04          74.276
787.46        74.88926
787.87        75.91964
788.28        77.00508
788.70        77.53456
789.11        77.31299
789.52         76.6761
789.93        75.90231
790.35        75.23679
790.76        74.87315
791.17        75.07323
791.58        75.67728
792.00        75.99715
792.41        75.90028
792.82        75.86906
793.23        76.01423
793.65        75.68561
794.06        75.19057
794.47        76.18746
794.88        77.98007
795.29        77.65183
795.71        75.41772
796.12        73.61588
796.53        72.78786
796.94        72.41132
797.35        72.61664
797.76        73.75285
798.18         75.2702
798.59        76.16383
799.00        76.09312
799.41        75.26005
799.82        74.11387
800.23        73.45607
800.64        73.48418
801.06         73.8689
801.47        74.47816
801.88        74.99018
802.29         75.2676
802.70        75.44099
803.11        75.50024
803.52        75.40364
803.93        75.18493
804.34        74.81665
804.75        74.45618
805.17        74.45893
805.58        74.92321
805.99        75.48657
806.40        75.93154
806.81        76.54539
807.22        76.90816
807.63        75.65028
808.04        73.40353
808.45        72.42313
808.86        72.94936
809.27        73.90918
809.68        74.87934
810.09         75.5186
810.50         75.5871
810.91        75.19912
811.32        74.62263
811.73         74.2514
812.14        74.19255
812.55        74.40261
812.96        74.76431
813.37        74.75854
813.78         74.4573
814.19        74.70108
814.60        75.24991
815.01         75.0994
815.42        74.20324
815.83        73.01229
816.24        71.97964
816.65        71.70469
817.05        72.39931
817.46        73.86293
817.87        75.49503
818.28        76.21732
818.69        75.74361
819.10        74.33417
819.51        72.68811
819.92        72.00188
820.33        72.58073
820.74        74.05427
821.14        75.74346
821.55        76.44683
821.96        75.89706
822.37        74.51029
822.78        72.89534
823.19        71.94312
823.60        71.90086
824.00        72.54527
824.41        73.47018
824.82        74.08437
825.23        74.14272
825.64        73.85551
826.04        73.45827
826.45         73.2846
826.86         73.4133
827.27        73.68302
827.68        73.95621
828.08         74.0579
828.49        73.87244
828.90        73.54276
829.31        73.11254
829.72        72.65082
830.12        72.25474
830.53        71.88832
830.94        71.70952
831.35        71.92257
831.75        72.57457
832.16        73.55063
832.57        74.61988
832.97        75.28495
833.38        75.32238
833.79        74.86229
834.20        74.19773
834.60        73.78506
835.01        73.77297
835.42        74.03323
835.82        74.36748
836.23        74.35888
836.64        73.94933
837.04        73.30208
837.45        72.67168
837.86         72.4538
838.26        72.74315
838.67        73.36584
839.08        74.10443
839.48        74.57225
839.89        74.60542
840.29        74.33776
840.70         73.8828
841.11        73.39619
841.51        72.95779
841.92        72.50565
842.33         72.1152
842.73        71.92333
843.14        71.92139
843.54        72.13301
843.95        72.40069
844.35        72.50786
844.76        72.38469
845.17        72.09669
845.57        71.78041
845.98        71.66341
846.38        71.79607
846.79         72.0809
847.19        72.42361
847.60        72.57536
848.00        72.50471
848.41         72.2688
848.81        71.99148
849.22        71.77771
849.62        71.71461
850.03        71.77431
850.43        71.96428
850.84        72.22038
851.24        72.54414
851.65          72.777
852.05        73.06325
852.46        73.46762
852.86        73.98308
853.27        74.60586
853.67         74.8672
854.07        74.17185
854.48        72.56697
854.88         70.2893
855.29        68.12914
855.69        67.22203
856.10         67.7858
856.50        69.67278
856.90        72.20677
857.31        73.79856
857.71        73.91904
858.12        72.93355
858.52        71.52078
858.92        70.58055
859.33        70.32439
859.73        70.50171
860.13         70.9687
860.54        71.44093
860.94        71.85884
861.34        72.31539
861.75         72.7795
862.15        73.26897
862.55        73.73819
862.96        74.12155
863.36        74.44164
863.76        74.72947
864.17        74.97745
864.57        75.22482
864.97        75.42664
865.38        75.50578
865.78        75.50758
866.18        75.38871
866.58         75.2609
866.99        75.30099
867.39        75.60096
867.79        76.15424
868.19        76.67945
868.60        76.63891
869.00        75.92534
869.40        74.70786
869.80        73.63776
870.21        73.72263
870.61        75.24437
871.01        77.87203
871.41        80.77728
871.81        82.54414
872.22        82.78186
872.62        81.89313
873.02        80.59522
873.42        80.22717
873.82        80.89446
874.22        81.78778
874.63        82.64654
875.03        83.00736
875.43        82.58247
875.83        82.60159
876.23        81.08965
876.63        80.24397
877.03        79.83704
877.44        79.96392
877.84        105.7523
878.24        85.71214
878.64        86.59412
879.04        87.88584
879.44        83.58381
879.84        81.57109
880.24         86.4967
880.64        88.70508
881.04        89.20634
881.44        89.15948
881.84        88.21024
882.24        86.52065
882.65         85.0831
883.05        84.77998
883.45        85.75584
883.85        88.06927
884.25        90.88952
884.65        92.41151
885.05        92.09727
885.45        90.53731
885.85        88.64825
886.25        87.70045
886.65        87.96139
887.05        88.99248
887.45        90.31812
887.85        91.09998
888.25         91.0472
888.65        90.52141
889.04        89.72555
889.44        88.98552
889.84        88.43422
890.24        87.91248
890.64        87.60235
891.04        87.82143
891.44        88.55598
891.84        89.73981
892.24          90.894
892.64        91.12688
893.04        90.30739
893.44        88.82937
893.83        87.28628
894.23        86.53613
894.63        86.74487
895.03        87.57059
895.43        88.87793
895.83        90.38091
896.23        91.82842
896.63        93.31019
897.02        94.28726
897.42        93.89748
897.82        92.12858
898.22        89.32681
898.62        86.53783
899.01        85.31533
899.41        85.96566
899.81        87.95811
900.21        90.49133
900.61         92.2353
901.00        92.76227
901.40        92.47365
901.80        91.72237
902.20        91.06378
902.59        90.70437
902.99         90.4347
903.39        90.20945
903.79        89.99726
904.18        89.79321
904.58         89.7303
904.98        89.82659
905.38        90.05785
905.77        90.38116
906.17        90.73873
906.57        91.09554
906.96        91.47231
907.36        91.77805
907.76        91.99668
908.15        92.02595
908.55        91.59862
908.95        90.74964
909.34        89.56857
909.74        88.35139
910.14        87.36847
910.53        86.74724
910.93        86.48068
911.33        86.59503
911.72        87.12415
912.12        87.90967
912.52         88.8221
912.91        89.72205
913.31        90.47113
913.70        91.10316
914.10        91.64058
914.49        91.91043
914.89        91.49848
915.29        90.40495
915.68        88.81107
916.08        87.45173
916.47        86.93349
916.87        87.29665
917.26        88.35916
917.66        89.52587
918.05        89.84931
918.45        89.10737
918.84        87.66734
919.24        86.16353
919.64        85.50307
920.03        85.92809
920.42        87.11939
920.82        88.70203
921.21        90.15928
921.61        91.06184
922.00        91.57027
922.40        91.56842
922.79        90.92753
923.19        89.78777
923.58        88.07105
923.98        86.01833
924.37        84.79147
924.77        85.00253
925.16        83.39001
925.55        85.43648
925.95        86.65868
926.34        88.51628
926.74        90.59415
927.13        92.44434
927.52         93.0326
927.92        92.26144
928.31          90.509
928.70         88.2122
929.10        86.15803
929.49        84.61814
929.89        83.44224
930.28        82.99023
930.67        83.83647
931.07        85.83447
931.46        88.83471
931.85        91.72617
932.24        92.84251
932.64        91.85321
933.03        89.03967
933.42        85.25621
933.82        82.48344
934.21        81.41605
934.60        81.60681
934.99        82.25641
935.39        82.54838
935.78        82.34145
936.17        81.37122
936.56        79.50913
936.96        81.04598
937.35        80.15028
937.74        81.20399
938.13        82.14652
938.53        83.14246
938.92        84.25529
939.31        85.61653
939.70        86.92251
940.09        87.17934
940.49        86.16555
940.88        84.36877
941.27        82.55551
941.66        81.61178
942.05        81.65269
942.44        82.37133
942.84        83.56662
943.23        84.94901
943.62        86.21132
944.01        87.37233
944.40        88.15023
944.79         88.1301
945.18        87.19653
945.57        85.30067
945.97        82.74267
946.36        80.53278
946.75        79.36298
947.14        79.12914
947.53        79.40729
947.92        79.62157
948.31        79.65741
948.70        79.68682
949.09        79.85611
949.48        80.41559
949.87        81.36492
950.26        82.43019
950.65        83.39313
951.04        84.04583
951.43        84.30603
951.82        84.22717
952.21        83.69913
952.60        82.59543
952.99        81.01079
953.38        79.06682
953.77        77.20498
954.16        76.02988
954.55        75.66071
954.94        76.01988
955.33        76.63681
955.72        76.67869
956.11        75.95503
956.50        74.67033
956.89        73.47906
957.28        73.58072
957.66          75.337
958.05        78.09898
958.44        81.00351
958.83        82.80686
959.22        83.17155
959.61        82.38941
960.00        80.98448
960.39        79.81712
960.78          79.187
961.16        78.94264
961.55        78.68987
961.94        77.77551
962.33        76.17213
962.72        74.27296
963.11        72.74701
963.49        72.43366
963.88        73.43992
964.27        75.54356
964.66         78.1276
965.04        79.80378
965.43        79.87553
965.82        78.78129
966.21         77.2276
966.60         76.1582
966.98        75.80753
967.37        75.85526
967.76        76.08125
968.15        76.08884
968.53        75.75518
968.92        75.22765
969.31        74.71999
969.69        74.43818
970.08        74.41991
970.47        74.60546
970.86        74.75217
971.24        74.46127
971.63        73.64308
972.02        72.39304
972.40        71.17235
972.79         70.8033
973.17        71.60841
973.56        73.29054
973.95        75.26597
974.33        76.36042
974.72        76.10889
975.11        74.86413
975.49        73.31822
975.88        72.45532
976.26        72.42307
976.65        72.98969
977.04        73.58292
977.42        72.92336
977.81        70.74048
978.19        67.70403
978.58        65.27334
978.96         64.8008
979.35        66.46043
979.74         69.9562
980.12         74.6788
980.51          78.089
980.89        79.28864
981.28        78.76862
981.66        77.35884
982.05        76.18129
982.43         75.5379
982.82        75.07037
983.20        74.95943
983.59        75.55239
983.97        76.95187
984.35        79.22988
984.74        81.69083
985.12        82.93402
985.51        82.06285
985.89        79.22999
986.28        75.41698
986.66        72.22408
987.04        70.47821
987.43        69.95264
987.81        69.78935
988.20        68.75739
988.58        66.35775
988.96        62.13309
989.35        56.90947
989.73        55.21212
990.12        59.97898
990.50        69.01101
990.88        76.65587
991.27        78.71135
991.65        75.83688
992.03        69.33286
992.42        62.04404
992.80        59.15524
993.18        62.03268
993.56        67.86854
993.95        74.01914
994.33        78.11587
994.71         79.6633
995.10        79.87984
995.48        79.01321
995.86        77.14275
996.24        74.42967
996.63        70.41814
997.01        66.04813
997.39        64.42783
997.77         66.7915
998.15        72.46353
998.54        78.38972
998.92        80.36627
999.30        77.14043
999.68        69.78622
1000.06         60.0613
1000.45        52.54351
1000.83        49.32025
1001.21        49.03874
1001.59        50.65218
1001.97        53.02161
1002.35        55.73854
1002.73        59.71464
1003.12        63.79396
1003.50        64.02684
1003.88        59.10615
1004.26        51.09607
1004.64        43.81374
1005.02        40.53003
1005.40        41.50426
1005.78        46.54831
1006.16        56.68583
1006.54        67.96349
1006.92        73.59846
1007.30        74.21033
1007.69         72.5116
1008.07        70.67406
1008.45        68.54352
1008.83        64.13645
1009.21        52.55841
1009.59        19.45566
1009.97       -58.63837
1010.35       -145.5577
1010.73       -108.6424
1011.11       -43.68473
1011.49       -2.689008
1011.86        24.80272
1012.24        40.03741
1012.62        47.13214
1013.00        49.65692
1013.38        48.95009
1013.76        46.86157
1014.14         49.1024
1014.52        60.11831
1014.90        80.87355
1015.28        105.0585
1015.66        114.9973
1016.04        100.7412
1016.41        67.20908
1016.79        33.28054
1017.17        17.39705
1017.55        17.34647
1017.93        23.18672
1018.31        29.91403
1018.69        35.41098
1019.06        39.99423
1019.44        44.46977
1019.82        50.23445
1020.20        58.18196
1020.58        68.31581
1020.95        81.18291
1021.33        85.36465
1021.71        320.2214
1022.09        150.6322
1022.46        149.0347
1022.84        154.2154
1023.22        167.1487
1023.60        202.8463
1023.97        558.1083
1024.35       -42.90973
1024.73        26.66836
