SpectraSmart Spectrum 2.9.0.0
--------- Device Information -----------
Spectrum Name :  反射率_0
Saving Time :  2024/04/25 22:58:53
Spectro-Module Model Name : SE2030-DUVN
Spectro-Module Serial Number : OS361AC55029948
Wavelength Start : 200
Wavelength End : 1025
Wavelength Unit : Wavelength(nm)
Spectrum Unit : Reflectance(%)
-----------Spectrum Setting ------------
Integration Time : 20ms
Average : 10
Boxcar : 0
Background removal :  enabled
linearity correction :  enabled
SC :  disabled
Intensity correction :  disabled
DWT denoise :  enabled
savitzky-golay :  disabled
FFT :  disabled
Running average :  disabled
Kalman :  disabled
High pass :  disabled
---------------BEGIN--------------------
Wavelength(nm)             Reflectance(%)
200.29               0
200.75        102.7443
201.21        97.04636
201.67        89.44592
202.13        84.55182
202.58        83.14539
203.04        84.43714
203.50        86.58521
203.96        86.66451
204.42        84.32865
204.88        80.88533
205.34        78.28384
205.80        78.60311
206.26        82.85289
206.72        93.63453
207.18        115.0028
207.64        132.7737
208.10        118.5822
208.55        91.93365
209.01        75.47631
209.47        70.07669
209.93        71.03561
210.39        76.08266
210.85         82.3214
211.31        83.66218
211.77        78.29237
212.23        68.70235
212.69        59.54007
213.14        57.90857
213.60        64.91683
214.06        78.28097
214.52        93.39281
214.98        103.2748
215.44        105.8953
215.90        103.4123
216.36        98.41613
216.81        94.38017
217.27        92.74276
217.73        92.46203
218.19        92.08786
218.65        89.66341
219.11        84.30257
219.57        75.25578
220.02         64.1034
220.48        58.73689
220.94        63.04267
221.40        74.49906
221.86        84.15582
222.32        82.99149
222.77        72.65339
223.23        58.86442
223.69        47.24037
224.15        43.46814
224.61        46.89902
225.06        54.57567
225.52        62.78588
225.98        66.81112
226.44        65.74599
226.90        61.60377
227.36        56.70004
227.81        54.11005
228.27        54.80924
228.73        57.38403
229.19        60.71004
229.65        63.21071
230.10        64.34708
230.56         64.7899
231.02        64.84961
231.48        64.82612
231.93        64.80226
232.39        64.70296
232.85        64.49028
233.31         64.2332
233.77        63.92551
234.22        63.55919
234.68        63.16096
235.14        62.75288
235.60        62.37115
236.05        62.08799
236.51        61.76615
236.97        61.10303
237.43        60.01678
237.88        58.54856
238.34          56.961
238.80        56.42298
239.26        57.49334
239.71         60.0494
240.17        63.11066
240.63        65.35492
241.08         66.3951
241.54        66.55105
242.00        66.25061
242.46        66.07938
242.91        66.52722
243.37        67.43852
243.83        72.42744
244.28        102.2533
244.74         160.651
245.20        158.8098
245.66        142.4908
246.11        137.5516
246.57        140.8304
247.03        154.8239
247.48        186.1409
247.94        131.1869
248.40        88.14775
248.85        79.22549
249.31         78.4875
249.77        80.74879
250.22        85.35799
250.68        93.65739
251.14        105.2729
251.59        111.8706
252.05        105.9879
252.51        91.56396
252.96         77.3615
253.42        71.60848
253.88        73.37057
254.33        79.30376
254.79        86.84708
255.25        91.87914
255.70        93.32211
256.16        93.22688
256.62        91.57914
257.07        88.13268
257.53        83.73923
257.99        78.27148
258.44        73.09617
258.90        70.77814
259.35        70.36633
259.81         70.9834
260.27        70.72629
260.72        67.74085
261.18        62.83723
261.63        56.83554
262.09        51.47742
262.55        48.11119
263.00        46.61316
263.46        46.33096
263.91        46.21007
264.37        45.42065
264.83        43.79582
265.28        41.59264
265.74        39.45168
266.19        38.07761
266.65        37.70211
267.11        37.90529
267.56        38.16484
268.02        37.88914
268.47        36.96025
268.93        35.60672
269.38        34.10751
269.84        33.14258
270.30        32.88489
270.75        33.13337
271.21        33.53186
271.66        33.55865
272.12        33.07785
272.57        32.25855
273.03        31.38984
273.48        30.81645
273.94        30.64547
274.39        30.70515
274.85        30.80462
275.31        30.65452
275.76        30.18529
276.22        29.54064
276.67        28.84411
277.13        28.36604
277.58        28.10732
278.04        28.00603
278.49        27.90783
278.95        27.66939
279.40        27.22567
279.86         26.6885
280.31        26.09591
280.77        25.61733
281.22        25.24923
281.68        24.97677
282.13        24.74445
282.59        24.51443
283.04         24.2651
283.50        24.04592
283.95        23.84178
284.41        23.65052
284.86        23.46231
285.32        23.27807
285.77        23.13442
286.22        23.15215
286.68        23.31215
287.13        23.54519
287.59        23.70912
288.04        23.58376
288.50        23.16701
288.95        22.52888
289.41        21.84304
289.86        21.26453
290.32        20.89904
290.77        20.68584
291.22        20.62938
291.68        20.69346
292.13        20.85929
292.59        21.13713
293.04        21.49999
293.50        21.90417
293.95        22.31648
294.40        22.70878
294.86        23.06992
295.31        23.40136
295.77        23.71069
296.22        24.00697
296.68        24.27792
297.13        24.47559
297.58        24.62279
298.04        24.75897
298.49         24.9754
298.95        25.44538
299.40        26.17822
299.85        27.10533
300.31        28.08332
300.76        28.89483
301.21        29.45922
301.67        29.85881
302.12        30.12046
302.58        30.34684
303.03        30.55856
303.48        30.73881
303.94        30.96564
304.39         31.3247
304.84        31.82547
305.30        32.43485
305.75        33.00768
306.20        33.32733
306.66        33.37648
307.11        33.21424
307.57        32.99579
308.02        32.87788
308.47        32.93426
308.93        33.10855
309.38        33.35481
309.83        33.63263
310.29        33.90233
310.74        34.16652
311.19        34.38126
311.65        34.47487
312.10        34.43624
312.55        34.28627
313.00        34.06439
313.46        33.85302
313.91        33.67445
314.36        33.52467
314.82        33.42801
315.27        33.39973
315.72        33.44348
316.18        33.55399
316.63        33.68174
317.08        33.72024
317.53        33.64203
317.99        33.46095
318.44        33.25769
318.89        33.16713
319.35         33.2086
319.80         33.3526
320.25        33.48233
320.70         33.4054
321.16        33.08871
321.61        32.60151
322.06        32.08807
322.51        31.76833
322.97         31.6807
323.42        31.76445
323.87        31.90097
324.32        31.89083
324.78        31.67476
325.23        31.32878
325.68        30.92315
326.13         30.5763
326.59        30.32643
327.04        30.15387
327.49        30.05032
327.94        30.00996
328.39         30.0232
328.85         30.0891
329.30         30.2064
329.75        30.31666
330.20        30.40264
330.66        30.45282
331.11        30.50027
331.56        30.55859
332.01        30.63052
332.46        30.69352
332.92        30.74005
333.37        30.80048
333.82        30.86119
334.27        30.93535
334.72        30.96826
335.17        30.86782
335.63        30.62569
336.08        30.27806
336.53        29.95535
336.98        29.87353
337.43        30.07133
337.88        30.48808
338.34        30.93327
338.79        31.14004
339.24        31.01518
339.69        30.63997
340.14        30.19212
340.59        29.98532
341.05        30.09552
341.50        30.41623
341.95        30.79796
342.40        31.02671
342.85        31.04831
343.30        30.94547
343.75        30.76188
344.20        30.57291
344.66         30.4159
345.11        30.22965
345.56        30.06744
346.01        30.01112
346.46        30.05858
346.91        30.20752
347.36        30.31031
347.81        30.12422
348.26        29.63379
348.72        28.95514
349.17         28.2936
349.62        28.06422
350.07        28.35561
350.52        29.01632
350.97        29.82273
351.42         30.4346
351.87        30.74173
352.32        30.83294
352.77         30.7568
353.22         30.5978
353.67        30.39996
354.13        30.13795
354.58        29.84068
355.03        29.60139
355.48        29.44287
355.93        29.36896
356.38        29.32695
356.83        29.21402
357.28        29.00688
357.73        28.73152
358.18        28.45037
358.63        28.26239
359.08        28.18731
359.53        28.19404
359.98         28.2058
360.43        28.10546
360.88        27.87111
361.33        27.53946
361.78        27.20098
362.23        27.00271
362.68         26.9709
363.13        27.04619
363.58        27.13177
364.03        27.07807
364.48        26.84956
364.93        26.50413
365.38        26.09789
365.83        25.71921
366.28        25.40592
366.73        25.13093
367.18        24.91357
367.63        24.78668
368.08        24.74425
368.53        24.77798
368.98        24.82215
369.43        24.76701
369.88        24.59122
370.33        24.32632
370.78        24.02909
371.23        23.80281
371.68        23.67952
372.13        23.62254
372.58        23.61704
373.03        23.63598
373.48        23.65853
373.93        23.69682
374.38        23.70877
374.83        23.62469
375.28        23.44032
375.72        23.16708
376.17        22.89886
376.62         22.7522
377.07        22.75431
377.52        22.85914
377.97        23.00653
378.42        23.09839
378.87        23.09708
379.32        23.03032
379.77        22.90219
380.22        22.71618
380.67         22.4845
381.11        22.21179
381.56        21.92658
382.01        21.68776
382.46        21.51644
382.91        21.40398
383.36        21.33929
383.81        21.29625
384.26        21.26121
384.71        21.23881
385.15        21.20537
385.60        21.14297
386.05        21.03724
386.50        20.88172
386.95        20.70443
387.40        20.56227
387.85        20.47681
388.29        20.43797
388.74         20.4138
389.19         20.3194
389.64        20.14738
390.09        19.91593
390.54        19.71236
390.98        19.68089
391.43        19.85079
391.88        20.15456
392.33        20.45813
392.78         20.5663
393.23        20.45324
393.67        20.18192
394.12        19.89587
394.57        19.72848
395.02        19.71255
395.47        19.79631
395.91        19.93459
396.36        20.02013
396.81        20.02197
397.26        19.96412
397.71        19.87045
398.15        19.75282
398.60        19.65263
399.05        19.57248
399.50        19.49633
399.95        19.34829
400.39        19.21218
400.84        19.03554
401.29         18.9064
401.74        18.94193
402.18        19.16733
402.63        19.51585
403.08         19.8748
403.53        20.06335
403.97        20.03957
404.42         19.8591
404.87        19.60228
405.32        19.41245
405.76        19.33809
406.21        19.34149
406.66        19.40144
407.11         19.4959
407.55        19.61506
408.00        19.76467
408.45        19.90864
408.90        19.95946
409.34        19.89722
409.79        19.75084
410.24        19.59058
410.68        19.51943
411.13        19.56494
411.58        19.69732
412.03        19.87853
412.47        20.04111
412.92        20.13848
413.37        20.18778
413.81        20.20004
414.26        20.21043
414.71        20.22264
415.15        20.23508
415.60        20.21646
416.05        20.13842
416.49        20.00471
416.94        19.84253
417.39        19.70917
417.83        19.69485
418.28        19.82122
418.73        20.04259
419.17        20.30027
419.62        20.50758
420.07        20.63816
420.51        20.71488
420.96        20.73279
421.41        20.68575
421.85        20.57986
422.30        20.44498
422.74        20.31365
423.19        20.27938
423.64        20.34161
424.08        20.49074
424.53        20.67147
424.98         20.8196
425.42        20.91726
425.87        20.96379
426.31        20.97176
426.76        21.02463
427.21        21.10576
427.65        21.05427
428.10        20.95964
428.54        21.10817
428.99        21.51485
429.44        22.03324
429.88         22.4613
430.33        22.59631
430.77        22.38276
431.22        21.82749
431.66        21.18303
432.11         21.0146
432.56        21.36973
433.00         21.8563
433.45        22.26858
433.89        22.79615
434.34        23.20035
434.78        22.78124
435.23        21.93743
435.67        21.85078
436.12        22.45969
436.57         22.7241
437.01        22.55183
437.46        22.48932
437.90        22.57939
438.35        22.66489
438.79        22.70761
439.24        22.71099
439.68        22.68565
440.13        22.54857
440.57        22.38825
441.02        22.64503
441.46        23.16031
441.91        23.09829
442.35        22.55378
442.80        22.34516
443.24         22.4435
443.69        22.53604
444.13        22.54648
444.58        22.33613
445.02         22.0026
445.47        22.03068
445.91        22.34681
446.36         22.4229
446.80        22.22688
447.24         22.0688
447.69        22.00765
448.13        21.99062
448.58        22.03637
449.02        22.14719
449.47        22.28596
449.91        22.38961
450.36        22.44259
450.80        22.45825
451.25        22.45556
451.69        22.45034
452.13        22.45793
452.58        22.46317
453.02        22.48156
453.47        22.54271
453.91        22.64683
454.36        22.78625
454.80        22.91893
455.24        22.96588
455.69        22.92253
456.13         22.8096
456.58        22.69467
457.02        22.64438
457.46        22.68733
457.91        22.79028
458.35        22.92609
458.79        23.05017
459.24        23.15385
459.68        23.23279
460.13        23.29426
460.57        23.29888
461.01        23.26807
461.46        23.20754
461.90        23.14895
462.34        23.14201
462.79        23.18887
463.23        23.26628
463.68        23.36905
464.12         23.4916
464.56        23.62093
465.01        23.78403
465.45        23.88221
465.89        23.85568
466.34        23.71898
466.78        23.35803
467.22        22.96433
467.67        23.08208
468.11        23.63943
468.55        23.94074
468.99         23.8859
469.44        23.79979
469.88        23.76028
470.32        23.85471
470.77        24.04533
471.21        24.09687
471.65        23.99394
472.10        23.95099
472.54        23.98358
472.98        24.02855
473.42        24.08952
473.87        24.19555
474.31        24.31361
474.75        24.38868
475.20        24.41666
475.64        24.39919
476.08        24.37391
476.52         24.3991
476.97        24.48902
477.41        24.62841
477.85        24.77366
478.29        24.90136
478.74        25.00398
479.18        24.96791
479.62        24.83666
480.06        25.09892
480.50        25.24783
480.95        25.35669
481.39        25.25613
481.83        25.21028
482.27         25.2272
482.72        25.06885
483.16        24.83272
483.60        25.00101
484.04         25.5674
484.48        25.83258
484.93        26.11909
485.37        26.55771
485.81        27.04774
486.25        27.16494
486.69        36.34739
487.14        28.44291
487.58        18.89137
488.02        23.03241
488.46        26.05564
488.90        26.37672
489.34        26.75622
489.79          26.561
490.23        27.59336
490.67        28.18165
491.11        28.04972
491.55        27.96511
491.99        27.85698
492.43        27.70295
492.88        27.59164
493.32        27.74255
493.76        27.93492
494.20         28.2313
494.64        28.52924
495.08        28.83379
495.52        29.14712
495.96        29.45816
496.41        29.70393
496.85        29.95864
497.29        30.17905
497.73        29.82786
498.17        29.29408
498.61        29.59137
499.05        30.69786
499.49        30.90966
499.93        30.94746
500.37        30.99936
500.82        31.01089
501.26        31.27483
501.70        31.64363
502.14        31.86286
502.58        31.87983
503.02         31.9129
503.46         31.9669
503.90           31.89
504.34        31.74466
504.78        31.71226
505.22        31.81939
505.66        32.01648
506.10        32.24118
506.54        32.38627
506.98        32.42252
507.42        32.39026
507.86        32.34466
508.30        32.36857
508.74        32.48256
509.18        32.65255
509.62        32.84832
510.06          33.023
510.50        33.15795
510.94        33.27247
511.38        33.36039
511.82          33.409
512.26        33.42282
512.70        33.40172
513.14        33.38093
513.58        33.42247
514.02        33.52974
514.46        33.67827
514.90        33.82453
515.34        33.86791
515.78        33.76773
516.22        33.68998
516.66        33.67686
517.10        33.41728
517.54        32.92525
517.98        33.55303
518.42        33.34985
518.86        33.64537
519.30        33.83977
519.74        34.10152
520.18        34.35648
520.62        34.46062
521.06         34.4119
521.50        34.23877
521.93        34.00659
522.37        33.83204
522.81        33.75399
523.25        33.74165
523.69        33.78319
524.13        33.85771
524.57        33.94753
525.01        34.05762
525.45        34.15474
525.89        34.18263
526.32        34.12578
526.76        33.99635
527.20        33.82808
527.64        33.68937
528.08         33.6074
528.52        33.53856
528.96        33.45303
529.40        33.39552
529.83        33.37735
530.27        33.05091
530.71        33.08921
531.15        32.99362
531.59        32.96619
532.03        32.97469
532.46        33.02407
532.90        33.11455
533.34        33.22528
533.78        33.35046
534.22        33.44915
534.66        33.46474
535.09        33.38293
535.53        33.23399
535.97        33.05246
536.41        32.90384
536.85        32.81356
537.28        32.77258
537.72         32.7682
538.16        32.78051
538.60        32.80279
539.04        32.81616
539.47        32.83332
539.91        32.95853
540.35        33.15625
540.79        33.27811
541.22        33.31656
541.66         33.3952
542.10        33.51192
542.54        33.58405
542.97        33.63514
543.41        33.75742
543.85         33.9544
544.29        34.21604
544.72        34.47334
545.16        34.62656
545.60        34.65641
546.04        34.60583
546.47        34.58574
546.91        34.74194
547.35        35.11175
547.79        35.73401
548.22          36.411
548.66        36.72726
549.10        36.63651
549.53        36.34839
549.97        36.06413
550.41        35.97805
550.84        36.15172
551.28        36.57367
551.72        37.14077
552.15        37.53925
552.59        37.67405
553.03        38.07677
553.46        37.98756
553.90        38.13739
554.34         38.3157
554.77        38.48766
555.21        38.58841
555.65        38.73819
556.08        38.94326
556.52         38.7569
556.96        39.07961
557.39        39.04599
557.83        38.99945
558.27        39.17147
558.70        39.53141
559.14        39.78292
559.57        39.88181
560.01        40.00081
560.45         40.1345
560.88        40.18517
561.32        40.17716
561.75        40.17419
562.19        40.20349
562.63        40.11642
563.06        39.98352
563.50        40.12626
563.93        40.47954
564.37        40.69056
564.80        40.72085
565.24        40.78088
565.68        40.87783
566.11        40.95106
566.55        41.03511
566.98        41.12031
567.42        41.24239
567.85        41.47244
568.29        41.82317
568.72        42.11076
569.16        42.38906
569.60        42.80489
570.03        43.13163
570.47        43.13633
570.90        43.09831
571.34        41.99945
571.77        42.79177
572.21        43.22547
572.64        43.27321
573.08        42.57104
573.51         41.0929
573.95        42.83321
574.38        45.70732
574.82        44.32732
575.25        44.19573
575.69        42.61028
576.12        41.94192
576.56          41.783
576.99        42.64624
577.42        44.95743
577.86        44.56421
578.29        44.22171
578.73        46.54495
579.16        42.82881
579.60        39.15303
580.03        40.91382
580.47        43.67257
580.90        44.23438
581.33        43.42098
581.77        43.02112
582.20        46.64419
582.64         46.3278
583.07        39.42464
583.51        38.68332
583.94        38.03445
584.37         39.7145
584.81        41.59887
585.24         43.7048
585.68        44.72476
586.11        43.72453
586.54        40.62912
586.98        39.51731
587.41        39.81469
587.85        41.78848
588.28        42.99347
588.71        41.07534
589.15        39.71028
589.58        40.57829
590.01        40.77979
590.45        41.73846
590.88        41.97065
591.31        41.46396
591.75        41.04008
592.18        41.15331
592.61        42.33965
593.05        42.64363
593.48        44.37564
593.91        44.91974
594.35        41.40836
594.78        40.75787
595.21        40.67165
595.65        42.63446
596.08        44.37531
596.51        42.79481
596.94        41.70533
597.38        42.31992
597.81        44.31581
598.24        45.63659
598.68        44.74747
599.11        44.90654
599.54        46.59324
599.97        47.79366
600.41        45.17376
600.84        45.64714
601.27        46.84338
601.70         46.6825
602.14        47.02559
602.57        46.77207
603.00        47.52275
603.43         49.0353
603.87         50.6544
604.30        50.76722
604.73        49.63157
605.16        49.21401
605.60        50.27323
606.03        51.50316
606.46        52.51561
606.89        52.98916
607.32        51.82395
607.76        52.05388
608.19        54.17908
608.62        53.78577
609.05         53.2065
609.48        53.91076
609.92        54.12514
610.35        54.48343
610.78        56.37525
611.21        57.53848
611.64        55.14511
612.07         55.9782
612.50        56.49582
612.94        57.11037
613.37        56.99691
613.80        57.30693
614.23         58.0822
614.66        58.33032
615.09         58.8658
615.52        59.15904
615.96        59.30477
616.39        59.61906
616.82        59.10639
617.25        59.05024
617.68        59.76212
618.11        60.76159
618.54        61.46383
618.97        61.38089
619.40        60.72763
619.84        60.73223
620.27         61.9325
620.70        62.57737
621.13        62.73332
621.56        62.20234
621.99        61.61646
622.42         62.4634
622.85        64.41859
623.28        63.91231
623.71        63.93639
624.14         63.7649
624.57        63.21603
625.00        63.09997
625.43        63.18252
625.86        62.68131
626.29        62.73932
626.72        63.16384
627.15        62.78202
627.58        62.76454
628.01         62.6367
628.44        62.61502
628.87        62.75633
629.30        62.15884
629.73        62.40075
630.16          62.246
630.59        61.58869
631.02        60.98946
631.45        60.37806
631.88        59.85966
632.31        59.44925
632.74        59.14118
633.17        58.89352
633.60         58.6197
634.03        58.29308
634.46         57.9389
634.89        57.55919
635.32        57.15722
635.75         56.7405
636.18        56.30383
636.61        55.86353
637.04        55.44825
637.47        55.05934
637.89        54.69393
638.32        54.32268
638.75        53.93563
639.18        53.53373
639.61        53.13351
640.04        52.73496
640.47        52.33039
640.90        51.92705
641.33        51.52905
641.76        51.15358
642.18        50.90394
642.61        50.79332
643.04        50.67972
643.47        50.50744
643.90        50.84046
644.33        50.61281
644.76        50.68219
645.18        50.72927
645.61        50.76263
646.04        50.77131
646.47        50.74866
646.90        50.76564
647.33        50.89899
647.75        51.18313
648.18        51.63597
648.61        52.10835
649.04        52.36862
649.47        52.38687
649.89        52.11483
650.32        51.87798
650.75        52.33324
651.18         53.4425
651.61         54.5974
652.03        55.44005
652.46        55.82489
652.89        56.04556
653.32        55.80527
653.74        55.51514
654.17        57.22479
654.60         58.6642
655.03        56.96951
655.46        58.06886
655.88        61.35471
656.31        66.29782
656.74        148.0733
657.16         95.1598
657.59        33.51228
658.02        25.94575
658.45        46.13152
658.87        59.57723
659.30        62.78052
659.73         62.0443
660.15        60.25824
660.58        62.98277
661.01        64.95429
661.44        63.12017
661.86         62.6214
662.29        62.83173
662.72        64.03369
663.14        65.90289
663.57        66.09625
664.00        64.88575
664.42        64.75697
664.85        65.81594
665.27        66.51755
665.70        66.64463
666.13        66.70399
666.55        66.67973
666.98         66.4379
667.41        66.14694
667.83        66.12572
668.26        66.44147
668.69        66.97342
669.11        67.52104
669.54        68.06652
669.96        67.90331
670.39        67.70676
670.82        67.46685
671.24        67.35973
671.67        67.55149
672.09        68.23229
672.52        69.08737
672.94        69.84605
673.37         69.2905
673.80        69.22225
674.22        69.39048
674.65        69.52431
675.07        69.62047
675.50        69.69866
675.92        69.79496
676.35        70.00201
676.77        70.32435
677.20        70.65639
677.62         70.9558
678.05        71.16062
678.47        71.24199
678.90        71.23409
679.32        71.20316
679.75        71.11103
680.17        71.26522
680.60        71.45773
681.02        71.69163
681.45        71.72758
681.87        71.59071
682.30        71.51181
682.72        71.58733
683.15         71.7968
683.57        72.18418
684.00        72.77193
684.42        73.53119
684.85        73.91943
685.27        73.89517
685.70        73.66364
686.12        73.34175
686.54        73.06136
686.97        72.92333
687.39        73.06942
687.82        73.41068
688.24        73.68475
688.66         73.8255
689.09        73.97735
689.51        74.17243
689.94        74.39007
690.36         74.6439
690.78        74.86657
691.21        75.03889
691.63        75.26572
692.06        75.49041
692.48        75.46705
692.90        75.28354
693.33        75.29144
693.75        75.52756
694.17        75.82235
694.60        76.11612
695.02        76.37174
695.44        76.52145
695.87         76.7189
696.29        76.98806
696.71        76.85681
697.14        76.50242
697.56        77.03294
697.98        78.18742
698.41        77.99963
698.83        77.28352
699.25        76.86395
699.68        77.04406
700.10        77.10428
700.52         77.0563
700.94         77.3026
701.37        77.75185
701.79        78.17815
702.21        78.41885
702.64        78.61405
703.06        78.70714
703.48        78.64191
703.90        78.44776
704.33        78.11521
704.75         77.8184
705.17        77.77679
705.59        78.06609
706.01        78.47667
706.44        78.86897
706.86        79.65462
707.28        79.69446
707.70        79.97141
708.12        80.14388
708.55        79.92021
708.97        79.42428
709.39        79.28822
709.81         79.5306
710.23        79.60401
710.66        79.49377
711.08        79.59516
711.50        79.81828
711.92        79.85361
712.34         79.6733
712.76         79.3502
713.19        79.04552
713.61        79.05494
714.03        79.41882
714.45        80.04354
714.87        80.68477
715.29        80.95954
715.71        80.78857
716.13        80.29195
716.56        79.72007
716.98        79.51585
717.40        79.78063
717.82        80.37614
718.24         81.0808
718.66        81.51903
719.08        81.57879
719.50        81.37911
719.92        81.05442
720.34        80.83807
720.76        80.80866
721.19        80.76052
721.61        80.91203
722.03        81.05307
722.45        81.22773
722.87        81.44802
723.29        81.68896
723.71        81.89108
724.13        82.03156
724.55        82.11049
724.97        82.13948
725.39        82.15108
725.81        82.15812
726.23        82.15755
726.65        82.14902
727.07        82.12865
727.49        82.10389
727.91        82.08951
728.33        82.09958
728.75        82.15368
729.17        82.24752
729.59        82.35851
730.01        82.48336
730.43        82.60759
730.85        82.72847
731.27        82.88432
731.69        83.00949
732.10        82.97637
732.52         82.7701
732.94        82.47061
733.36        82.25154
733.78        82.26907
734.20        82.56656
734.62        83.39156
735.04        84.40228
735.46        84.61536
735.88        83.64398
736.30        83.90874
736.72        85.21391
737.13        85.91799
737.55        85.64909
737.97        85.55972
738.39        85.68968
738.81         84.6565
739.23        83.07352
739.65        83.98412
740.06        86.78317
740.48        87.16872
740.90        85.22692
741.32        84.44272
741.74        85.11646
742.16        85.51108
742.57        85.66219
742.99        86.50783
743.41        87.78024
743.83        88.52391
744.25        88.57983
744.67        88.19347
745.08        87.65557
745.50        87.44165
745.92        87.69415
746.34        88.23534
746.75        88.86698
747.17        89.23943
747.59        89.28081
748.01        89.17215
748.42        89.06388
748.84         89.0665
749.26        89.32632
749.68        89.91903
750.09        90.70539
750.51         91.4925
750.93        92.05154
751.35        91.85048
751.76        91.13402
752.18        90.96373
752.60        91.32655
753.01        91.46414
753.43        91.39984
753.85        91.17109
754.27        91.84946
754.68        92.32999
755.10        92.81886
755.52        93.30363
755.93        93.71616
756.35        93.95444
756.77        94.07129
757.18         94.1632
757.60        94.26872
758.02        94.64423
758.43        94.80495
758.85        94.70272
759.26        91.98646
759.68        92.12768
760.10        93.80646
760.51        95.79185
760.93        94.60754
761.34        92.99203
761.76        92.65401
762.18        91.66313
762.59        91.08485
763.01        91.39747
763.42        93.03194
763.84         94.1844
764.26        94.74268
764.67        94.93482
765.09        94.79788
765.50        94.91694
765.92        95.09221
766.33        93.60188
766.75         91.0539
767.16        90.62562
767.58        91.54073
768.00        93.11501
768.41        94.71482
768.83        96.70292
769.24        98.20488
769.66        97.50701
770.07        95.29237
770.49        93.23904
770.90        91.96027
771.32        93.06585
771.73         95.7131
772.15        95.12593
772.56        91.84544
772.97        91.19354
773.39        93.11742
773.80        93.88329
774.22        93.23714
774.63        93.44083
775.05        94.35938
775.46        94.81501
775.88        94.65505
776.29        94.20947
776.70        93.68609
777.12        93.46513
777.53        93.65855
777.95        94.08271
778.36        94.52333
778.77        94.59396
779.19        94.25045
779.60        93.65813
780.02        93.08203
780.43        92.92181
780.84        93.37703
781.26        94.01019
781.67        94.69188
782.09        96.01802
782.50        97.34614
782.91        96.18124
783.33        93.38015
783.74        92.44793
784.15        93.57271
784.57        94.58287
784.98        95.00371
785.39        94.88422
785.81        94.26712
786.22        93.66779
786.63         93.4211
787.04        93.53001
787.46        94.05498
787.87        95.17534
788.28        96.50582
788.70        97.17618
789.11        96.97332
789.52        96.29405
789.93        95.45862
790.35        94.75121
790.76        94.38521
791.17        94.65813
791.58        95.36921
792.00        95.68303
792.41        95.44195
792.82        95.38068
793.23        95.33051
793.65        95.03646
794.06        94.75713
794.47        96.26148
794.88         98.5412
795.29         98.4827
795.71        95.33241
796.12        92.82496
796.53         91.4497
796.94         90.7904
797.35        91.07109
797.76        92.69379
798.18        94.90632
798.59         96.2785
799.00        96.32465
799.41        95.34055
799.82        93.88705
800.23        92.96373
800.64        92.83651
801.06        93.09957
801.47        93.62049
801.88        94.07838
802.29         94.3225
802.70        94.48101
803.11         94.5602
803.52        94.52882
803.93        94.43091
804.34        94.24769
804.75          94.027
805.17        94.05763
805.58          94.453
805.99        94.52789
806.40        94.31493
806.81         95.3642
807.22        96.93088
807.63          95.651
808.04         92.2991
808.45        90.94341
808.86        91.88944
809.27        93.02267
809.68        93.82758
810.09        94.34138
810.50        94.33488
810.91        93.83149
811.32        93.16215
811.73        92.82955
812.14        92.95964
812.55        93.46181
812.96        94.18198
813.37        94.56082
813.78        94.58938
814.19        95.00699
814.60        95.54829
815.01        95.27876
815.42        94.16972
815.83        92.62186
816.24        91.19064
816.65        90.69112
817.05        91.39989
817.46        93.06107
817.87        94.97656
818.28        95.87793
818.69        95.41545
819.10        93.88654
819.51        92.06937
819.92        91.30947
820.33        91.95003
820.74         93.5396
821.14        95.30946
821.55        95.99457
821.96        95.27364
822.37        93.44085
822.78        91.28296
823.19        90.12492
823.60        90.27341
824.00        91.32384
824.41        92.73047
824.82        93.74282
825.23        94.01654
825.64        93.82001
826.04        93.38262
826.45        93.04296
826.86        92.90997
827.27        92.80761
827.68        92.75224
828.08          92.852
828.49        93.02755
828.90        93.36977
829.31        93.67734
829.72         93.5517
830.12        92.95737
830.53        92.01007
830.94        91.12486
831.35        90.87318
831.75        91.40927
832.16        92.51132
832.57        93.86532
832.97        94.81352
833.38        95.03761
833.79         94.7248
834.20        94.19619
834.60         93.9472
835.01         94.1327
835.42        94.58036
835.82        95.04718
836.23        95.03996
836.64        94.49879
837.04        93.63237
837.45        92.75024
837.86        92.32913
838.26        92.49864
838.67        93.05183
839.08        93.79424
839.48        94.36245
839.89        94.57023
840.29        94.55062
840.70        94.32942
841.11        93.92005
841.51        93.37753
841.92        92.66137
842.33        91.97437
842.73        91.67522
843.14        91.79493
843.54        92.30293
843.95        92.86369
844.35        92.97953
844.76        92.52104
845.17        91.65833
845.57        90.72144
845.98        90.23163
846.38        90.30754
846.79        90.76386
847.19         91.3802
847.60        91.65067
848.00        91.48115
848.41        91.02116
848.81        90.50577
849.22        90.20428
849.62        90.25543
850.03        90.56056
850.43        91.08824
850.84        91.65582
851.24        92.22273
851.65        92.60303
852.05        92.96795
852.46        93.39814
852.86        93.90225
853.27        94.50109
853.67        94.64001
854.07        93.61359
854.48        91.49799
854.88         88.5727
855.29        85.87008
855.69        84.87473
856.10        85.86208
856.50        88.65244
856.90        92.25724
857.31        94.37861
857.71        94.26789
858.12        92.51314
858.52        90.20181
858.92        88.81426
859.33        88.67024
859.73        89.36634
860.13        90.60574
860.54        91.75527
860.94        92.60566
861.34        93.31622
861.75        93.84827
862.15        94.22269
862.55        94.41406
862.96        94.30866
863.36        94.06268
863.76        93.92917
864.17        93.98685
864.57         94.2716
864.97        94.60508
865.38        94.67412
865.78        94.47514
866.18        94.02355
866.58        93.62017
866.99        93.75143
867.39        94.59308
867.79        96.03255
868.19        97.49158
868.60        97.88783
869.00        96.96867
869.40        95.02412
869.80        93.03519
870.21        92.54801
870.61        94.01644
871.01        96.96931
871.41        100.3433
871.81        102.3233
872.22        102.3709
872.62        101.0353
873.02        99.29467
873.42        98.66379
873.82        99.50396
874.22        101.4606
874.63        103.7846
875.03        104.8352
875.43        103.9445
875.83         101.745
876.23        99.88905
876.63        99.62913
877.03         101.554
877.44        106.0249
877.84        96.07755
878.24        113.9602
878.64        112.0426
879.04        107.1579
879.44        105.3478
879.84        104.2191
880.24        103.7496
880.64        105.1628
881.04        108.0801
881.44        110.0156
881.84        109.5982
882.24        107.6332
882.65        105.4489
883.05        104.7448
883.45        105.8231
883.85        108.1494
884.25        110.8015
884.65        112.1834
885.05        111.7892
885.45        110.2456
885.85        108.4975
886.25        107.8119
886.65         108.457
887.05        109.9727
887.45        111.8898
887.85        113.3664
888.25        114.0358
888.65        114.1927
889.04        113.8801
889.44        113.2133
889.84        112.3088
890.24        111.1131
890.64        109.9848
891.04        109.4981
891.44         109.733
891.84        110.5816
892.24        111.5894
892.64        111.8828
893.04         111.307
893.44        110.2473
893.83        109.1723
894.23        108.7932
894.63        109.2357
895.03        110.1814
895.43        111.5736
895.83        113.2834
896.23        115.0933
896.63         117.023
897.02        118.4418
897.42        118.3305
897.82        116.6291
898.22        113.7191
898.62        110.6992
899.01        109.1892
899.41        109.5481
899.81        111.2438
900.21        113.4626
900.61        114.8523
901.00        115.0033
901.40         114.358
901.80        113.3472
902.20        112.6407
902.59        112.4602
902.99        112.5379
903.39        112.7219
903.79        112.7896
904.18         112.665
904.58        112.5118
904.98        112.4043
905.38        112.4216
905.77        112.5471
906.17         112.707
906.57        112.8653
906.96        113.0348
907.36        113.1573
907.76         113.274
908.15        113.2576
908.55        112.7879
908.95        111.8892
909.34        110.6031
909.74        109.3995
910.14        108.8347
910.53        109.0737
910.93        110.0583
911.33        111.3173
911.72        111.9899
912.12        111.8078
912.52        110.9968
912.91        110.2401
913.31        110.4862
913.70        111.9391
914.10        114.4135
914.49        117.1392
914.89        117.9076
915.29        116.0409
915.68        112.3592
916.08        108.7345
916.47        106.9621
916.87        107.2633
917.26        109.0217
917.66        111.1805
918.05         112.032
918.45        111.1152
918.84        109.0839
919.24        106.9038
919.64        105.9469
920.03        106.5899
920.42        108.3361
920.82        110.5753
921.21        112.4332
921.61        113.3485
922.00        113.6096
922.40        113.3057
922.79        112.4679
923.19        111.2094
923.58        109.6781
923.98        108.1219
924.37        106.7061
924.77        105.7727
925.16          106.38
925.55        106.5608
925.95        108.0818
926.34        110.1803
926.74        112.6077
927.13        114.7784
927.52        115.6156
927.92        115.0568
928.31        113.3636
928.70        111.1419
929.10        109.4371
929.49        108.5365
929.89         108.216
930.28        108.4421
930.67        109.1264
931.07        110.0294
931.46        111.2538
931.85        112.3363
932.24        112.5851
932.64        111.9124
933.03        110.4309
933.42        108.4682
933.82        106.9101
934.21        106.0285
934.60          105.67
934.99        105.7394
935.39        105.9495
935.78        106.2494
936.17        107.0716
936.56        108.2324
936.96        107.3224
937.35         106.631
937.74        104.6844
938.13        103.2657
938.53        103.2682
938.92        104.6452
939.31        107.2312
939.70        110.1457
940.09        111.1706
940.49         109.562
940.88        106.2769
941.27        102.8275
941.66        100.9526
942.05         100.907
942.44        102.1443
942.84        104.0957
943.23        105.8871
943.62        107.0121
944.01        107.6543
944.40        108.0054
944.79        108.3833
945.18        108.8822
945.57        109.3661
945.97          109.36
946.36         108.199
946.75        106.0105
947.14         103.485
947.53        101.5177
947.92        100.8321
948.31        101.3847
948.70        102.9704
949.09        105.1424
949.48        106.7672
949.87        107.2587
950.26        106.8226
950.65        105.9069
951.04        105.2843
951.43        105.1554
951.82          105.23
952.21        105.2291
952.60        104.7564
952.99        103.7452
953.38        102.4514
953.77        101.1287
954.16        100.0586
954.55        99.35749
954.94        99.01105
955.33        98.92169
955.72        98.92947
956.11        98.99902
956.50        99.14253
956.89        99.61088
957.28        100.8003
957.66        102.7825
958.05        105.1598
958.44         107.303
958.83         108.326
959.22        108.0411
959.61        106.5953
960.00        104.6899
960.39        103.4941
960.78          103.32
961.16          103.98
961.55        104.5964
961.94         103.683
962.33        101.0522
962.72        97.41059
963.11        94.01785
963.49        92.48784
963.88         93.0854
964.27        95.39796
964.66        98.54129
965.04         100.545
965.43        100.4748
965.82        99.01049
966.21        97.11604
966.60        96.07697
966.98        96.15961
967.37        96.82682
967.76        97.70536
968.15        98.11959
968.53        97.83382
968.92        97.20229
969.31        96.36532
969.69        95.37699
970.08        94.36306
970.47        93.30151
970.86        92.48553
971.24        92.50252
971.63        93.45674
972.02        95.18123
972.40        97.35245
972.79        99.23441
973.17         100.623
973.56        101.4846
973.95        101.6744
974.33        100.9867
974.72        99.47336
975.11        97.25918
975.49         95.1456
975.88        94.26719
976.26        94.73541
976.65        96.43411
977.04         98.4397
977.42        98.43892
977.81        95.71452
978.19        91.22739
978.58        87.32124
978.96        86.45685
979.35         88.9632
979.74        94.27747
980.12        101.1895
980.51        105.5378
980.89        105.8913
981.28        103.4247
981.66        99.76888
982.05         97.0528
982.43        95.73775
982.82         95.1649
983.20        95.35677
983.59          96.548
983.97        98.76624
984.35        102.1743
984.74         105.885
985.12        108.1078
985.51        107.6192
985.89        104.7283
986.28         100.378
986.66        96.36404
987.04        93.72712
987.43        92.28202
987.81        91.66196
988.20        91.36501
988.58        91.21085
988.96        91.39315
989.35        92.37806
989.73        95.33036
990.12        99.57748
990.50        103.8796
990.88        106.4757
991.27        106.9566
991.65        105.7715
992.03        103.0431
992.42        99.77755
992.80        97.74303
993.18        97.63006
993.56        98.66236
993.95        99.81882
994.33        100.1232
994.71        99.39045
995.10        98.24968
995.48        96.89098
995.86        95.46992
996.24        94.12209
996.63        92.56332
997.01        91.51475
997.39        92.85931
997.77        97.00992
998.15        103.1208
998.54        108.6459
998.92         110.572
999.30        108.0199
999.68        101.8109
1000.06        93.23029
1000.45        85.88454
1000.83        81.71113
1001.21         79.9463
1001.59        80.28455
1001.97        82.31936
1002.35         85.7943
1002.73        91.55616
1003.12        98.15445
1003.50        100.7143
1003.88        96.77095
1004.26        88.38846
1004.64        80.21766
1005.02        76.52343
1005.40         77.7649
1005.78        83.82336
1006.16        94.99736
1006.54        104.8659
1006.92        106.8716
1007.30        104.0125
1007.69        100.6925
1008.07          99.701
1008.45        101.5465
1008.83        106.6211
1009.21        118.4582
1009.59          142.33
1009.97        172.5381
1010.35         170.874
1010.73        125.2412
1011.11        100.3131
1011.49        93.08473
1011.86          92.298
1012.24        93.37584
1012.62        95.32536
1013.00        98.29456
1013.38        102.8451
1013.76         110.947
1014.14        125.5433
1014.52        147.6499
1014.90        176.5556
1015.28        204.8732
1015.66         218.184
1016.04        207.0545
1016.41           172.7
1016.79        129.7681
1017.17        96.36885
1017.55        78.22037
1017.93         69.8312
1018.31        67.77004
1018.69        70.60179
1019.06        78.00168
1019.44        91.36703
1019.82        114.5246
1020.20        149.2667
1020.58        197.6545
1020.95        268.3274
1021.33        408.6415
1021.71        -1829.96
1022.09        -45.5669
1022.46        48.12469
1022.84        76.78935
1023.22        86.98417
1023.60        87.36761
1023.97        29.54933
1024.35         142.404
1024.73        142.5242
