SpectraSmart Spectrum 2.9.0.0
--------- Device Information -----------
Spectrum Name :  反射率_0
Saving Time :  2024/04/25 23:51:54
Spectro-Module Model Name : SE2030-DUVN
Spectro-Module Serial Number : OS361AC55029948
Wavelength Start : 200
Wavelength End : 1025
Wavelength Unit : Wavelength(nm)
Spectrum Unit : Reflectance(%)
-----------Spectrum Setting ------------
Integration Time : 20ms
Average : 10
Boxcar : 0
Background removal :  enabled
linearity correction :  enabled
SC :  disabled
Intensity correction :  disabled
DWT denoise :  enabled
savitzky-golay :  disabled
FFT :  disabled
Running average :  disabled
Kalman :  disabled
High pass :  disabled
---------------BEGIN--------------------
Wavelength(nm)             Reflectance(%)
200.29               0
200.75        95.91486
201.21        89.19949
201.67        80.08318
202.13        73.28199
202.58        69.67959
203.04        68.26231
203.50        68.38799
203.96        69.13677
204.42         69.9405
204.88        70.96497
205.34        72.13798
205.80        73.51712
206.26        75.42822
206.72        78.55502
207.18        83.13111
207.64        83.88911
208.10        75.50105
208.55        66.26044
209.01        61.29661
209.47        59.49343
209.93        59.30231
210.39        60.59061
210.85        62.24942
211.31        62.00758
211.77        59.44204
212.23         55.2846
212.69        52.26093
213.14        54.81127
213.60        63.21538
214.06        76.01155
214.52        89.09734
214.98        96.33611
215.44         96.3137
215.90        91.08592
216.36        83.78494
216.81        78.78763
217.27        77.43486
217.73        78.25304
218.19        79.19224
218.65        77.47242
219.11        72.00295
219.57        62.27244
220.02        49.46299
220.48        41.25985
220.94        42.23289
221.40        50.60305
221.86        59.07796
222.32        59.89729
222.77        53.81948
223.23          45.154
223.69        38.06245
224.15        36.80958
224.61        40.88581
225.06        48.06493
225.52        55.35897
225.98        59.05792
226.44        58.47655
226.90        55.26134
227.36        51.29622
227.81        49.09336
228.27        49.49373
228.73        51.29748
229.19        53.76734
229.65        55.83298
230.10        57.07985
230.56        58.03676
231.02        58.59021
231.48        58.54319
231.93        57.99615
232.39         57.0052
232.85         56.1336
233.31        56.37269
233.77        57.85609
234.22        60.33271
234.68        62.90736
235.14        63.77147
235.60        62.40468
236.05        59.41779
236.51        55.90867
236.97         53.3148
237.43        52.00745
237.88        51.76898
238.34        52.22536
238.80        52.61316
239.26        52.46956
239.71        52.09022
240.17        51.80981
240.63        52.65993
241.08        54.86773
241.54         57.9215
242.00        60.78793
242.46        62.11789
242.91        61.49393
243.37        57.45355
243.83        46.88939
244.28         35.3383
244.74        65.02648
245.20        100.3439
245.66        108.4545
246.11        111.9044
246.57        117.1918
247.03        130.1375
247.48        157.2928
247.94        114.0804
248.40         78.3998
248.85        70.27223
249.31        69.33224
249.77        71.62891
250.22        76.44951
250.68        84.94008
251.14        96.53709
251.59        102.2057
252.05          94.399
252.51        78.06497
252.96        62.01549
253.42        53.79808
253.88        52.65792
254.33        55.76044
254.79         62.0388
255.25        69.30017
255.70        75.79696
256.16         81.7346
256.62        85.42154
257.07        85.12074
257.53        81.90532
257.99        76.55739
258.44        71.09743
258.90         68.7893
259.35        68.77182
259.81        69.82572
260.27         70.0684
260.72        67.68954
261.18        63.44097
261.63        58.15213
262.09        53.32455
262.55        50.00277
263.00        48.14811
263.46        47.30148
263.91        46.71848
264.37        45.90794
264.83        44.67138
265.28        43.10873
265.74        41.58419
266.19        40.36734
266.65        39.66391
267.11        39.27843
267.56        38.93854
268.02         38.3206
268.47        37.32971
268.93        36.09484
269.38        34.80384
269.84        33.98088
270.30        33.74307
270.75        33.94703
271.21        34.27869
271.66         34.2735
272.12        33.81034
272.57        33.02078
273.03         32.1817
273.48        31.62879
273.94        31.46342
274.39        31.52412
274.85        31.60748
275.31        31.39956
275.76        30.83566
276.22        30.07368
276.67        29.27414
277.13        28.76311
277.58        28.54625
278.04        28.53928
278.49        28.55206
278.95        28.39131
279.40        27.98359
279.86        27.46418
280.31        26.88342
280.77        26.43129
281.22        26.10831
281.68        25.88369
282.13        25.71186
282.59        25.57636
283.04        25.44677
283.50        25.36147
283.95        25.25901
284.41        25.06876
284.86        24.77307
285.32        24.40372
285.77        24.05026
286.22         23.9143
286.68        23.99982
287.13        24.21753
287.59        24.40181
288.04          24.292
288.50        23.87645
288.95        23.24074
289.41        22.56651
289.86        22.01785
290.32        21.69991
290.77        21.53591
291.22        21.52793
291.68        21.64133
292.13        21.85011
292.59        22.16108
293.04        22.52661
293.50        22.87135
293.95        23.16205
294.40        23.38907
294.86        23.57118
295.31        23.75462
295.77        23.95969
296.22        24.18119
296.68        24.40097
297.13         24.5601
297.58        24.67091
298.04        24.77431
298.49        24.93949
298.95        25.30392
299.40        25.87424
299.85        26.59567
300.31        27.35601
300.76         27.9924
301.21         28.4389
301.67        28.75765
302.12        28.96278
302.58        29.13367
303.03        29.27921
303.48        29.38881
303.94         29.5208
304.39        29.73189
304.84        30.03246
305.30        30.40012
305.75        30.73129
306.20        30.87474
306.66        30.82655
307.11        30.62929
307.57        30.39991
308.02         30.2384
308.47        30.20469
308.93        30.26234
309.38        30.38891
309.83        30.58042
310.29        30.80445
310.74        31.04441
311.19        31.24704
311.65        31.32886
312.10        31.27299
312.55        31.10898
313.00           30.86
313.46        30.57984
313.91        30.29486
314.36        30.01528
314.82        29.80992
315.27        29.76458
315.72        29.89169
316.18        30.16039
316.63        30.47471
317.08        30.65047
317.53        30.63353
317.99        30.45731
318.44        30.22022
318.89        30.08805
319.35        30.09414
319.80        30.19668
320.25        30.28594
320.70        30.18456
321.16         29.8605
321.61        29.38231
322.06        28.88234
322.51        28.55509
322.97        28.43729
323.42        28.48191
323.87        28.57621
324.32        28.53183
324.78        28.29721
325.23         27.9378
325.68        27.55032
326.13        27.29553
326.59        27.21166
327.04        27.26301
327.49        27.37166
327.94        27.41497
328.39        27.35616
328.85        27.22499
329.30        27.09963
329.75        27.07001
330.20        27.16234
330.66        27.32215
331.11        27.51482
331.56        27.64367
332.01        27.67537
332.46        27.62167
332.92         27.5057
333.37        27.40498
333.82        27.33576
334.27        27.29922
334.72        27.24442
335.17        27.08723
335.63         26.8201
336.08         26.4807
336.53        26.19796
336.98        26.17686
337.43        26.44869
337.88        26.95137
338.34        27.47437
338.79        27.72034
339.24        27.58954
339.69        27.16404
340.14        26.65665
340.59        26.44333
341.05        26.61358
341.50        27.04718
341.95        27.54218
342.40        27.80611
342.85         27.7726
343.30        27.54723
343.75        27.23796
344.20        27.02894
344.66        26.97992
345.11        26.99092
345.56        27.03656
346.01        27.08086
346.46        27.09811
346.91        27.12686
347.36        27.08152
347.81        26.81664
348.26        26.34111
348.72        25.73535
349.17        25.16905
349.62         25.0003
350.07        25.29949
350.52        25.94211
350.97        26.71002
351.42        27.26723
351.87        27.51423
352.32        27.53836
352.77        27.41833
353.22        27.28874
353.67        27.19783
354.13        27.10083
354.58        26.98321
355.03        26.86678
355.48         26.7547
355.93        26.67018
356.38        26.58458
356.83        26.43688
357.28        26.21831
357.73        25.94107
358.18        25.66722
358.63        25.49477
359.08        25.44258
359.53         25.4877
359.98        25.54061
360.43        25.46152
360.88        25.22496
361.33        24.86861
361.78        24.51124
362.23        24.34659
362.68         24.4071
363.13        24.62019
363.58        24.84051
364.03        24.84228
364.48        24.57901
364.93        24.13542
365.38        23.62949
365.83        23.24921
366.28        23.05509
366.73        22.98565
367.18        23.00222
367.63        23.04321
368.08        23.06945
368.53         23.0954
368.98        23.08892
369.43         22.9917
369.88        22.80274
370.33        22.54773
370.78        22.26125
371.23        22.01142
371.68        21.82772
372.13         21.6865
372.58        21.63224
373.03        21.73086
373.48        21.96958
373.93        22.31944
374.38        22.63672
374.83         22.7016
375.28        22.47951
375.72        22.02775
376.17          21.529
376.62        21.24713
377.07        21.25487
377.52        21.46668
377.97         21.7662
378.42        21.96286
378.87        21.99227
379.32        21.91413
379.77        21.76945
380.22        21.61252
380.67        21.46513
381.11        21.30888
381.56        21.13745
382.01        20.95803
382.46        20.77721
382.91        20.60222
383.36        20.45546
383.81        20.36361
384.26          20.327
384.71        20.33683
385.15        20.34028
385.60        20.27275
386.05        20.11574
386.50        19.88558
386.95        19.64237
387.40        19.49627
387.85        19.47485
388.29        19.53214
388.74        19.61289
389.19        19.61285
389.64        19.51311
390.09        19.33758
390.54        19.14231
390.98        19.02023
391.43        19.00531
391.88        19.06184
392.33        19.12241
392.78        19.08786
393.23        18.95018
393.67        18.74078
394.12        18.55944
394.57        18.48139
395.02        18.52291
395.47        18.65048
395.91        18.81919
396.36        18.92316
396.81        18.93225
397.26        18.86093
397.71        18.74806
398.15        18.63518
398.60        18.56288
399.05        18.52336
399.50        18.47674
399.95        18.31343
400.39         18.1087
400.84        17.82962
401.29        17.58252
401.74         17.5218
402.18        17.69148
402.63        18.01839
403.08        18.38907
403.53        18.62005
403.97        18.66034
404.42        18.55947
404.87        18.38041
405.32        18.23669
405.76        18.16662
406.21        18.14012
406.66        18.13763
407.11        18.13903
407.55        18.13977
408.00        18.14659
408.45        18.15218
408.90        18.12693
409.34        18.06694
409.79        17.98324
410.24        17.90487
410.68        17.87297
411.13        17.89956
411.58        17.97297
412.03        18.07027
412.47        18.15399
412.92         18.1947
413.37        18.19921
413.81        18.18451
414.26        18.19556
414.71        18.23157
415.15        18.28461
415.60         18.3046
416.05        18.23073
416.49        18.05783
416.94        17.82402
417.39         17.5905
417.83        17.45954
418.28        17.46417
418.73        17.55813
419.17        17.70737
419.62         17.8553
420.07        17.97867
420.51        18.09552
420.96        18.16278
421.41        18.10868
421.85         17.9283
422.30        17.66916
422.74        17.41653
423.19        17.33208
423.64        17.42604
424.08        17.66688
424.53        17.94984
424.98        18.11628
425.42        18.12357
425.87        18.00779
426.31        17.84135
426.76        17.79181
427.21         17.8672
427.65        17.89545
428.10        17.91953
428.54        18.12045
428.99        18.48902
429.44        18.94134
429.88        19.29146
430.33        19.31066
430.77        18.97374
431.22        18.36082
431.66        17.72722
432.11        17.53158
432.56        17.81541
433.00        18.35477
433.45        18.90735
433.89        19.27695
434.34        19.31321
434.78        18.90946
435.23        18.38225
435.67        18.36131
436.12        18.79514
436.57        19.01712
437.01        18.93825
437.46        18.88738
437.90        18.89191
438.35        18.86086
438.79        18.79166
439.24          18.731
439.68        18.69968
440.13        18.61283
440.57        18.52668
441.02        18.78165
441.46         19.2367
441.91        19.19928
442.35        18.75274
442.80        18.59444
443.24        18.69737
443.69        18.78604
444.13        18.78708
444.58        18.58219
445.02        18.25446
445.47        18.21288
445.91        18.40362
446.36        18.40729
446.80        18.20389
447.24        18.04037
447.69        17.97334
448.13         17.9704
448.58        18.04415
449.02        18.19268
449.47        18.35194
449.91        18.41629
450.36        18.36561
450.80        18.22741
451.25        18.06796
451.69        17.97969
452.13         17.9921
452.58        18.06697
453.02        18.17154
453.47        18.25426
453.91        18.30054
454.36        18.33187
454.80        18.34693
455.24        18.33832
455.69        18.31689
456.13        18.27046
456.58         18.2418
457.02        18.27005
457.46         18.3682
457.91        18.51724
458.35        18.66715
458.79        18.73331
459.24        18.70972
459.68        18.60845
460.13        18.49894
460.57        18.44469
461.01        18.47997
461.46        18.57689
461.90        18.69524
462.34        18.76608
462.79         18.7664
463.23        18.70943
463.68        18.64616
464.12        18.66653
464.56        18.78887
465.01        18.99716
465.45        19.17386
465.89        19.21774
466.34        19.12753
466.78        18.83224
467.22        18.49695
467.67        18.57442
468.11        19.01227
468.55        19.24275
468.99         19.1906
469.44        19.12646
469.88        19.11453
470.32        19.22678
470.77        19.41897
471.21        19.47801
471.65         19.3855
472.10        19.32055
472.54        19.31694
472.98        19.36135
473.42        19.46272
473.87        19.63198
474.31        19.80986
474.75        19.89991
475.20        19.88915
475.64         19.7936
476.08        19.68372
476.52        19.66817
476.97        19.77094
477.41        19.96384
477.85         20.1668
478.29        20.28741
478.74        20.30534
479.18        20.15399
479.62        19.92408
480.06        20.08995
480.50        20.26047
480.95        20.46361
481.39        20.51016
481.83        20.53547
482.27        20.52871
482.72        20.32529
483.16        20.03963
483.60        20.10992
484.04        20.53559
484.48        20.77272
484.93        21.05998
485.37        21.44456
485.81        21.81405
486.25        22.21308
486.69        29.19813
487.14        23.26856
487.58        15.20178
488.02        18.73018
488.46        21.13061
488.90        21.19702
489.34        21.62954
489.79        21.53177
490.23        22.52361
490.67        23.09616
491.11        23.00075
491.55        22.87616
491.99        22.68135
492.43        22.47076
492.88        22.33394
493.32        22.40702
493.76         22.5284
494.20        22.77839
494.64        23.07269
495.08        23.44628
495.52        23.85574
495.96        24.12835
496.41        24.24804
496.85        24.49059
497.29        24.80271
497.73        24.59313
498.17        24.13938
498.61        24.23205
499.05        24.90907
499.49        24.99842
499.93        25.12216
500.37        25.31444
500.82        25.47121
501.26        25.79091
501.70         26.1294
502.14        26.28638
502.58        26.24719
503.02        26.24157
503.46        26.28649
503.90        26.23902
504.34        26.13595
504.78        26.10432
505.22        26.16205
505.66        26.28566
506.10         26.4318
506.54        26.51625
506.98        26.52055
507.42        26.48362
507.86        26.46758
508.30        26.51644
508.74        26.72673
509.18        26.99294
509.62        27.27812
510.06        27.48123
510.50         27.5747
510.94        27.59458
511.38        27.56779
511.82        27.53895
512.26        27.52855
512.70        27.51851
513.14        27.53276
513.58        27.61219
514.02        27.74829
514.46        27.92451
514.90        28.08198
515.34        28.09256
515.78        27.91149
516.22        27.72081
516.66        27.59682
517.10        27.25241
517.54        26.71343
517.98        27.44388
518.42        27.27549
518.86        27.59802
519.30        27.74689
519.74        27.93198
520.18        28.10671
520.62        28.16884
521.06        28.12991
521.50        27.99527
521.93        27.82533
522.37        27.73083
522.81        27.73837
523.25        27.81865
523.69        27.92608
524.13        27.98774
524.57        27.98299
525.01        27.93465
525.45        27.86606
525.89        27.81445
526.32        27.78732
526.76        27.76959
527.20        27.74385
527.64        27.69438
528.08        27.62255
528.52        27.51323
528.96        27.36973
529.40        27.27132
529.83        27.24062
530.27        26.98148
530.71         27.0241
531.15         26.9331
531.59        26.86937
532.03        26.81864
532.46        26.81218
532.90         26.8942
533.34        27.05262
533.78        27.26279
534.22        27.45481
534.66        27.53009
535.09        27.46401
535.53        27.29676
535.97        27.08003
536.41        26.90486
536.85        26.80471
537.28        26.76313
537.72        26.75927
538.16        26.75936
538.60        26.75428
539.04        26.73689
539.47        26.73057
539.91        26.83626
540.35        27.02789
540.79        27.17866
541.22        27.26454
541.66         27.3598
542.10        27.45642
542.54        27.49096
542.97        27.50471
543.41        27.60919
543.85        27.81409
544.29        28.10194
544.72        28.38391
545.16        28.53252
545.60        28.52565
546.04        28.40027
546.47        28.29175
546.91         28.4251
547.35        28.82605
547.79        29.42406
548.22        30.03187
548.66        30.33415
549.10        30.28453
549.53        30.03049
549.97        29.75303
550.41        29.65817
550.84        29.81501
551.28        30.17112
551.72        30.63746
552.15        31.04905
552.59        31.34011
553.03        31.55481
553.46        31.70543
553.90        31.83766
554.34        31.97268
554.77        32.06121
555.21        32.10147
555.65        32.19329
556.08        32.35827
556.52        32.18745
556.96        32.44838
557.39        32.52791
557.83         32.6645
558.27        32.87892
558.70         33.1465
559.14        33.32064
559.57        33.40029
560.01        33.56973
560.45        33.78852
560.88        33.85633
561.32        33.79053
561.75        33.69917
562.19        33.64981
562.63        33.60185
563.06         33.5973
563.50         33.7784
563.93         34.0746
564.37        34.26641
564.80        34.31575
565.24        34.34125
565.68        34.37271
566.11        34.42335
566.55        34.53068
566.98        34.67801
567.42        34.86644
567.85        35.09054
568.29        35.36687
568.72        35.59298
569.16        35.81382
569.60        36.22769
570.03        36.67342
570.47        36.72791
570.90        36.54604
571.34        36.18891
571.77          36.608
572.21        36.82742
572.64        36.92716
573.08         36.3054
573.51        35.10125
573.95        36.58261
574.38         38.9654
574.82        37.95655
575.25        37.62378
575.69           36.41
576.12        35.85873
576.56          35.687
576.99        36.59275
577.42        38.47152
577.86        37.96026
578.29         37.8507
578.73         39.8524
579.16        36.66424
579.60        33.38089
580.03        34.78642
580.47        37.27996
580.90        37.78646
581.33        37.13288
581.77        36.83847
582.20        39.92553
582.64         39.5746
583.07        33.77357
583.51        33.04833
583.94        32.30606
584.37        33.62647
584.81        35.23279
585.24        37.04917
585.68        37.93361
586.11         37.0001
586.54        34.42654
586.98        33.46631
587.41        33.66996
587.85        35.53091
588.28        36.27806
588.71        34.73405
589.15        33.49849
589.58        34.16494
590.01        34.39084
590.45        35.07332
590.88        35.22481
591.31        34.85582
591.75        34.70355
592.18        34.89127
592.61        35.83205
593.05         36.2197
593.48        37.76285
593.91        37.90988
594.35        35.00243
594.78        34.22561
595.21        34.25326
595.65        35.93546
596.08         37.4738
596.51        36.21416
596.94        35.36309
597.38        35.96766
597.81        37.74122
598.24        38.70292
598.68        38.23934
599.11        38.02311
599.54        39.78642
599.97         40.9439
600.41        38.63168
600.84         39.0782
601.27        40.15831
601.70        40.03488
602.14        40.30396
602.57        40.12695
603.00        40.87714
603.43        42.21886
603.87        43.58353
604.30        43.76846
604.73        42.93441
605.16        42.53648
605.60        43.59158
606.03        44.73332
606.46        45.78777
606.89        45.94443
607.32         45.0036
607.76        45.52814
608.19        47.17733
608.62        46.90247
609.05        46.41595
609.48        47.12128
609.92        47.49755
610.35        47.37939
610.78        49.57296
611.21        50.32845
611.64        48.50792
612.07        49.32937
612.50          49.922
612.94        50.54655
613.37         50.4503
613.80        50.68874
614.23        51.32117
614.66        51.52814
615.09        52.03714
615.52        52.38623
615.96        52.66113
616.39        53.03028
616.82         52.5705
617.25        52.80223
617.68        53.50449
618.11        54.19946
618.54         54.6841
618.97        54.44615
619.40        53.80701
619.84        54.01094
620.27        55.01534
620.70        55.74258
621.13        56.03493
621.56        55.86382
621.99         55.4251
622.42        56.14624
622.85         57.6716
623.28        57.19646
623.71        56.97232
624.14        56.81543
624.57        56.90766
625.00        56.45631
625.43        56.78586
625.86        56.26218
626.29        56.37112
626.72        56.56071
627.15        56.30385
627.58        56.11001
628.01        56.10312
628.44        55.90982
628.87         55.7074
629.30        55.65387
629.73        55.64531
630.16        55.86773
630.59        55.17106
631.02        54.70929
631.45         54.2261
631.88        53.67699
632.31        53.06461
632.74         52.7832
633.17        52.18467
633.60        51.80302
634.03        51.44164
634.46        51.12281
634.89        50.80679
635.32        50.43913
635.75        50.01382
636.18        49.53573
636.61         49.0475
637.04        48.61737
637.47        48.25563
637.89        47.94396
638.32        47.62964
638.75        47.26029
639.18         46.8303
639.61        46.37469
640.04        45.92774
640.47        45.53374
640.90        45.20932
641.33        44.93637
641.76        44.70657
642.18        44.57247
642.61        44.52848
643.04        44.45928
643.47           44.31
643.90        44.56643
644.33        44.29975
644.76         44.2681
645.18        44.21689
645.61        44.19861
646.04        44.21492
646.47        44.24833
646.90        44.34743
647.33        44.55373
647.75        44.88558
648.18        45.36534
648.61        45.85017
649.04        46.12016
649.47        46.15209
649.89        45.89958
650.32        45.67531
650.75        46.12811
651.18        47.21506
651.61        48.32316
652.03        49.15681
652.46         49.5855
652.89        49.83598
653.32        49.84628
653.74        49.98672
654.17        51.17005
654.60        52.25837
655.03        51.19806
655.46        52.44907
655.88        55.54174
656.31        59.75479
656.74        135.4392
657.16        87.65421
657.59        30.83681
658.02        23.84619
658.45        41.85718
658.87         53.8429
659.30        57.01614
659.73        56.46717
660.15        55.15738
660.58        57.40341
661.01        59.25104
661.44        57.74447
661.86        57.38678
662.29        57.59513
662.72        58.59726
663.14        60.16518
663.57         60.4253
664.00        59.58818
664.42        59.60958
664.85        60.57452
665.27        61.24636
665.70        61.43414
666.13        61.53528
666.55        61.53502
666.98        61.32283
667.41        61.06281
667.83        61.06431
668.26        61.39621
668.69        61.94843
669.11        62.51459
669.54        63.04238
669.96        62.87164
670.39        62.61465
670.82        62.32953
671.24        62.21125
671.67        62.70983
672.09        63.35633
672.52        63.96938
672.94        64.58519
673.37        64.08813
673.80        63.96867
674.22         64.0022
674.65        64.05073
675.07        64.12335
675.50        64.20714
675.92        64.33549
676.35        64.58603
676.77        64.94875
677.20        65.36189
677.62        65.77083
678.05         65.9936
678.47        65.97694
678.90        66.14188
679.32        65.93922
679.75        65.90832
680.17        66.14323
680.60        66.45701
681.02        66.81068
681.45        66.85183
681.87        66.60929
682.30        66.51118
682.72        66.61385
683.15        66.55222
683.57        66.46793
684.00        66.89492
684.42        67.82488
684.85        68.26769
685.27        68.17581
685.70         67.9666
686.12        67.76338
686.54        67.67113
686.97        67.74456
687.39        67.94138
687.82         68.1719
688.24        68.40892
688.66        68.61579
689.09        68.55357
689.51        68.75644
689.94        68.88007
690.36        69.08376
690.78        69.36195
691.21        69.69634
691.63         69.7952
692.06        70.10159
692.48        70.17213
692.90        70.19067
693.33        70.26597
693.75        70.42323
694.17        70.61076
694.60        70.79337
695.02        70.94989
695.44        71.04016
695.87        71.17955
696.29        71.38618
696.71        71.36702
697.14        71.27248
697.56        71.80518
697.98        72.67168
698.41        73.01542
698.83        72.08568
699.25         71.7961
699.68        71.97375
700.10        72.00154
700.52        71.88966
700.94        72.02211
701.37        72.37582
701.79        72.82853
702.21        73.19524
702.64        73.61131
703.06         73.9411
703.48        74.01295
703.90        73.82227
704.33        73.43122
704.75        72.97971
705.17        72.78333
705.59        72.92652
706.01        73.20115
706.44        73.49399
706.86        74.23476
707.28        74.36613
707.70        74.74091
708.12        75.00977
708.55        74.97427
708.97        74.67738
709.39        74.44148
709.81         74.3637
710.23        74.33111
710.66        74.38029
711.08        74.67992
711.50        75.07993
711.92        75.26697
712.34        75.18843
712.76         74.9176
713.19         74.6452
713.61        74.71292
714.03        75.16789
714.45        75.89324
714.87        76.61134
715.29        76.88848
715.71        76.63667
716.13        76.00311
716.56        75.26189
716.98        74.88693
717.40        74.99522
717.82        75.44592
718.24        76.03851
718.66        76.40317
719.08        76.42694
719.50         76.3056
719.92        76.12932
720.34        75.87652
720.76        75.69321
721.19        75.79854
721.61         76.3364
722.03        76.64472
722.45        76.72855
722.87        76.85841
723.29        77.04362
723.71        77.16754
724.13        77.22726
724.55        77.24146
724.97        77.23987
725.39        77.28171
725.81         77.3784
726.23        77.51355
726.65        77.64645
727.07        77.70934
727.49        77.69507
727.91        77.63728
728.33        77.57973
728.75        77.59568
729.17        77.70309
729.59        77.86452
730.01        78.07077
730.43        78.31433
730.85        78.58508
731.27        78.88348
731.69        79.12002
732.10         79.2848
732.52          79.109
732.94        78.86369
733.36        78.63103
733.78        78.60983
734.20        78.86077
734.62        79.51709
735.04        80.25171
735.46        80.65862
735.88         79.5722
736.30        79.84821
736.72        81.07042
737.13        81.81857
737.55        81.71006
737.97        81.67677
738.39        81.78765
738.81        80.90383
739.23        79.60275
739.65        80.62179
740.06        83.34267
740.48        83.72556
740.90        81.85623
741.32        80.89676
741.74         81.4302
742.16        81.66937
742.57        81.75394
742.99        82.58469
743.41        83.88783
743.83        84.63754
744.25        84.69495
744.67        84.46981
745.08        84.19888
745.50        84.11903
745.92        84.34816
746.34        84.82733
746.75        85.39658
747.17        85.73489
747.59        85.78955
748.01        85.70658
748.42        85.63744
748.84        85.73857
749.26        86.11763
749.68        86.76202
750.09        87.51681
750.51        88.19466
750.93        88.61414
751.35        88.36145
751.76        87.65392
752.18        87.45464
752.60        87.73949
753.01        87.75356
753.43        87.57793
753.85        87.70396
754.27        88.11964
754.68         89.4365
755.10        90.18252
755.52        90.50784
755.93        90.15672
756.35        90.23022
756.77         90.8485
757.18        91.07745
757.60         90.9552
758.02        91.60446
758.43        92.53057
758.85        91.62624
759.26        89.69182
759.68        88.65884
760.10        90.58553
760.51        91.59653
760.93        91.88755
761.34        89.96275
761.76        89.95613
762.18        88.86096
762.59        88.22397
763.01        88.66743
763.42        90.09945
763.84        91.23607
764.26        91.73893
764.67        91.68646
765.09        91.21387
765.50        91.14244
765.92        91.32324
766.33        90.15344
766.75        88.13792
767.16         87.7892
767.58        88.49801
768.00        90.35273
768.41        92.67996
768.83        94.29642
769.24        94.92886
769.66        94.14116
770.07        92.61798
770.49        90.73234
770.90        89.08729
771.32        89.94178
771.73        92.51765
772.15        91.93735
772.56        88.73038
772.97        88.09795
773.39        89.98085
773.80        90.80542
774.22        90.28695
774.63        90.46704
775.05        91.23591
775.46        91.62558
775.88        91.50336
776.29        91.09229
776.70         90.5726
777.12        90.32275
777.53        90.44837
777.95         90.7731
778.36        91.11201
778.77        91.13792
779.19        90.82423
779.60        90.29383
780.02        89.78467
780.43         89.7423
780.84        90.32787
781.26        90.90894
781.67        91.41415
782.09        92.81738
782.50        94.43577
782.91        93.36427
783.33        90.48862
783.74        89.58804
784.15        90.84527
784.57        92.09436
784.98        92.75587
785.39        92.40371
785.81        91.23398
786.22        90.62399
786.63        90.82274
787.04        91.01376
787.46        91.22981
787.87        92.10704
788.28        93.35002
788.70        93.96532
789.11        93.78647
789.52        93.31548
789.93        92.74728
790.35        91.93669
790.76        91.17915
791.17        91.30162
791.58        92.15996
792.00        92.62746
792.41        92.54051
792.82        92.59798
793.23        92.86256
793.65        92.61736
794.06        92.25208
794.47          93.337
794.88        94.92931
795.29        95.54977
795.71        92.02016
796.12        89.89456
796.53        88.83649
796.94        88.43409
797.35        88.79317
797.76        90.15037
798.18         91.8912
798.59        92.97631
799.00        93.00987
799.41        92.10266
799.82        90.76657
800.23        89.99138
800.64        90.01437
801.06        90.44082
801.47         91.1265
801.88        91.71858
802.29        92.06169
802.70        92.29445
803.11        92.42297
803.52        92.42485
803.93        92.33801
804.34        92.12322
804.75        91.88166
805.17        91.92519
805.58        92.35777
805.99         92.6908
806.40        92.80147
806.81        93.48946
807.22        94.20881
807.63         92.7678
808.04        89.90596
808.45        88.71155
808.86         89.4585
809.27        90.60616
809.68        91.64884
810.09        92.32053
810.50        92.36133
810.91        91.88437
811.32        91.17927
811.73        90.70815
812.14        90.60877
812.55        90.71708
812.96        91.00939
813.37        91.36867
813.78        91.75404
814.19        92.39422
814.60        92.97042
815.01        92.84196
815.42        91.95851
815.83        90.50977
816.24        89.06245
816.65        88.58292
817.05         89.3567
817.46        91.05426
817.87        92.98566
818.28        93.90814
818.69        93.47494
819.10        92.00701
819.51        90.19271
819.92         89.2513
820.33        89.52744
820.74        90.51772
821.14        91.67362
821.55        92.35028
821.96        92.16746
822.37        90.72268
822.78        88.69135
823.19        87.72282
823.60        88.07964
824.00        89.08873
824.41        90.23833
824.82        91.02814
825.23          91.174
825.64        90.86929
826.04        90.35268
826.45        89.97515
826.86        89.84625
827.27        89.82018
827.68        89.88047
828.08        90.05774
828.49        90.25802
828.90        90.57428
829.31        90.87384
829.72        90.88512
830.12        90.58143
830.53        90.01435
830.94        89.46641
831.35        89.32871
831.75        89.72327
832.16        90.48339
832.57        91.39834
832.97        92.01505
833.38        92.10117
833.79        91.79192
834.20        91.34676
834.60        91.15656
835.01        91.34316
835.42        91.77921
835.82        92.22518
836.23        92.19004
836.64        91.61849
837.04        90.69911
837.45        89.77621
837.86        89.39213
838.26        89.68171
838.67        90.42475
839.08        91.34683
839.48        91.94427
839.89        92.00124
840.29        91.69646
840.70         91.1637
841.11        90.57829
841.51        90.03733
841.92        89.46471
842.33        88.97385
842.73        88.77647
843.14        88.86107
843.54        89.22495
843.95         89.6369
844.35        89.76642
844.76        89.51584
845.17        89.00361
845.57        88.39472
845.98        87.96558
846.38        87.79334
846.79        87.75903
847.19         87.8546
847.60        87.95838
848.00        88.06144
848.41        88.17887
848.81        88.28579
849.22        88.25701
849.62        88.14828
850.03        88.00143
850.43        87.96083
850.84        88.17437
851.24        88.73174
851.65        89.34431
852.05        90.13902
852.46        91.12303
852.86         92.2195
853.27        93.44508
853.67        94.10353
854.07        93.27557
854.48        91.01534
854.88        87.66675
855.29        84.42677
855.69        83.03461
856.10        83.84008
856.50        86.61794
856.90         90.3116
857.31        92.46172
857.71        92.25766
858.12        90.34907
858.52        87.90574
858.92        86.50304
859.33        86.47424
859.73        87.37954
860.13        88.82894
860.54         90.0127
860.94        90.66498
861.34        91.00792
861.75        91.15356
862.15         91.3578
862.55        91.65845
862.96        91.87868
863.36        92.05705
863.76        92.24039
864.17        92.42937
864.57        92.71341
864.97        92.97179
865.38        92.98309
865.78        92.77277
866.18        92.32012
866.58        91.90405
866.99        91.98244
867.39        92.72637
867.79        94.05576
868.19        95.41837
868.60        95.76587
869.00        94.86314
869.40         92.9931
869.80        91.14135
870.21        90.86488
870.61        92.59915
871.01        95.84585
871.41        99.49358
871.81        101.6482
872.22        101.7482
872.62        100.3725
873.02        98.50297
873.42        97.67379
873.82        98.25456
874.22        99.82983
874.63        101.7439
875.03        102.6125
875.43        101.8481
875.83        100.0938
876.23        98.50894
876.63        98.21754
877.03        99.67705
877.44        103.1873
877.84        97.33577
878.24         110.182
878.64        109.0703
879.04        105.4934
879.44        104.2786
879.84        103.8757
880.24        103.9323
880.64        105.6678
881.04        108.8485
881.44        110.7097
881.84        109.7993
882.24         107.064
882.65        104.1328
883.05        103.0095
883.45        104.0267
883.85        106.6228
884.25        109.7854
884.65        111.6714
885.05        111.6242
885.45        110.2798
885.85        108.5522
886.25        107.6723
886.65        107.9268
887.05        108.8909
887.45         110.126
887.85        110.8789
888.25        110.8908
888.65        110.4931
889.04        109.9116
889.44        109.5115
889.84        109.3895
890.24          109.34
890.64        109.4185
891.04        109.7568
891.44        110.3111
891.84        111.0854
892.24        111.7024
892.64        111.4634
893.04        110.3469
893.44        108.7356
893.83        107.2257
894.23        106.6939
894.63        107.2813
895.03        108.6409
895.43        110.6015
895.83        112.7858
896.23        114.8646
896.63        116.8914
897.02        118.2486
897.42        117.9679
897.82        116.0384
898.22        112.8457
898.62        109.5462
899.01        107.8529
899.41          108.14
899.81        109.8424
900.21         112.155
900.61        113.7232
901.00        114.1103
901.40        113.7614
901.80        112.9757
902.20        112.2196
902.59         111.695
902.99        111.1927
903.39        110.7949
903.79        110.6859
904.18         110.894
904.58        111.4656
904.98        112.2101
905.38        112.7873
905.77        113.0707
906.17         113.099
906.57        113.0207
906.96        113.1377
907.36        113.4397
907.76        113.8394
908.15        114.0611
908.55        113.5489
908.95        112.2789
909.34        110.4273
909.74         108.552
910.14        107.3257
910.53        106.9821
910.93        107.4239
911.33        108.3426
911.72        109.1505
912.12        109.5691
912.52        109.6905
912.91        109.8418
913.31         110.543
913.70        111.9452
914.10        113.9323
914.49        115.9745
914.89         116.499
915.29        115.0493
915.68        112.1689
916.08        109.3491
916.47        107.9641
916.87        108.2045
917.26         109.644
917.66        111.3424
918.05        111.7894
918.45        110.6153
918.84        108.3761
919.24        106.1166
919.64        105.3444
920.03        106.4288
920.42        108.8764
920.82        111.7836
921.21        113.7185
921.61        114.0365
922.00        113.2527
922.40        111.9107
922.79        110.6708
923.19        109.7529
923.58        109.0704
923.98        108.6377
924.37        108.0618
924.77        107.3723
925.16        108.1367
925.55        107.8335
925.95        108.7263
926.34        109.9849
926.74        111.3616
927.13        112.5902
927.52        113.0817
927.92        112.8345
928.31        112.0054
928.70        110.8007
929.10        109.5833
929.49        108.4772
929.89        107.4517
930.28        106.8402
930.67        107.1894
931.07        108.4245
931.46        110.4121
931.85        112.3983
932.24        113.2634
932.64        112.7902
933.03        111.2447
933.42         109.022
933.82        107.1421
934.21        105.9832
934.60         105.355
934.99        105.2378
935.39        105.4526
935.78        105.9554
936.17        107.1903
936.56        108.9239
936.96        108.2368
937.35        107.4978
937.74        105.1585
938.13        103.3166
938.53        103.0362
938.92        104.2741
939.31        106.8207
939.70        109.7554
940.09        110.7783
940.49        109.1289
940.88        105.7958
941.27        102.3782
941.66         100.735
942.05         101.103
942.44        102.8528
942.84        105.2694
943.23        107.2114
943.62        108.0996
944.01        108.2489
944.40        107.9273
944.79        107.5456
945.18        107.2455
945.57        106.8275
945.97        106.1171
946.36        105.0634
946.75        103.8475
947.14        102.7916
947.53         102.148
947.92         102.042
948.31        102.4315
948.70        103.2751
949.09        104.4247
949.48        105.4547
949.87        106.1076
950.26        106.4109
950.65        106.4859
951.04        106.6063
951.43        106.8321
951.82        107.0033
952.21        107.0248
952.60        106.7989
952.99        106.2868
953.38        105.5667
953.77        104.6624
954.16        103.5384
954.55        102.2689
954.94         101.008
955.33        99.83054
955.72        98.83642
956.11        98.13131
956.50        97.69657
956.89        97.88311
957.28        99.24996
957.66        101.8305
958.05        105.0908
958.44        108.1831
958.83        109.8945
959.22        109.9525
959.61        108.6358
960.00        106.5444
960.39        104.7156
960.78        103.5211
961.16        102.7803
961.55        102.2137
961.94        101.3731
962.33         100.202
962.72        99.01048
963.11         98.0679
963.49        97.64615
963.88         97.7595
964.27        98.28887
964.66        99.02946
965.04        99.59808
965.43        99.69032
965.82        99.45683
966.21        99.09841
966.60        98.90699
966.98        98.96384
967.37          99.118
967.76        99.25768
968.15        99.17475
968.53        98.81165
968.92        98.23664
969.31        97.59752
969.69        97.02475
970.08        96.57625
970.47         96.2559
970.86        95.94785
971.24        95.47514
971.63        94.78352
972.02        93.91982
972.40        93.25661
972.79         93.3744
973.17        94.52445
973.56        96.38986
973.95        98.36172
974.33        99.21869
974.72        98.55587
975.11        96.80515
975.49        94.77431
975.88        93.61269
976.26        93.51529
976.65        94.22873
977.04        95.25613
977.42        95.36899
977.81        94.11257
978.19        91.97215
978.58        90.37299
978.96        90.71226
979.35        93.18333
979.74        97.50436
980.12        102.7569
980.51        105.6225
980.89        105.1883
981.28        102.3707
981.66        98.80753
982.05        96.60895
982.43        96.09386
982.82         96.6284
983.20        97.80707
983.59        99.17287
983.97        100.6062
984.35        102.3135
984.74        103.8921
985.12        104.8772
985.51         104.702
985.89        103.4074
986.28        101.2301
986.66        98.61718
987.04        96.21809
987.43        94.32957
987.81        93.02765
988.20        92.32513
988.58        92.16404
988.96        92.51974
989.35        93.88488
989.73        97.43748
990.12        102.1983
990.50        106.8446
990.88        109.3104
991.27        108.8584
991.65         105.989
992.03        101.0155
992.42        95.36758
992.80        91.82582
993.18        91.48575
993.56        93.08421
993.95         95.3429
994.33        97.10684
994.71        97.98553
995.10        98.56921
995.48        98.68832
995.86        97.89642
996.24        96.16852
996.63        93.30333
997.01        90.16783
997.39        89.30688
997.77        91.72873
998.15        96.69102
998.54        101.9365
998.92        104.6356
999.30         103.894
999.68         100.637
1000.06        95.63259
1000.45        91.04234
1000.83        88.05355
1001.21        86.06086
1001.59        85.57244
1001.97        87.29635
1002.35         91.2024
1002.73        97.97022
1003.12        105.5198
1003.50        107.3759
1003.88        100.6427
1004.26        88.57158
1004.64        77.23518
1005.02        71.76078
1005.40        72.51727
1005.78        79.19325
1006.16        92.35075
1006.54         104.901
1006.92        108.7451
1007.30        106.7635
1007.69          103.72
1008.07        102.8965
1008.45        104.9915
1008.83        110.0859
1009.21        121.6864
1009.59         145.748
1009.97        178.1616
1010.35        182.4891
1010.73        134.9911
1011.11         100.594
1011.49        85.23611
1011.86        79.45754
1012.24         77.9262
1012.62         79.2983
1013.00        83.09692
1013.38        89.38749
1013.76        100.2074
1014.14        117.9291
1014.52        142.9063
1014.90        174.9472
1015.28         205.887
1015.66        220.1853
1016.04        207.9507
1016.41        169.3689
1016.79        123.4634
1017.17        92.87047
1017.55        80.42323
1017.93        77.93874
1018.31        79.59998
1018.69        81.98878
1019.06        84.85809
1019.44        88.90053
1019.82        96.85613
1020.20        114.2431
1020.58        149.3318
1020.95        218.2085
1021.33         372.439
1021.71       -1788.035
1022.09       -37.49062
1022.46        62.17184
1022.84         96.3846
1023.22        112.1255
1023.60        123.3788
1023.97        172.9111
1024.35        100.8264
1024.73        115.5959
