SpectraSmart Spectrum 2.9.0.0
--------- Device Information -----------
Spectrum Name :  反射率_0
Saving Time :  2024/04/25 23:15:55
Spectro-Module Model Name : SE2030-DUVN
Spectro-Module Serial Number : OS361AC55029948
Wavelength Start : 200
Wavelength End : 1025
Wavelength Unit : Wavelength(nm)
Spectrum Unit : Reflectance(%)
-----------Spectrum Setting ------------
Integration Time : 20ms
Average : 10
Boxcar : 0
Background removal :  enabled
linearity correction :  enabled
SC :  disabled
Intensity correction :  disabled
DWT denoise :  enabled
savitzky-golay :  disabled
FFT :  disabled
Running average :  disabled
Kalman :  disabled
High pass :  disabled
---------------BEGIN--------------------
Wavelength(nm)             Reflectance(%)
200.29               0
200.75          99.812
201.21        89.49447
201.67        77.91823
202.13        71.34299
202.58        70.50444
203.04        74.03788
203.50        79.32359
203.96         81.7978
204.42        80.47773
204.88        77.21057
205.34        74.27657
205.80        74.05562
206.26        77.58024
206.72        86.89465
207.18        105.7137
207.64        122.4614
208.10        111.7947
208.55        89.36962
209.01        75.25785
209.47        70.75022
209.93        71.84784
210.39        76.59451
210.85         82.0267
211.31        82.01051
211.77        74.92436
212.23        63.31462
212.69          52.302
213.14        49.69085
213.60        56.65015
214.06        70.74416
214.52        86.75552
214.98        96.63397
215.44        98.23195
215.90        94.24474
216.36        87.69251
216.81          82.712
217.27        80.86537
217.73        80.73309
218.19        80.97279
218.65        79.92504
219.11        76.85107
219.57        71.38757
220.02        64.52048
220.48        61.43353
220.94        64.37754
221.40        71.80683
221.86         77.4682
222.32         75.0993
222.77        66.21688
223.23        55.22403
223.69        46.58937
224.15        44.94772
224.61        49.61482
225.06        58.03942
225.52        67.00663
225.98        72.39659
226.44        73.29656
226.90        71.38095
227.36        68.28119
227.81         66.1729
228.27        65.95467
228.73        66.57913
229.19        67.72375
229.65        68.99504
230.10        70.05286
230.56        71.15543
231.02        71.98454
231.48        72.10735
231.93        71.55258
232.39        70.54786
232.85        69.44295
233.31        68.90099
233.77        69.03729
234.22        69.62145
234.68        70.34316
235.14        70.58427
235.60        70.14601
236.05        69.32795
236.51        68.21873
236.97        66.81446
237.43        65.09683
237.88        62.92524
238.34        60.62794
238.80        59.69101
239.26        60.82662
239.71        64.00198
240.17        67.70955
240.63        69.61445
241.08        69.11872
241.54        66.83508
242.00        63.93996
242.46        61.89925
242.91        61.26334
243.37        61.72706
243.83        66.76945
244.28        94.48849
244.74        145.3191
245.20        142.5559
245.66        128.2081
246.11        124.8087
246.57        129.9745
247.03        147.4949
247.48        193.8096
247.94        155.2408
248.40        102.0155
248.85        87.37883
249.31        83.47695
249.77        82.85081
250.22        83.78779
250.68         86.3448
251.14        89.99889
251.59        90.92744
252.05         86.6204
252.51        79.34364
252.96        72.80139
253.42        70.61176
253.88        72.02604
254.33        75.47436
254.79        80.04726
255.25        83.86005
255.70        86.17027
256.16        87.83025
256.62         88.3011
257.07        86.94957
257.53        84.48701
257.99        80.92326
258.44        77.33441
258.90        75.94062
259.35        75.81005
259.81        76.25381
260.27        75.74195
260.72        72.78647
261.18        68.18466
261.63        62.60383
262.09        57.51871
262.55        53.92281
263.00        51.80322
263.46         50.7969
263.91        50.12648
264.37        49.28609
264.83        48.06708
265.28         46.5383
265.74        45.15612
266.19        44.30104
266.65        44.12371
267.11        44.31939
267.56        44.42146
268.02        43.92027
268.47        42.71424
268.93        41.00515
269.38        39.13832
269.84        37.93496
270.30        37.61013
270.75        37.93936
271.21         38.4584
271.66        38.46107
272.12        37.77753
272.57        36.63334
273.03         35.4275
273.48         34.6622
273.94        34.48446
274.39        34.66819
274.85        34.93109
275.31        34.84824
275.76        34.31807
276.22        33.52201
276.67        32.67275
277.13        32.18091
277.58        32.04892
278.04        32.15897
278.49        32.22721
278.95        31.94341
279.40        31.23068
279.86        30.29426
280.31        29.29587
280.77        28.59741
281.22        28.23091
281.68        28.10397
282.13        28.09333
282.59        28.07623
283.04        27.98925
283.50        27.91032
283.95         27.7831
284.41        27.54994
284.86        27.19886
285.32        26.74601
285.77        26.31115
286.22        26.14999
286.68        26.27138
287.13        26.57483
287.59         26.8311
288.04        26.67695
288.50        26.09249
288.95        25.19562
289.41        24.26122
289.86        23.58824
290.32        23.30169
290.77        23.27422
291.22        23.40957
291.68        23.52372
292.13        23.56129
292.59        23.58371
293.04        23.63042
293.50        23.76371
293.95        23.98778
294.40        24.24959
294.86        24.50834
295.31        24.71853
295.77        24.87325
296.22        24.99425
296.68        25.09721
297.13        25.17673
297.58        25.25575
298.04        25.34866
298.49         25.4902
298.95        25.76952
299.40        26.18363
299.85        26.70101
300.31        27.23877
300.76        27.67902
301.21        27.97499
301.67        28.17925
302.12        28.30011
302.58        28.40541
303.03          28.496
303.48         28.5609
303.94        28.65261
304.39        28.81813
304.84        29.06539
305.30        29.37525
305.75        29.64023
306.20        29.70573
306.66        29.57009
307.11        29.27587
307.57        28.96123
308.02        28.75992
308.47         28.7312
308.93        28.82647
309.38        28.98447
309.83        29.13802
310.29         29.2469
310.74        29.32209
311.19        29.35306
311.65        29.32215
312.10        29.22831
312.55        29.07542
313.00        28.86902
313.46        28.63276
313.91        28.37682
314.36        28.12107
314.82        27.91475
315.27        27.81447
315.72        27.83219
316.18        27.94456
316.63         28.0982
317.08         28.1825
317.53        28.16238
317.99         28.0547
318.44        27.91296
318.89        27.82785
319.35        27.81417
319.80        27.84963
320.25        27.86474
320.70        27.75048
321.16        27.48985
321.61        27.12374
322.06         26.7411
322.51        26.47309
322.97        26.34038
323.42        26.31383
323.87        26.31007
324.32        26.19158
324.78        25.92289
325.23        25.55168
325.68        25.15484
326.13        24.85968
326.59        24.69711
327.04        24.64847
327.49        24.64835
327.94        24.59065
328.39        24.44813
328.85        24.24569
329.30          24.071
329.75        24.03621
330.20        24.16631
330.66        24.39788
331.11        24.66587
331.56         24.8244
332.01        24.82945
332.46        24.71016
332.92         24.5109
333.37        24.34494
333.82        24.24831
334.27        24.20656
334.72        24.18481
335.17        24.12433
335.63        24.00902
336.08          23.863
336.53         23.7494
336.98        23.76706
337.43        23.92999
337.88         24.2113
338.34        24.47539
338.79        24.55042
339.24        24.37777
339.69        24.00536
340.14          23.612
340.59        23.50856
341.05        23.74959
341.50        24.22925
341.95        24.73655
342.40        24.96332
342.85        24.84655
343.30         24.4979
343.75        24.04103
344.20        23.69663
344.66        23.54255
345.11         23.4722
345.56        23.47962
346.01        23.55244
346.46        23.65779
346.91         23.8246
347.36        23.90909
347.81        23.67327
348.26        23.11148
348.72        22.33343
349.17        21.57509
349.62        21.30964
350.07        21.63548
350.52        22.38583
350.97         23.2942
351.42        23.95002
351.87        24.22875
352.32        24.24354
352.77        24.07419
353.22        23.85578
353.67        23.64757
354.13        23.40557
354.58        23.15128
355.03        22.96424
355.48        22.86077
355.93        22.85346
356.38        22.87647
356.83        22.80485
357.28         22.6122
357.73        22.32518
358.18        22.03634
358.63        21.89351
359.08        21.92451
359.53        22.08641
359.98        22.25405
360.43        22.23559
360.88        21.99463
361.33        21.58615
361.78        21.16413
362.23        20.97812
362.68        21.07356
363.13        21.35917
363.58        21.65693
364.03         21.6909
364.48        21.40267
364.93        20.89488
365.38        20.31274
365.83         19.8856
366.28        19.68907
366.73        19.65466
367.18        19.72643
367.63        19.81357
368.08        19.86995
368.53        19.91772
368.98        19.94884
369.43        19.94313
369.88        19.90129
370.33        19.82882
370.78        19.71993
371.23        19.57812
371.68        19.41476
372.13        19.22605
372.58        19.08408
373.03        19.10428
373.48        19.29501
373.93        19.61509
374.38        19.92136
374.83        19.99381
375.28        19.79154
375.72        19.37188
376.17        18.90175
376.62        18.61468
377.07        18.57917
377.52        18.72343
377.97          18.943
378.42        19.06917
378.87        19.04841
379.32        18.93264
379.77        18.77933
380.22        18.66658
380.67        18.61288
381.11        18.59125
381.56        18.55103
382.01        18.42504
382.46        18.20427
382.91        17.91796
383.36        17.64106
383.81        17.48653
384.26        17.47747
384.71        17.57904
385.15        17.69639
385.60        17.70194
386.05        17.55944
386.50        17.29755
386.95        17.00518
387.40        16.83885
387.85        16.83814
388.29         16.9495
388.74        17.06931
389.19        17.03802
389.64        16.83686
390.09        16.51143
390.54        16.19066
390.98        16.08826
391.43        16.25465
391.88        16.60062
392.33         16.9591
392.78        17.08738
393.23        16.95029
393.67        16.63148
394.12        16.29548
394.57        16.11215
395.02        16.11977
395.47        16.25511
395.91        16.44618
396.36        16.54484
396.81        16.50713
397.26        16.37113
397.71        16.19315
398.15        16.03603
398.60        15.94488
399.05        15.90463
399.50        15.86796
399.95        15.72486
400.39        15.53568
400.84        15.27469
401.29        15.05088
401.74        15.02799
402.18        15.24632
402.63        15.62654
403.08         16.0324
403.53         16.2475
403.97        16.21795
404.42        16.00902
404.87         15.7133
405.32        15.49557
405.76        15.41138
406.21        15.41327
406.66        15.46684
407.11        15.52946
407.55        15.58644
408.00        15.65176
408.45        15.70709
408.90        15.70164
409.34        15.62686
409.79         15.4979
410.24        15.36214
410.68        15.28933
411.13        15.29683
411.58        15.36661
412.03        15.46848
412.47         15.5493
412.92        15.57729
413.37        15.56696
413.81        15.53653
414.26        15.53025
414.71        15.54917
415.15        15.58265
415.60        15.59038
416.05        15.52872
416.49        15.39287
416.94        15.21617
417.39        15.03921
417.83        14.92861
418.28        14.91233
418.73        14.95997
419.17        15.05963
419.62        15.18666
420.07        15.32467
420.51         15.4737
420.96        15.58935
421.41        15.59523
421.85        15.47685
422.30        15.28239
422.74        15.06563
423.19        14.93796
423.64        14.90886
424.08        14.95764
424.53         15.0399
424.98        15.10712
425.42        15.14604
425.87        15.16462
426.31        15.16156
426.76        15.17977
427.21        15.20054
427.65         15.1065
428.10        14.98535
428.54         15.0738
428.99        15.38766
429.44        15.82613
429.88        16.20263
430.33        16.27823
430.77        16.01806
431.22        15.50577
431.66        14.96305
432.11        14.78405
432.56        15.00568
433.00        15.43125
433.45        15.85971
433.89        16.13933
434.34        16.14757
434.78        15.79715
435.23        15.34272
435.67        15.28877
436.12        15.58946
436.57        15.69825
437.01        15.56194
437.46        15.48442
437.90         15.4948
438.35         15.5045
438.79        15.49814
439.24        15.49591
439.68        15.50442
440.13        15.45542
440.57        15.38313
441.02        15.55067
441.46        15.83992
441.91        15.69083
442.35         15.2047
442.80        14.98745
443.24        15.01887
443.69        15.07082
444.13        15.06962
444.58        14.89686
445.02        14.61195
445.47        14.54975
445.91        14.67662
446.36        14.67452
446.80        14.52918
447.24        14.42867
447.69        14.40511
448.13        14.41085
448.58        14.45348
449.02        14.54116
449.47        14.63507
449.91        14.67033
450.36        14.63691
450.80         14.5474
451.25        14.45339
451.69        14.42635
452.13        14.48341
452.58        14.58892
453.02        14.70314
453.47        14.76038
453.91        14.74808
454.36        14.69517
454.80        14.61424
455.24        14.52568
455.69        14.45116
456.13        14.37469
456.58        14.34051
457.02         14.3926
457.46        14.53678
457.91         14.7511
458.35        14.96409
458.79        15.05415
459.24        15.00852
459.68        14.85228
460.13        14.67918
460.57        14.59702
461.01         14.6479
461.46        14.78915
461.90        14.96372
462.34        15.07246
462.79        15.08625
463.23        15.02936
463.68        14.95838
464.12        14.96857
464.56        15.08235
465.01        15.27351
465.45        15.44099
465.89        15.49408
466.34        15.43011
466.78        15.19929
467.22        14.93144
467.67        14.98615
468.11        15.32038
468.55        15.47429
468.99        15.40541
469.44        15.35971
469.88        15.39122
470.32        15.54941
470.77        15.76533
471.21         15.8126
471.65        15.66602
472.10         15.4918
472.54        15.35639
472.98        15.31603
473.42        15.39484
473.87         15.5801
474.31        15.79472
474.75        15.91154
475.20        15.90771
475.64        15.81385
476.08        15.70357
476.52        15.69003
476.97        15.79896
477.41        15.99588
477.85        16.20898
478.29         16.3541
478.74        16.40836
479.18         16.3189
479.62        16.15397
480.06        16.29081
480.50        16.41203
480.95        16.54384
481.39        16.54054
481.83        16.52011
482.27        16.47897
482.72        16.29186
483.16        16.05179
483.60        16.10419
484.04        16.45133
484.48         16.6703
484.93        16.94094
485.37        17.30409
485.81        17.71152
486.25        18.10354
486.69        23.84749
487.14        19.19671
487.58         12.5309
488.02        15.25558
488.46        17.35186
488.90        17.43448
489.34        17.58662
489.79        17.46111
490.23         18.2999
490.67        18.86545
491.11        18.89263
491.55         18.7644
491.99        18.47015
492.43        18.24438
492.88        18.17851
493.32        18.26138
493.76        18.34489
494.20        18.54218
494.64        18.78753
495.08        19.05416
495.52        19.33376
495.96        19.63685
496.41        19.90535
496.85          20.109
497.29        20.23334
497.73        20.05989
498.17        19.82345
498.61        20.02343
499.05        20.67162
499.49         20.8191
499.93        20.96772
500.37        21.13944
500.82        21.25501
501.26        21.49534
501.70        21.74659
502.14        21.84061
502.58        21.77675
503.02        21.76153
503.46        21.81181
503.90         21.8085
504.34        21.76445
504.78        21.75426
505.22        21.78739
505.66         21.8531
506.10        21.93486
506.54        22.00107
506.98        22.04523
507.42         22.0765
507.86        22.12562
508.30        22.24102
508.74        22.42469
509.18        22.65071
509.62        22.87272
510.06        23.01575
510.50        23.06294
510.94         23.0471
511.38        22.99313
511.82        22.94049
512.26        22.90832
512.70        22.87993
513.14        22.88638
513.58         22.9782
514.02        23.14474
514.46        23.36339
514.90        23.55524
515.34        23.55952
515.78        23.32663
516.22        23.06141
516.66        22.86561
517.10        22.46755
517.54        21.90326
517.98        22.71796
518.42        22.59296
518.86        22.99533
519.30        23.20745
519.74        23.45495
520.18        23.66925
520.62        23.71109
521.06        23.59239
521.50        23.33249
521.93        23.02913
522.37        22.85689
522.81        22.85933
523.25        22.98752
523.69        23.17428
524.13        23.31145
524.57        23.36283
525.01        23.35937
525.45         23.3157
525.89        23.25504
526.32        23.18667
526.76        23.10027
527.20        22.99893
527.64        22.90038
528.08        22.81488
528.52        22.72435
528.96        22.62485
529.40        22.56787
529.83        22.56637
530.27        22.37769
530.71        22.43656
531.15        22.37446
531.59        22.32326
532.03        22.26978
532.46        22.24642
532.90        22.30457
533.34        22.43648
533.78        22.61825
534.22         22.7823
534.66        22.83208
535.09        22.74442
535.53        22.55791
535.97        22.32826
536.41        22.14947
536.85        22.05585
537.28        22.03312
537.72        22.05164
538.16        22.06183
538.60        22.05308
539.04        22.02498
539.47        22.02086
539.91        22.16023
540.35        22.42397
540.79        22.69003
541.22        22.89979
541.66        23.05604
542.10        23.13972
542.54        23.11697
542.97        23.05343
543.41        23.09343
543.85        23.25933
544.29        23.52027
544.72        23.78956
545.16        23.94036
545.60        23.94707
546.04        23.85039
546.47        23.75991
546.91        23.85713
547.35        24.16415
547.79        24.62142
548.22        25.08835
548.66        25.32656
549.10          25.302
549.53        25.13133
549.97        24.94515
550.41        24.87995
550.84        24.98769
551.28        25.23832
551.72        25.58267
552.15        25.92583
552.59        26.22137
553.03        26.48826
553.46        26.71461
553.90        26.90664
554.34        27.07337
554.77        27.18097
555.21        27.23231
555.65        27.31978
556.08        27.46635
556.52        27.31738
556.96        27.52619
557.39         27.5969
557.83        27.72819
558.27        27.88695
558.70        28.06233
559.14        28.21838
559.57        28.33268
560.01        28.43008
560.45        28.49211
560.88        28.48998
561.32        28.45153
561.75         28.3728
562.19        28.31927
562.63        28.35636
563.06        28.48925
563.50        28.68868
563.93        28.90825
564.37        29.11069
564.80        29.25403
565.24          29.317
565.68        29.31323
566.11        29.31268
566.55        29.35142
566.98        29.38716
567.42        29.45899
567.85        29.63242
568.29        29.92785
568.72         30.2422
569.16        30.57683
569.60         30.9867
570.03        31.31559
570.47        31.33496
570.90        31.22319
571.34        30.62222
571.77        31.28028
572.21        31.38543
572.64         31.4477
573.08        31.21793
573.51        30.05511
573.95        31.37412
574.38        33.36947
574.82         32.6566
575.25        32.22635
575.69        31.15615
576.12        30.83425
576.56        30.69102
576.99        31.43793
577.42        32.87505
577.86        32.71943
578.29        32.69963
578.73        34.18758
579.16        31.42244
579.60        28.67679
580.03         29.9647
580.47        32.05981
580.90        32.44729
581.33        32.04976
581.77        31.57952
582.20        34.51077
582.64        33.74295
583.07        28.97134
583.51        28.35024
583.94        27.80628
584.37        28.89073
584.81        30.07817
585.24         31.5182
585.68        32.28208
586.11        31.48645
586.54        29.53405
586.98        28.66269
587.41        28.57749
587.85        30.32002
588.28        31.04924
588.71        29.61057
589.15        28.70826
589.58        29.09028
590.01        29.43537
590.45        29.89805
590.88        30.09781
591.31        29.68448
591.75        29.41948
592.18          29.528
592.61        30.36197
593.05        30.75028
593.48        32.24227
593.91          32.237
594.35        29.76517
594.78         29.2148
595.21         29.3694
595.65        30.81128
596.08        31.94641
596.51        30.80813
596.94        30.14496
597.38          30.635
597.81        32.01521
598.24        33.10696
598.68        32.61406
599.11        32.55173
599.54        34.12804
599.97        35.08748
600.41        33.29323
600.84        33.70995
601.27        34.62554
601.70        34.49604
602.14        34.72391
602.57        34.57942
603.00        35.23329
603.43        36.49926
603.87        37.65548
604.30        37.87286
604.73        37.27533
605.16        37.05402
605.60         38.0525
606.03        39.08384
606.46        40.00401
606.89          40.128
607.32        39.40458
607.76        39.96051
608.19        41.39578
608.62        41.26652
609.05        40.94763
609.48         41.6131
609.92        41.88675
610.35        41.86739
610.78        43.90777
611.21        44.41304
611.64         42.8842
612.07        43.57088
612.50        44.13332
612.94        44.69055
613.37        44.55327
613.80        45.21261
614.23        45.69044
614.66        46.03187
615.09        46.57605
615.52        46.91947
615.96        47.13446
616.39        47.46377
616.82        47.11971
617.25        47.17808
617.68        47.86945
618.11        48.56301
618.54        49.16323
618.97        49.01976
619.40        48.42635
619.84        48.61866
620.27        49.55027
620.70        50.24973
621.13        50.55641
621.56        50.26895
621.99        49.64317
622.42        50.42709
622.85        52.23755
623.28        51.96084
623.71        51.49343
624.14        51.51868
624.57         51.2404
625.00        50.98732
625.43        51.10716
625.86        50.66781
626.29         50.8319
626.72        50.94349
627.15        50.73167
627.58        50.65847
628.01        50.55928
628.44        50.42256
628.87        50.27805
629.30        50.12528
629.73        50.19506
630.16         49.9497
630.59        49.45867
631.02        48.88167
631.45        48.30848
631.88        47.77909
632.31        47.31411
632.74        47.04459
633.17        46.67729
633.60        46.36349
634.03        46.00526
634.46        45.62852
634.89        45.22871
635.32        44.80264
635.75        44.35775
636.18        43.89028
636.61        43.41883
637.04        42.97416
637.47        42.55785
637.89        42.16277
638.32        41.76643
638.75         41.3593
639.18        40.94493
639.61        40.54371
640.04        40.15184
640.47        39.75486
640.90        39.35823
641.33        38.96463
641.76        38.60875
642.18        38.40537
642.61         38.3667
643.04        38.36985
643.47         38.3299
643.90        38.60702
644.33        38.37948
644.76        38.32314
645.18        38.23281
645.61        38.18388
646.04          38.185
646.47        38.20296
646.90        38.28691
647.33        38.48571
647.75        38.82031
648.18        39.31907
648.61        39.81782
649.04        40.08052
649.47        40.08328
649.89        39.72907
650.32        39.38259
650.75        39.90163
651.18        41.19836
651.61        42.36037
652.03        43.06428
652.46        43.43674
652.89        43.72586
653.32        43.70771
653.74        43.68045
654.17        45.17367
654.60        45.88448
655.03        45.14216
655.46        46.17479
655.88        49.32363
656.31        53.10637
656.74        120.8839
657.16        78.91761
657.59        27.63202
658.02        21.05348
658.45        37.34801
658.87        48.15603
659.30        50.87026
659.73        50.65436
660.15         48.8732
660.58        51.17049
661.01        52.87326
661.44        51.73228
661.86        51.53564
662.29        51.74286
662.72        52.67105
663.14        54.11023
663.57        54.34583
664.00        53.58479
664.42        53.61906
664.85        54.53498
665.27        55.23333
665.70        55.50934
666.13        55.65126
666.55        55.63771
666.98        55.40081
667.41        55.12187
667.83         55.1297
668.26        55.49455
668.69        56.08899
669.11        56.70863
669.54        57.27304
669.96        57.16755
670.39        57.00177
670.82        56.77926
671.24        56.61616
671.67        56.69028
672.09         57.2723
672.52        58.07642
672.94        58.74194
673.37        58.23568
673.80        58.15197
674.22        58.28828
674.65        58.39589
675.07        58.47638
675.50        58.55072
675.92        58.65364
676.35        58.87115
676.77        59.20542
677.20           59.56
677.62        59.88966
678.05        60.12632
678.47          60.243
678.90        60.27953
679.32        60.28299
679.75        60.21962
680.17         60.3488
680.60        60.45606
681.02        60.59032
681.45        60.67145
681.87        60.69337
682.30        60.74163
682.72        60.83349
683.15        60.86079
683.57        60.91959
684.00        61.23468
684.42        61.89837
684.85        62.25611
685.27        62.30472
685.70        62.29561
686.12        62.27645
686.54        62.29484
686.97        62.37791
687.39        62.49501
687.82         62.5905
688.24        62.81631
688.66        62.83352
689.09        62.90792
689.51        62.99305
689.94        63.14569
690.36        63.37747
690.78        63.67126
691.21        63.97749
691.63        64.19558
692.06        64.29774
692.48         64.4124
692.90        64.39326
693.33        64.52798
693.75        64.77123
694.17         65.0864
694.60         65.4279
695.02        65.67013
695.44        65.74849
695.87        65.98056
696.29        66.34971
696.71        66.02496
697.14        65.32074
697.56        65.98825
697.98        67.66469
698.41        67.75661
698.83        66.91929
699.25        66.34952
699.68         66.4033
700.10        66.40607
700.52        66.40502
700.94        66.76003
701.37        67.35113
701.79        67.87988
702.21        68.23325
702.64        68.49589
703.06        68.63899
703.48        68.61188
703.90        68.44474
704.33        68.15847
704.75        67.85274
705.17        67.77884
705.59        67.99465
706.01        68.32097
706.44        68.65449
706.86        69.37837
707.28        69.49976
707.70        69.86857
708.12        70.15195
708.55        70.02814
708.97        69.60323
709.39        69.48061
709.81        69.69136
710.23        69.75198
710.66        69.66058
711.08        69.77517
711.50        70.02209
711.92        70.12902
712.34        70.06833
712.76        69.90225
713.19        69.75269
713.61        69.84491
714.03        70.20366
714.45        70.75214
714.87        71.28899
715.29        71.50222
715.71        71.33154
716.13        70.87896
716.56        70.36058
716.98        70.15778
717.40        70.36028
717.82        70.85444
718.24        71.45687
718.66        71.85268
719.08        71.94677
719.50        71.83777
719.92          71.632
720.34         71.5174
720.76        71.55733
721.19        71.57262
721.61        71.76135
722.03        71.94669
722.45        72.16879
722.87        72.43243
723.29        72.70872
723.71        72.93496
724.13        73.08612
724.55        73.16953
724.97        73.21169
725.39        73.21248
725.81        73.17677
726.23        73.20838
726.65        73.33252
727.07        73.04968
727.49        73.22092
727.91         73.1819
728.33        73.20354
728.75        73.28832
729.17        73.43763
729.59        73.61459
730.01        73.80982
730.43         74.0233
730.85        74.24883
731.27        74.52197
731.69        74.75181
732.10         74.7727
732.52        74.55654
732.94        74.18258
733.36        73.87688
733.78        73.83837
734.20        74.11514
734.62        75.06321
735.04        76.27995
735.46        76.24971
735.88        75.06651
736.30        75.28319
736.72        76.78931
737.13        77.63834
737.55        77.39014
737.97        77.02915
738.39          76.736
738.81        75.82438
739.23        74.81385
739.65        75.83407
740.06        78.28904
740.48        78.67077
740.90        77.04519
741.32        76.33544
741.74         76.8234
742.16        77.07655
742.57        77.15047
742.99        77.85062
743.41        78.95827
743.83        79.64865
744.25         79.7824
744.67         79.5843
745.08        79.26183
745.50        79.14793
745.92        79.34709
746.34        79.71895
746.75         80.1633
747.17        80.47849
747.59        80.63118
748.01        80.80009
748.42         81.0169
748.84        81.13636
749.26        81.31354
749.68        81.79486
750.09        82.51199
750.51        83.44447
750.93        84.25374
751.35        83.90524
751.76         82.7134
752.18        82.33018
752.60        82.77671
753.01        82.93946
753.43        82.79852
753.85        82.87058
754.27        83.12538
754.68        84.15681
755.10        84.40057
755.52        84.92003
755.93        85.41159
756.35        85.64943
756.77         85.7455
757.18        85.88167
757.60        86.14411
758.02        86.53778
758.43        86.55479
758.85        86.87672
759.26        84.35796
759.68        84.02444
760.10        85.25721
760.51          86.895
760.93        86.27065
761.34        85.45025
761.76        84.77472
762.18         83.9707
762.59         83.5755
763.01        83.98536
763.42        85.15073
763.84        86.04173
764.26        86.50171
764.67        86.82742
765.09        86.97143
765.50        87.08472
765.92        87.00557
766.33        85.62648
766.75        83.55398
767.16        82.93442
767.58        83.98654
768.00        85.52682
768.41        87.21429
768.83        89.05724
769.24        90.23927
769.66        89.52798
770.07        87.53043
770.49        85.37265
770.90        83.77654
771.32        84.93289
771.73        87.98222
772.15        87.73133
772.56        84.59946
772.97        83.92461
773.39        85.68817
773.80        86.30793
774.22        85.57707
774.63        85.64054
775.05         86.3876
775.46        86.74369
775.88        86.57993
776.29        86.20142
776.70        85.79676
777.12        85.71047
777.53        86.02719
777.95        86.55498
778.36         87.0681
778.77        87.18343
779.19        86.87033
779.60        86.27547
780.02        85.63085
780.43        85.45918
780.84        85.95006
781.26        86.20925
781.67        86.28096
782.09        87.92446
782.50        90.35079
782.91        89.08015
783.33        86.05873
783.74        84.92838
784.15        86.21468
784.57        87.08622
784.98        87.17365
785.39        87.01907
785.81        86.63314
786.22        86.38763
786.63        86.43553
787.04        86.29111
787.46        86.17931
787.87        87.16561
788.28        88.88604
788.70        89.71104
789.11        89.44846
789.52        88.95303
789.93        88.46061
790.35        87.87883
790.76        87.35246
791.17        87.29981
791.58         87.7031
792.00        87.81257
792.41        87.47997
792.82        88.38728
793.23         88.4053
793.65        88.17957
794.06        87.52151
794.47        88.45992
794.88        90.10308
795.29         90.7016
795.71         87.2848
796.12        85.29892
796.53        84.42706
796.94        84.16077
797.35        84.58372
797.76         85.9488
798.18        87.66637
798.59        88.74385
799.00        88.80202
799.41        87.93884
799.82         86.6347
800.23        85.82934
800.64         85.7532
801.06         86.0351
801.47        86.56838
801.88        87.06674
802.29        87.39429
802.70        87.67004
803.11        87.86581
803.52        87.89894
803.93        87.78773
804.34        87.51778
804.75         87.2067
805.17        87.17496
805.58        87.53824
805.99        87.85172
806.40        87.99735
806.81        88.68565
807.22        89.40429
807.63        88.14622
808.04        85.57985
808.45        84.52711
808.86        85.23758
809.27        86.29391
809.68        87.24597
810.09        87.88132
810.50        87.96829
810.91        87.59847
811.32        87.01917
811.73         86.6327
812.14        86.56052
812.55         86.6386
812.96        86.85221
813.37        87.17033
813.78        87.53487
814.19        88.01039
814.60        88.35469
815.01        88.17463
815.42        87.43459
815.83        86.21748
816.24        84.97891
816.65        84.52643
817.05        85.10611
817.46        86.45251
817.87        88.00729
818.28        88.75104
818.69        88.39764
819.10        87.19772
819.51        85.76704
819.92        85.15192
820.33        85.62322
820.74        86.85686
821.14        88.25331
821.55        88.74334
821.96        88.10927
822.37        86.72768
822.78        85.17794
823.19        84.30646
823.60        84.33543
824.00        85.06014
824.41        86.03918
824.82         86.6506
825.23        86.64275
825.64        86.24568
826.04        85.70593
826.45        85.37827
826.86        85.36008
827.27        85.49496
827.68        85.70284
828.08        85.90964
828.49        85.99892
828.90        86.08004
829.31        86.10182
829.72        85.95272
830.12        85.65919
830.53        85.23166
830.94        84.87521
831.35        84.86697
831.75        85.29734
832.16         86.0312
832.57        86.90024
832.97         87.5259
833.38         87.6983
833.79        87.51781
834.20        87.18665
834.60        87.01643
835.01        87.11583
835.42        87.38779
835.82        87.64991
836.23        87.51392
836.64        86.94725
837.04        86.09679
837.45        85.26135
837.86        84.90929
838.26        85.15237
838.67        85.81081
839.08         86.6051
839.48        87.02253
839.89        86.87795
840.29        86.36507
840.70        85.70255
841.11        85.19872
841.51        84.95892
841.92        84.84869
842.33         84.8745
842.73         85.0667
843.14        85.35531
843.54        85.78824
843.95        86.15472
844.35        86.16927
844.76        85.76972
845.17        85.05473
845.57        84.27604
845.98        83.84077
846.38        83.84315
846.79        84.14919
847.19        84.60462
847.60        84.81895
848.00        84.72174
848.41        84.41297
848.81        84.05576
849.22        83.81493
849.62        83.80019
850.03        83.95332
850.43        84.27132
850.84        84.64367
851.24        85.06447
851.65        85.35425
852.05        85.69551
852.46        86.19352
852.86        86.84823
853.27        87.65553
853.67        88.04702
854.07        87.29098
854.48        85.43451
854.88        82.75222
855.29        80.22001
855.69         79.2456
856.10        80.09989
856.50        82.61234
856.90         85.8746
857.31        87.78123
857.71        87.64901
858.12        86.00631
858.52        83.87328
858.92        82.62029
859.33        82.54264
859.73        83.28448
860.13        84.49712
860.54         85.4537
860.94        85.93243
861.34        86.11621
861.75        86.17472
862.15         86.4584
862.55         87.0063
862.96        87.63576
863.36        88.20465
863.76        88.44901
864.17        88.31287
864.57        87.98627
864.97        87.60423
865.38        87.34516
865.78        87.31636
866.18        87.36791
866.58        87.56603
866.99        88.00522
867.39        88.73361
867.79        89.78078
868.19        90.70774
868.60        90.68655
869.00        89.57461
869.40        87.58716
869.80        85.70966
870.21        85.50102
870.61        87.37794
871.01         90.8719
871.41        94.78896
871.81         97.0769
872.22        97.14643
872.62        95.59927
873.02        93.53616
873.42        92.73214
873.82        93.54478
874.22        95.38763
874.63        97.55721
875.03        98.52482
875.43        97.64507
875.83        95.85157
876.23        93.81658
876.63        93.18589
877.03        94.31942
877.44        97.48299
877.84        99.17197
878.24        105.0734
878.64        104.0626
879.04        101.0818
879.44        98.45581
879.84        97.12595
880.24        98.50694
880.64        100.3893
881.04        102.8713
881.44        104.4078
881.84        103.8162
882.24        101.7616
882.65        99.61929
883.05        99.04321
883.45        100.3236
883.85        103.0429
884.25         106.171
884.65        107.8117
885.05        107.3585
885.45        105.4976
885.85        103.2911
886.25        102.1633
886.65        102.4294
887.05        103.6221
887.45        105.1961
887.85         106.194
888.25        106.2647
888.65         105.762
889.04        104.9801
889.44        104.3931
889.84        104.1466
890.24        104.0499
890.64        104.0567
891.04        104.1459
891.44        104.2674
891.84        104.4512
892.24         104.622
892.64        104.5917
893.04        104.3771
893.44        104.1317
893.83         103.911
894.23        103.8351
894.63        103.9215
895.03        104.0417
895.43        104.4685
895.83        105.6659
896.23        107.6092
896.63        110.1264
897.02        112.2872
897.42        112.5786
897.82        110.7938
898.22        107.5048
898.62        103.9822
899.01        102.0886
899.41        102.2608
899.81        103.8716
900.21        106.1156
900.61        107.6721
901.00        108.1038
901.40        107.8431
901.80        107.2072
902.20        106.6743
902.59        106.4288
902.99        106.2552
903.39        106.1104
903.79        105.9778
904.18         105.851
904.58        105.8378
904.98        105.9561
905.38         106.192
905.77        106.4915
906.17        106.8016
906.57        107.0785
906.96        107.3218
907.36        107.4653
907.76        107.5378
908.15        107.4327
908.55        106.8699
908.95        105.8963
909.34        104.5778
909.74        103.3443
910.14        102.6816
910.53        102.7421
910.93        103.4665
911.33        104.5311
911.72        105.3311
912.12        105.6021
912.52        105.4511
912.91        105.2637
913.31        105.6037
913.70        106.6154
914.10        108.1701
914.49         109.744
914.89        109.8764
915.29        108.1922
915.68        105.2578
916.08        102.4805
916.47        101.1328
916.87        101.3656
917.26        102.7735
917.66        104.4634
918.05        105.0079
918.45        104.0429
918.84        102.0788
919.24        100.0754
919.64        99.41996
920.03        100.4584
920.42        102.7376
920.82        105.4285
921.21        107.2352
921.61        107.5501
922.00        106.8224
922.40        105.5604
922.79        104.4026
923.19        103.5818
923.58        102.9821
923.98        102.4993
924.37         101.797
924.77        100.9849
925.16        100.3081
925.55        100.0379
925.95        100.8504
926.34        102.7711
926.74        105.3188
927.13        107.7627
927.52        108.7545
927.92        108.1439
928.31        106.3525
928.70        104.0174
929.10        102.2134
929.49        101.2565
929.89         100.875
930.28        101.1324
930.67        102.1258
931.07        103.6099
931.46        105.6006
931.85        107.3801
932.24         107.874
932.64        106.9026
933.03        104.6494
933.42        101.6567
933.82        99.28733
934.21        98.03403
934.60        97.66016
934.99        97.80994
935.39        97.95382
935.78        97.99309
936.17         98.1366
936.56        98.26492
936.96        98.36961
937.35        97.92661
937.74        97.32886
938.13        96.98776
938.53        97.53969
938.92        98.99828
939.31        101.3218
939.70        103.7844
940.09        104.4969
940.49        102.8862
940.88        99.80756
941.27        96.63431
941.66        94.94073
942.05        94.93854
942.44        96.11916
942.84        97.97289
943.23        99.70229
943.62        100.8213
944.01        101.4956
944.40        101.7788
944.79         101.766
945.18        101.4969
945.57        100.8618
945.97        99.71078
946.36        98.09319
946.75         96.3792
947.14        94.91914
947.53        94.07527
947.92        94.07713
948.31        94.85983
948.70        96.36594
949.09         98.3215
949.48        99.94918
949.87        100.7854
950.26        100.8879
950.65        100.5091
951.04         100.152
951.43        99.96899
951.82        99.79488
952.21        99.46947
952.60        98.78856
952.99        97.73994
953.38         96.4667
953.77         95.2355
954.16        94.35633
954.55        93.91039
954.94        93.90212
955.33        94.00372
955.72        93.65643
956.11        92.76848
956.50        91.45972
956.89         90.4204
957.28         90.8884
957.66        93.17374
958.05        96.60512
958.44         100.086
958.83         102.009
959.22        101.9987
959.61        100.4642
960.00        98.22224
960.39        96.62859
960.78        96.12889
961.16        96.44418
961.55        96.96673
961.94        96.67947
962.33        95.37335
962.72        93.49361
963.11        91.79578
963.49        91.24125
963.88        91.96468
964.27        93.70657
964.66        95.70444
965.04        96.39507
965.43        95.16376
965.82        92.67484
966.21        90.01863
966.60        88.54031
966.98        88.48123
967.37        89.39187
967.76        90.72311
968.15        91.41656
968.53        91.11804
968.92        90.18844
969.31        89.11003
969.69        88.47594
970.08        88.44867
970.47        88.84148
970.86        89.38756
971.24        89.67228
971.63        89.53074
972.02        89.06569
972.40        88.67728
972.79        88.99482
973.17        90.29516
973.56        92.26885
973.95         94.2435
974.33        94.92838
974.72        93.95066
975.11        91.78899
975.49         89.4764
975.88        88.43829
976.26        88.87488
976.65        90.46853
977.04        92.39318
977.42        92.61587
977.81        90.44301
978.19        86.77428
978.58        83.49477
978.96        82.45186
979.35        83.91335
979.74        87.43141
980.12        92.32428
980.51        95.80154
980.89        96.90139
981.28        96.21371
981.66          94.612
982.05         93.2934
982.43        92.53649
982.82        91.99597
983.20        91.79028
983.59         92.2311
983.97        93.41099
984.35        95.39353
984.74        97.54294
985.12        98.74741
985.51        98.18469
985.89        96.06709
986.28         93.0821
986.66        90.37123
987.04        88.64426
987.43        87.79396
987.81        87.38934
988.20        86.85724
988.58        85.96255
988.96        84.59911
989.35        83.20284
989.73        83.91827
990.12        87.36748
990.50        92.33348
990.88        96.00005
991.27        96.64641
991.65        94.71259
992.03        90.75368
992.42        86.30585
992.80        84.10865
993.18         85.0372
993.56        87.62956
993.95        90.49126
994.33        92.43701
994.71        93.13084
995.10        93.23978
995.48        92.72432
995.86        91.31569
996.24        89.03405
996.63        85.63546
997.01          81.956
997.39        80.57706
997.77        82.56183
998.15        87.26077
998.54         92.2983
998.92        94.57954
999.30        93.12158
999.68        88.83929
1000.06        82.76336
1000.45        77.66589
1000.83        74.91162
1001.21        73.69714
1001.59        74.01574
1001.97        75.97853
1002.35        79.47375
1002.73        85.24648
1003.12        91.64222
1003.50        93.32436
1003.88        87.90215
1004.26        77.91441
1004.64        68.48595
1005.02        64.04517
1005.40        64.91824
1005.78        70.88913
1006.16        82.15607
1006.54        91.92319
1006.92        93.49342
1007.30        90.13592
1007.69        86.22912
1008.07        84.46036
1008.45        84.95547
1008.83        87.34538
1009.21        93.11597
1009.59        103.6403
1009.97        111.9832
1010.35        99.20413
1010.73        75.53407
1011.11        68.20255
1011.49        68.80007
1011.86        72.10607
1012.24        74.59251
1012.62        75.99769
1013.00        76.90446
1013.38        77.59789
1013.76        80.07037
1014.14        89.42451
1014.52        109.2637
1014.90        140.4215
1015.28        175.2437
1015.66        194.5801
1016.04         185.817
1016.41        150.4452
1016.79        105.9249
1017.17        73.81811
1017.55        58.74279
1017.93        53.37332
1018.31        53.12791
1018.69        55.77278
1019.06        60.89664
1019.44        69.31768
1019.82        84.31087
1020.20        109.5922
1020.58        150.1486
1020.95        218.5343
1021.33        356.6154
1021.71       -1563.241
1022.09       -9.896364
1022.46        79.13982
1022.84        111.2425
1023.22          129.83
1023.60         153.074
1023.97        326.8946
1024.35        42.77228
1024.73        79.96841
