SpectraSmart Spectrum 2.9.0.0
--------- Device Information -----------
Spectrum Name :  反射率_0
Saving Time :  2024/04/25 23:56:32
Spectro-Module Model Name : SE2030-DUVN
Spectro-Module Serial Number : OS361AC55029948
Wavelength Start : 200
Wavelength End : 1025
Wavelength Unit : Wavelength(nm)
Spectrum Unit : Reflectance(%)
-----------Spectrum Setting ------------
Integration Time : 20ms
Average : 10
Boxcar : 0
Background removal :  enabled
linearity correction :  enabled
SC :  disabled
Intensity correction :  disabled
DWT denoise :  enabled
savitzky-golay :  disabled
FFT :  disabled
Running average :  disabled
Kalman :  disabled
High pass :  disabled
---------------BEGIN--------------------
Wavelength(nm)             Reflectance(%)
200.29               0
200.75        76.91027
201.21        69.90742
201.67         61.8096
202.13        57.04007
202.58        56.11892
203.04        58.15278
203.50        61.60951
203.96        63.72346
204.42        63.72712
204.88         62.6655
205.34        61.61336
205.80         61.7027
206.26        63.49454
206.72        67.92332
207.18        76.72058
207.64        84.72369
208.10        80.03634
208.55        69.59807
209.01        62.89886
209.47        60.85999
209.93        61.54595
210.39        64.08981
210.85        66.63657
211.31        65.39473
211.77        59.59778
212.23        50.96652
212.69        43.02184
213.14        41.15687
213.60        46.11748
214.06        56.41665
214.52        68.50733
214.98        76.90572
215.44        79.80552
215.90        78.49351
216.36        74.90314
216.81        71.69911
217.27          69.966
217.73        69.03568
218.19        67.28539
218.65        62.23856
219.11        52.73858
219.57        37.66474
220.02        18.95059
220.48        8.043757
220.94        11.67499
221.40        26.84215
221.86        42.60025
222.32        47.46526
222.77        42.19083
223.23        32.40163
223.69        23.57179
224.15        21.23298
224.61        24.95222
225.06        32.00465
225.52        38.95327
225.98        41.56979
226.44         39.1475
226.90        33.73552
227.36        27.60784
227.81         23.7106
228.27        23.06274
228.73        24.45664
229.19        27.08661
229.65        29.78287
230.10        31.92498
230.56        33.66311
231.02        35.00179
231.48        35.89314
231.93        36.39914
232.39        36.56875
232.85        36.33796
233.31        35.67161
233.77        34.62811
234.22        33.21661
234.68        31.91889
235.14        31.55646
235.60        32.34653
236.05        34.07964
236.51         36.0596
236.97        37.25253
237.43         37.4785
237.88        37.00788
238.34        36.31684
238.80        36.77161
239.26        38.97847
239.71         42.4943
240.17        46.55812
240.63        50.28616
241.08        53.27072
241.54        55.61915
242.00        57.24863
242.46        58.13289
242.91        58.52756
243.37        57.89399
243.83        57.10693
244.28        69.06344
244.74        109.9441
245.20        120.8336
245.66         114.827
246.11        113.0087
246.57        115.5742
247.03        124.7969
247.48        141.7104
247.94        96.30176
248.40        69.36787
248.85        65.23866
249.31        65.82739
249.77        68.36206
250.22        72.69613
250.68         79.9724
251.14        90.12556
251.59        96.44865
252.05        92.60386
252.51        81.75125
252.96        69.97083
253.42        63.07675
253.88        60.63755
254.33         60.5505
254.79        62.95581
255.25        67.40163
255.70        72.58022
256.16         78.1043
256.62        81.66609
257.07        80.92424
257.53        76.89333
257.99        70.60432
258.44        64.42008
258.90        61.90997
259.35        62.14609
259.81        63.61122
260.27        64.09334
260.72        61.49829
261.18        56.61768
261.63        50.48967
262.09        44.89809
262.55        41.25034
263.00        39.50948
263.46        39.02936
263.91        38.79095
264.37        37.94557
264.83        36.33303
265.28        34.17382
265.74        32.16456
266.19        31.11413
266.65        31.17076
267.11        31.83943
267.56        32.42008
268.02        32.09019
268.47        30.74899
268.93        28.70027
269.38        26.40744
269.84        24.90809
270.30        24.49417
270.75        24.86527
271.21        25.51307
271.66        25.67528
272.12        25.14213
272.57        24.17466
273.03        23.11356
273.48        22.38314
273.94        22.11946
274.39        22.12915
274.85        22.21389
275.31        22.10407
275.76        21.72141
276.22         21.1762
276.67        20.59951
277.13        20.24751
277.58        20.11438
278.04        20.13148
278.49        20.08821
278.95        19.73332
279.40        19.03132
279.86        18.14777
280.31        17.26332
280.77        16.74069
281.22        16.60796
281.68        16.74292
282.13        16.99488
282.59        17.17011
283.04        17.20862
283.50        17.20156
283.95        17.12288
284.41        16.94071
284.86         16.6717
285.32        16.32767
285.77         16.0506
286.22        16.11427
286.68        16.51983
287.13        17.15323
287.59        17.76324
288.04        17.97211
288.50         17.7327
288.95        17.16688
289.41        16.50621
289.86        16.00466
290.32        15.78792
290.77        15.76522
291.22        15.90181
291.68        16.10956
292.13        16.35964
292.59        16.67993
293.04         17.0789
293.50        17.55955
293.95        18.09953
294.40        18.65611
294.86        19.17258
295.31        19.58532
295.77        19.89004
296.22        20.11438
296.68        20.30712
297.13         20.5183
297.58        20.78852
298.04        21.12388
298.49        21.53792
298.95        22.08184
299.40        22.74321
299.85        23.49565
300.31        24.27274
300.76        24.98196
301.21        25.57065
301.67        26.07135
302.12         26.4579
302.58          26.748
303.03        26.94555
303.48        27.06826
303.94        27.20951
304.39        27.47853
304.84        27.89778
305.30        28.42323
305.75        28.93665
306.20        29.26297
306.66        29.38221
307.11        29.33888
307.57        29.23646
308.02        29.15914
308.47        29.16609
308.93        29.22621
309.38          29.333
309.83        29.50777
310.29         29.7286
310.74        29.97845
311.19        30.19907
311.65        30.29783
312.10        30.25368
312.55        30.09365
313.00        29.84817
313.46        29.58213
313.91        29.31885
314.36        29.06241
314.82        28.85154
315.27        28.72802
315.72        28.69998
316.18        28.75289
316.63        28.83696
317.08        28.84544
317.53        28.74563
317.99        28.55096
318.44        28.31834
318.89        28.14369
319.35        28.04097
319.80        27.98783
320.25        27.90453
320.70         27.6659
321.16        27.25612
321.61        26.72503
322.06         26.1806
322.51        25.78043
322.97        25.54871
323.42        25.44611
323.87        25.37465
324.32        25.17229
324.78        24.79757
325.23        24.30807
325.68        23.78535
326.13        23.36381
326.59         23.0781
327.04        22.90299
327.49        22.78561
327.94        22.64068
328.39        22.44279
328.85         22.2142
329.30        22.01071
329.75         21.8925
330.20         21.8754
330.66        21.91335
331.11         21.9824
331.56        22.00416
332.01        21.94803
332.46         21.8194
332.92        21.63007
333.37        21.42741
333.82        21.22689
334.27         21.0362
334.72        20.83211
335.17        20.57623
335.63        20.27071
336.08        19.93611
336.53        19.66313
336.98        19.59206
337.43        19.73824
337.88         20.0591
338.34        20.37757
338.79        20.44769
339.24        20.18822
339.69        19.66287
340.14        19.07329
340.59        18.77854
341.05        18.85704
341.50        19.19679
341.95        19.58809
342.40        19.71861
342.85        19.51937
343.30        19.10565
343.75        18.59709
344.20        18.20447
344.66        18.00281
345.11        17.88774
345.56        17.85261
346.01        17.88592
346.46        17.95401
346.91        18.08169
347.36        18.13013
347.81        17.87046
348.26        17.29577
348.72        16.51233
349.17        15.74013
349.62         15.4279
350.07        15.67281
350.52        16.32118
350.97        17.12584
351.42        17.70512
351.87        17.94106
352.32        17.93483
352.77        17.76239
353.22        17.55159
353.67        17.35597
354.13        17.13596
354.58        16.89496
355.03        16.68149
355.48         16.5107
355.93        16.40432
356.38        16.33613
356.83        16.24509
357.28        16.11567
357.73        15.95251
358.18        15.80161
358.63        15.73748
359.08        15.76787
359.53        15.86969
359.98        15.95265
360.43          15.879
360.88        15.62979
361.33        15.24936
361.78        14.86489
362.23        14.68381
362.68        14.74314
363.13        14.96325
363.58        15.20897
364.03        15.26918
364.48        15.09233
364.93        14.75674
365.38        14.33895
365.83        13.95992
366.28         13.6728
366.73        13.44394
367.18        13.29334
367.63        13.25575
368.08        13.31961
368.53        13.46987
368.98        13.64007
369.43        13.71803
369.88        13.68047
370.33        13.56426
370.78        13.39776
371.23        13.23951
371.68        13.11567
372.13        12.99586
372.58        12.93235
373.03        13.01142
373.48        13.22908
373.93        13.55842
374.38        13.85214
374.83        13.88107
375.28        13.61064
375.72        13.10293
376.17        12.55718
376.62        12.25956
377.07        12.28737
377.52        12.55057
377.97        12.90981
378.42         13.1365
378.87        13.16182
379.32        13.06055
379.77        12.90344
380.22        12.78997
380.67        12.74861
381.11        12.74001
381.56         12.7349
382.01        12.70211
382.46        12.63049
382.91        12.53628
383.36        12.43772
383.81        12.35591
384.26        12.29804
384.71        12.26088
385.15         12.2171
385.60        12.13332
386.05        11.99993
386.50        11.82081
386.95        11.64554
387.40        11.55959
387.85        11.58012
388.29         11.6818
388.74        11.78303
389.19        11.76975
389.64        11.63052
390.09        11.39668
390.54        11.16896
390.98         11.1152
391.43        11.27507
391.88        11.57723
392.33         11.8895
392.78        12.02007
393.23        11.93877
393.67        11.70833
394.12         11.4575
394.57        11.32174
395.02        11.33271
395.47         11.4455
395.91        11.59514
396.36        11.65205
396.81        11.58181
397.26        11.41734
397.71        11.23324
398.15        11.12372
398.60        11.12426
399.05        11.20522
399.50        11.28178
399.95        11.20436
400.39        11.00587
400.84        10.69075
401.29        10.39066
401.74         10.3227
402.18        10.54393
402.63        10.96116
403.08        11.41569
403.53        11.65649
403.97        11.61953
404.42        11.38419
404.87        11.05398
405.32        10.81132
405.76        10.72006
406.21        10.72398
406.66        10.78546
407.11        10.85651
407.55        10.91997
408.00        10.99522
408.45        11.06493
408.90        11.08046
409.34        11.03066
409.79        10.92333
410.24        10.80392
410.68        10.74189
411.13        10.75339
411.58        10.82545
412.03         10.9175
412.47        10.95774
412.92        10.91925
413.37        10.82328
413.81        10.72276
414.26        10.71084
414.71        10.79605
415.15        10.95192
415.60        11.09355
416.05        11.10583
416.49        10.96336
416.94        10.71563
417.39        10.44097
417.83        10.27392
418.28        10.25958
418.73        10.34556
419.17        10.48152
419.62        10.58051
420.07        10.61916
420.51        10.62606
420.96        10.59707
421.41        10.52072
421.85        10.40313
422.30        10.26134
422.74        10.13062
423.19        10.09021
423.64        10.13926
424.08        10.26202
424.53        10.39899
424.98        10.46622
425.42        10.44035
425.87        10.34089
426.31        10.19735
426.76        10.09067
427.21        10.02365
427.65        9.909306
428.10         9.80281
428.54        9.846987
428.99        10.04665
429.44        10.34133
429.88        10.60741
430.33        10.67868
430.77        10.53048
431.22        10.21447
431.66        9.874273
432.11         9.77081
432.56        9.928421
433.00        10.21708
433.45        10.50352
433.89        10.69227
434.34        10.70111
434.78        10.46986
435.23        10.16552
435.67        10.11543
436.12        10.28841
436.57         10.3232
437.01         10.1884
437.46        10.09031
437.90        10.05039
438.35        10.01281
438.79         9.96644
439.24        9.923144
439.68        9.886799
440.13        9.814555
440.57        9.733876
441.02        9.816089
441.46        9.986705
441.91        9.891896
442.35        9.584541
442.80        9.437943
443.24        9.432574
443.69        9.427879
444.13        9.384136
444.58        9.245977
445.02        9.052718
445.47        9.009089
445.91        9.078309
446.36        9.040028
446.80        8.882528
447.24        8.730239
447.69        8.626928
448.13        8.577515
448.58        8.595504
449.02        8.675441
449.47        8.767355
449.91        8.788561
450.36        8.723926
450.80          8.5934
451.25        8.458945
451.69        8.409479
452.13        8.465083
452.58        8.584001
453.02        8.714621
453.47        8.768803
453.91        8.730359
454.36        8.632753
454.80        8.505791
455.24        8.401437
455.69         8.34565
456.13        8.315084
456.58        8.324719
457.02        8.384163
457.46        8.491361
457.91        8.637691
458.35        8.782063
458.79        8.846187
459.24        8.823398
459.68        8.723771
460.13        8.613441
460.57        8.566555
461.01        8.613699
461.46        8.724893
461.90        8.855271
462.34        8.917768
462.79        8.892979
463.23        8.800297
463.68        8.703756
464.12        8.705181
464.56        8.827727
465.01        9.034324
465.45        9.226562
465.89        9.293126
466.34        9.225427
466.78         9.01658
467.22        8.775568
467.67         8.76441
468.11        8.970676
468.55         9.10747
468.99        9.133618
469.44        9.166956
469.88         9.22984
470.32         9.36334
470.77        9.514503
471.21        9.530707
471.65        9.396564
472.10        9.218492
472.54        9.066804
472.98        9.033413
473.42        9.141963
473.87        9.365049
474.31        9.615211
474.75        9.745257
475.20        9.727339
475.64        9.602675
476.08        9.453596
476.52        9.408032
476.97        9.495648
477.41        9.677546
477.85        9.883768
478.29        10.02042
478.74        10.06144
479.18         9.98785
479.62        9.858748
480.06        9.931951
480.50        10.01815
480.95        10.11853
481.39        10.13459
481.83        10.12451
482.27        10.08895
482.72        9.970406
483.16        9.819836
483.60        9.855834
484.04        10.08078
484.48        10.19872
484.93        10.38211
485.37        10.77411
485.81        11.24647
486.25        11.79383
486.69        15.27372
487.14         12.1007
487.58         8.12726
488.02        9.872303
488.46        11.16769
488.90        11.16188
489.34         11.2259
489.79        11.29294
490.23        12.07675
490.67        12.53477
491.11        12.47556
491.55        12.36085
491.99        12.19585
492.43        12.02837
492.88        11.92964
493.32        11.94467
493.76        12.00434
494.20        12.20372
494.64        12.50233
495.08        12.86893
495.52         13.2563
495.96        13.60872
496.41        13.86828
496.85        14.02879
497.29        14.10088
497.73        13.97205
498.17        13.81992
498.61         13.9819
499.05        14.46633
499.49        14.60625
499.93        14.75029
500.37        14.92061
500.82        15.05526
501.26        15.27399
501.70        15.49363
502.14        15.59153
502.58        15.57669
503.02        15.61484
503.46        15.71805
503.90        15.79281
504.34        15.82454
504.78        15.83032
505.22        15.81257
505.66        15.77976
506.10        15.74815
506.54        15.74212
506.98        15.77381
507.42        15.83723
507.86        15.94349
508.30        16.10944
508.74        16.32499
509.18        16.57176
509.62        16.80614
510.06        16.95717
510.50        17.00871
510.94        16.98899
511.38        16.92046
511.82        16.84108
512.26        16.77269
512.70        16.70489
513.14        16.67657
513.58        16.74855
514.02        16.91426
514.46        17.14821
514.90        17.37064
515.34        17.41751
515.78        17.23028
516.22         17.0179
516.66        16.87385
517.10        16.47953
517.54         15.8666
517.98        16.71296
518.42        16.51623
518.86        16.85202
519.30        16.95623
519.74        17.07768
520.18        17.18851
520.62        17.21067
521.06        17.16574
521.50        17.04942
521.93        16.90183
522.37        16.80197
522.81        16.76979
523.25        16.78908
523.69         16.8358
524.13        16.87065
524.57        16.87801
525.01        16.86382
525.45        16.83791
525.89        16.81558
526.32        16.79736
526.76        16.77993
527.20          16.737
527.64        16.63601
528.08        16.47987
528.52        16.26745
528.96        16.04617
529.40        15.93297
529.83        15.95122
530.27        15.90219
530.71        16.03728
531.15        16.00444
531.59        15.87864
532.03        15.68147
532.46        15.48418
532.90        15.40745
533.34        15.46887
533.78        15.62282
534.22        15.79191
534.66        15.86339
535.09         15.8063
535.53        15.66529
535.97        15.48292
536.41        15.32812
536.85        15.22972
537.28        15.17304
537.72         15.1523
538.16         15.1587
538.60        15.18733
539.04        15.22951
539.47        15.29328
539.91        15.42589
540.35        15.60829
540.79        15.76905
541.22        15.88457
541.66        15.98269
542.10         16.0593
542.54        16.08135
542.97        16.09324
543.41        16.19425
543.85        16.39648
544.29        16.68216
544.72        16.97588
545.16         17.1651
545.60        17.22836
546.04        17.19621
546.47        17.17122
546.91        17.32492
547.35        17.67686
547.79        18.16983
548.22        18.66479
548.66        18.92718
549.10        18.92282
549.53        18.75825
549.97        18.57115
550.41        18.52216
550.84        18.66511
551.28        18.96201
551.72        19.34854
552.15        19.70709
552.59        19.98589
553.03        20.21279
553.46         20.3967
553.90         20.5668
554.34        20.73706
554.77        20.86982
555.21        20.95606
555.65         21.0484
556.08        21.16016
556.52         21.0298
556.96        21.16915
557.39         21.2078
557.83        21.30547
558.27        21.43676
558.70        21.59598
559.14        21.75746
559.57        21.90146
560.01        22.04052
560.45        22.15745
560.88        22.22557
561.32        22.26083
561.75        22.25748
562.19        22.25021
562.63          22.263
563.06        22.30179
563.50        22.36648
563.93        22.45153
564.37        22.55726
564.80         22.6734
565.24        22.80916
565.68        22.94684
566.11         23.0601
566.55        23.16292
566.98        23.25673
567.42        23.37553
567.85        23.56471
568.29        23.84505
568.72        24.12871
569.16        24.41347
569.60        24.80057
570.03        25.17505
570.47        25.24285
570.90        25.12124
571.34        24.94605
571.77        25.29872
572.21        25.47261
572.64        25.66574
573.08        25.31085
573.51        24.57517
573.95        25.71013
574.38        27.42312
574.82        26.95886
575.25        26.68692
575.69        25.73502
576.12        25.27975
576.56        25.20807
576.99        25.80994
577.42        27.10598
577.86        27.14899
578.29        26.89212
578.73        28.27058
579.16        25.90918
579.60        23.56861
580.03        24.55133
580.47        26.21655
580.90        26.42388
581.33        25.96176
581.77        25.72169
582.20        28.05297
582.64        27.67971
583.07        23.51844
583.51        22.89158
583.94        22.29112
584.37        23.13706
584.81        24.22378
585.24        25.31382
585.68         25.6431
586.11        25.26804
586.54        23.43717
586.98        22.80037
587.41        22.85489
587.85        23.89226
588.28        24.57096
588.71        23.44589
589.15        22.73114
589.58        22.96536
590.01        23.32828
590.45        23.75104
590.88        23.66847
591.31        23.35105
591.75         23.2935
592.18        23.41059
592.61        23.91587
593.05        24.38651
593.48        25.39339
593.91        25.29411
594.35        23.56076
594.78        23.23886
595.21        23.35881
595.65        24.51878
596.08        25.44931
596.51         24.6128
596.94        24.17551
597.38        24.65824
597.81        25.87594
598.24        26.52862
598.68        26.36147
599.11        26.25679
599.54        27.95569
599.97        28.60874
600.41        27.40575
600.84        27.82739
601.27        28.70485
601.70         28.6581
602.14        28.88466
602.57         28.9426
603.00        29.78851
603.43        31.01238
603.87        32.16974
604.30        32.42628
604.73         31.9791
605.16        31.86713
605.60        32.92526
606.03        34.02468
606.46        34.98191
606.89        35.32861
607.32        34.54623
607.76        35.08716
608.19        36.42525
608.62        36.31274
609.05        36.04279
609.48        36.71401
609.92        37.11361
610.35        37.47157
610.78        39.10541
611.21        39.96709
611.64        38.51067
612.07        39.20843
612.50        39.69114
612.94        40.21834
613.37        40.21215
613.80        40.50526
614.23        41.14053
614.66        41.43198
615.09        41.94678
615.52         42.3188
615.96        42.62273
616.39        42.97015
616.82        42.60925
617.25        42.90416
617.68        43.55787
618.11         44.0799
618.54        44.34062
618.97        44.35259
619.40        44.29636
619.84        44.59463
620.27        45.19535
620.70          45.764
621.13        46.16018
621.56         45.8577
621.99        45.10935
622.42        45.79083
622.85        47.12175
623.28        47.16937
623.71        46.76116
624.14        46.53081
624.57        46.63879
625.00        46.16555
625.43         46.4062
625.86        45.91746
626.29        45.98104
626.72        46.01066
627.15        45.76487
627.58        45.67745
628.01        45.56136
628.44         45.3159
628.87        45.00863
629.30        44.70836
629.73        44.85183
630.16        44.57301
630.59        44.00081
631.02        43.37069
631.45        42.78062
631.88        42.26108
632.31         41.8305
632.74        41.49621
633.17        41.19938
633.60        40.74221
634.03        40.25963
634.46        39.65882
634.89        39.02678
635.32        38.42351
635.75        37.87666
636.18        37.36776
636.61        36.89169
637.04        36.44174
637.47        36.00569
637.89         35.5878
638.32        35.17048
638.75        34.74634
639.18         34.3204
639.61        33.90451
640.04        33.50211
640.47        33.11379
640.90        32.74538
641.33        32.39692
641.76        32.08495
642.18        31.88446
642.61        31.80149
643.04        31.73906
643.47        31.64547
643.90        31.84608
644.33        31.67061
644.76        31.67313
645.18        31.66198
645.61        31.66436
646.04        31.68093
646.47        31.69658
646.90         31.7871
647.33        32.04874
647.75        32.50854
648.18         33.1692
648.61        33.85267
649.04        34.29432
649.47          34.459
649.89        34.28441
650.32        34.10453
650.75        34.70515
651.18        36.02558
651.61        37.22722
652.03        38.03568
652.46        38.66254
652.89        39.33059
653.32        39.61501
653.74        39.73374
654.17        41.49799
654.60        42.41045
655.03        41.44403
655.46        42.85322
655.88        46.23693
656.31        50.30799
656.74        117.2618
657.16        76.37482
657.59        26.76495
658.02        20.34885
658.45        35.42442
658.87        46.08453
659.30        48.92427
659.73         49.0759
660.15        47.31445
660.58        49.86604
661.01        51.38713
661.44        50.03794
661.86        49.88307
662.29        50.37315
662.72        51.41455
663.14        52.76952
663.57         53.0209
664.00        52.36029
664.42        52.40714
664.85        53.24409
665.27        53.82663
665.70        53.99414
666.13        54.09496
666.55        54.12098
666.98        53.97902
667.41        53.80447
667.83        53.85758
668.26         54.1884
668.69         54.6857
669.11        55.18024
669.54        55.65173
669.96        55.52369
670.39        55.35165
670.82        55.11357
671.24         54.9622
671.67        55.03764
672.09        55.42287
672.52        55.92688
672.94        56.57269
673.37        56.32762
673.80        56.34267
674.22        56.39424
674.65        56.46963
675.07        56.56364
675.50        56.55587
675.92        56.49645
676.35        56.56508
676.77        56.78069
677.20        57.03031
677.62        57.27678
678.05        57.46521
678.47        57.56617
678.90        57.61193
679.32        57.64219
679.75        57.60677
680.17        57.74493
680.60        57.87102
681.02        58.00089
681.45        57.98124
681.87        57.82558
682.30        57.69027
682.72        57.63746
683.15        57.62246
683.57        57.72392
684.00        58.04221
684.42        58.66599
684.85         59.0052
685.27        59.05171
685.70        58.99133
686.12        58.88905
686.54        58.83629
686.97        58.86193
687.39        58.94526
687.82        59.03317
688.24        59.10433
688.66         59.1225
689.09         59.0716
689.51        59.01227
689.94        59.06118
690.36        59.24333
690.78        59.47329
691.21        59.68804
691.63        59.87864
692.06        59.98491
692.48        59.87038
692.90         59.6413
693.33         59.5824
693.75        59.72616
694.17        60.00021
694.60         60.3256
695.02        60.42691
695.44        60.30649
695.87        60.55575
696.29        61.09407
696.71        60.91943
697.14        60.24807
697.56        60.52743
697.98        61.51817
698.41        61.70095
698.83        60.81067
699.25        60.48442
699.68        60.69041
700.10        60.75117
700.52        60.66826
700.94        60.79442
701.37        61.08661
701.79        61.40633
702.21        61.70103
702.64         61.8378
703.06        62.01069
703.48        61.97892
703.90        61.84715
704.33        61.32219
704.75        61.07419
705.17        60.89208
705.59        61.00104
706.01        61.21942
706.44        61.45732
706.86        62.06142
707.28        62.14092
707.70        62.44485
708.12        62.66989
708.55        62.57063
708.97        62.21305
709.39        62.01387
709.81         62.0436
710.23        62.05315
710.66        62.05754
711.08        62.28945
711.50         62.6202
711.92        62.70745
712.34        62.50076
712.76        62.14542
713.19        61.84583
713.61        61.63258
714.03         62.0789
714.45        62.65586
714.87        63.26901
715.29        63.51516
715.71        63.31192
716.13        62.78318
716.56        62.15125
716.98        61.81694
717.40        61.88198
717.82         62.2259
718.24        62.68851
718.66        62.99677
719.08        63.06449
719.50        62.98358
719.92        62.82853
720.34        62.73026
720.76        62.73534
721.19        62.68892
721.61        62.78424
722.03        62.90381
722.45        63.09048
722.87        63.33761
723.29        63.59171
723.71        63.75237
724.13        63.79136
724.55        63.72994
724.97        63.61657
725.39        63.53899
725.81        63.52405
726.23        63.54979
726.65        63.58971
727.07        63.59764
727.49        63.56721
727.91        63.52778
728.33        63.49918
728.75        63.50956
729.17        63.56526
729.59        63.64403
730.01        63.75574
730.43        63.91104
730.85        64.10635
731.27        64.35925
731.69        64.59443
732.10        64.67208
732.52        64.56683
732.94        64.35161
733.36        64.17151
733.78         64.1355
734.20        64.27859
734.62        64.85133
735.04        65.62109
735.46        65.55423
735.88         64.8579
736.30        65.00167
736.72        65.98966
737.13        66.42229
737.55        66.08435
737.97        66.22697
738.39         66.7669
738.81        66.04775
739.23        64.55176
739.65        65.14106
740.06        67.37579
740.48        67.63744
740.90        65.99614
741.32         65.3062
741.74        65.81026
742.16        66.07872
742.57        66.13072
742.99        66.81408
743.41        67.87543
743.83        68.26482
744.25        67.95666
744.67        67.67989
745.08         67.6214
745.50        67.61726
745.92         67.7449
746.34        68.17848
746.75        68.76609
747.17        69.09781
747.59        69.12402
748.01        68.99845
748.42        68.87125
748.84        68.96583
749.26         69.3803
749.68         69.9446
750.09         70.5362
750.51        71.26364
750.93        71.86386
751.35        71.49398
751.76         70.4203
752.18        69.98529
752.60        70.23083
753.01        70.22131
753.43        69.97365
753.85        70.10143
754.27        70.62527
754.68        71.35342
755.10        72.08815
755.52        72.54723
755.93        72.67368
756.35        72.66724
756.77        72.69381
757.18        72.70333
757.60        72.73725
758.02        73.29974
758.43        73.94037
758.85        73.38665
759.26        71.18506
759.68        70.94427
760.10        72.56984
760.51        73.40345
760.93        73.21279
761.34        71.73792
761.76        71.64668
762.18        71.06187
762.59        70.90538
763.01        71.34599
763.42        72.29732
763.84        72.97627
764.26        73.22707
764.67         73.3061
765.09         73.2177
765.50        73.03724
765.92        72.72855
766.33        71.69869
766.75         70.3364
767.16        69.91788
767.58         70.5586
768.00        71.56683
768.41        72.76368
768.83        73.95229
769.24        75.08047
769.66        74.57047
770.07         73.0462
770.49        71.60257
770.90        70.67763
771.32        71.52749
771.73        73.50745
772.15        73.01987
772.56        70.50015
772.97         69.9109
773.39        71.24822
773.80        71.93142
774.22        71.69727
774.63        71.82306
775.05        72.25192
775.46        72.53797
775.88        72.58885
776.29        72.39655
776.70        72.04479
777.12         71.8268
777.53        71.81396
777.95        71.87054
778.36        71.91995
778.77        71.82931
779.19         71.6133
779.60        71.33164
780.02        71.09957
780.43        71.19909
780.84        71.72468
781.26        72.08236
781.67        72.28133
782.09        73.43344
782.50        74.96812
782.91        74.03383
783.33        71.57687
783.74          70.721
784.15        71.68939
784.57        72.47604
784.98         72.7952
785.39        72.52518
785.81        72.56358
786.22        72.22803
786.63        71.46887
787.04        71.40273
787.46        71.89771
787.87        72.74426
788.28        73.66908
788.70         74.1858
789.11        74.15898
789.52        73.92397
789.93         73.5763
790.35         72.8605
790.76        72.02608
791.17        71.87699
791.58        72.37341
792.00        72.65337
792.41        72.59273
792.82         72.7477
793.23        73.15208
793.65        73.00854
794.06        72.59526
794.47        73.60282
794.88        75.34503
795.29        75.01158
795.71        72.70793
796.12        70.79209
796.53         69.7953
796.94        69.37296
797.35        69.63342
797.76        70.68793
798.18        72.01302
798.59        72.84769
799.00        72.86735
799.41        72.13529
799.82        71.05364
800.23        70.41176
800.64        70.39441
801.06        70.67886
801.47        71.16159
801.88        71.57944
802.29        71.81424
802.70        71.97716
803.11        72.05595
803.52        72.00201
803.93        71.84336
804.34        71.56315
804.75        71.27982
805.17        71.29832
805.58        71.71106
805.99        72.12067
806.40        72.38702
806.81        73.04905
807.22         73.6548
807.63         72.5273
808.04        70.26832
808.45        69.30627
808.86        69.87132
809.27        70.78047
809.68        71.61238
810.09        72.09307
810.50        72.01476
810.91        71.49737
811.32          70.825
811.73        70.44807
812.14        70.48988
812.55        70.77103
812.96        71.20245
813.37          71.615
813.78         71.9136
814.19        72.20832
814.60        72.32796
815.01        71.98884
815.42        71.18735
815.83          69.972
816.24         68.7871
816.65        68.41789
817.05        69.08736
817.46        70.55379
817.87        72.21529
818.28        72.98528
818.69          72.566
819.10        71.22113
819.51        69.62582
819.92         68.9325
820.33        69.44062
820.74        70.79672
821.14        72.34843
821.55         72.9435
821.96         72.3314
822.37        70.91348
822.78        69.29872
823.19        68.37563
823.60         68.3845
824.00        69.10444
824.41        70.09787
824.82        70.70303
825.23        70.66023
825.64        70.19748
826.04        69.61867
826.45        69.35979
826.86        69.52464
827.27        69.93345
827.68        70.38515
828.08        70.58961
828.49        70.40491
828.90        70.00217
829.31        69.50295
829.72        69.11494
830.12        68.95901
830.53        68.93023
830.94        69.08649
831.35         69.5023
831.75        70.19456
832.16         71.0913
832.57        71.99975
832.97        72.49609
833.38        72.40353
833.79        71.84011
834.20        71.10723
834.60        70.67176
835.01        70.67365
835.42        70.97701
835.82        71.37058
836.23        71.40953
836.64        71.02074
837.04        70.37888
837.45        69.70123
837.86        69.32933
838.26        69.35629
838.67        69.62058
839.08        70.01846
839.48        70.36075
839.89        70.53499
840.29        70.62872
840.70        70.58627
841.11        70.30294
841.51        69.80573
841.92        69.09922
842.33        68.43153
842.73        68.22934
843.14        68.54126
843.54        69.28078
843.95        70.09421
844.35        70.43779
844.76        70.16385
845.17        69.46909
845.57        68.64578
845.98        68.14729
846.38        68.09639
846.79        68.31969
847.19        68.71968
847.60        69.04527
848.00        69.22684
848.41        69.32488
848.81        69.34595
849.22        69.21183
849.62        68.97749
850.03        68.64654
850.43        68.36356
850.84        68.34533
851.24        68.68205
851.65        69.15799
852.05        69.77217
852.46        70.33874
852.86        70.78441
853.27        71.19314
853.67        71.21745
854.07         70.4388
854.48        68.93934
854.88        66.88181
855.29        64.97495
855.69        64.24552
856.10        64.88236
856.50        66.77415
856.90        69.26824
857.31        70.81906
857.71        70.91871
858.12        69.91171
858.52        68.49397
858.92        67.59176
859.33        67.41583
859.73        67.70812
860.13        68.28343
860.54        68.76659
860.94        69.06223
861.34        69.29774
861.75        69.49056
862.15        69.73177
862.55        70.01033
862.96        70.25771
863.36        70.50715
863.76          70.808
864.17        71.14409
864.57        71.53616
864.97        71.91191
865.38        72.15406
865.78        72.28465
866.18         72.2559
866.58        72.14703
866.99        72.09085
867.39        72.17191
867.79        72.39964
868.19        72.55525
868.60        72.22279
869.00        71.34547
869.40        70.09237
869.80        69.08403
870.21        69.25752
870.61        70.86913
871.01        73.60595
871.41        76.65162
871.81        78.61166
872.22        79.08128
872.62        78.40591
873.02        77.26197
873.42        76.97897
873.82        77.61876
874.22        78.30072
874.63        78.76731
875.03        78.63029
875.43        77.71269
875.83        77.56101
876.23        75.52286
876.63          74.255
877.03        73.37907
877.44        73.03133
877.84        107.9566
878.24        79.95898
878.64        81.52886
879.04        83.85526
879.44        78.71687
879.84        76.47405
880.24        82.87315
880.64        85.65091
881.04        86.13972
881.44        85.85559
881.84         84.4052
882.24        82.01568
882.65        79.86917
883.05        78.90203
883.45        79.24679
883.85        81.08316
884.25        83.64465
884.65        85.10077
885.05         84.9073
885.45        83.63009
885.85        82.12703
886.25        81.60055
886.65        82.29754
887.05        83.79383
887.45        85.53056
887.85        86.53934
888.25        86.48836
888.65        85.72859
889.04        84.66428
889.44        83.94473
889.84        83.75019
890.24        83.84665
890.64        84.08366
891.04        84.26085
891.44        84.29427
891.84        84.28796
892.24        84.21261
892.64        83.97453
893.04        83.62132
893.44        83.23061
893.83         82.9181
894.23        82.87092
894.63        83.09624
895.03        83.45882
895.43        83.99894
895.83        84.76049
896.23        85.66256
896.63         86.7039
897.02        87.38254
897.42        86.90994
897.82        85.25101
898.22        82.73618
898.62        80.29847
899.01        79.29669
899.41        79.97935
899.81        81.86608
900.21        84.15354
900.61        85.53166
901.00        85.61546
901.40        84.80633
901.80        83.59071
902.20        82.72658
902.59        82.45508
902.99        82.53799
903.39        82.76112
903.79        82.78053
904.18        82.51618
904.58        82.20078
904.98        82.03103
905.38          82.273
905.77        82.93502
906.17        83.81125
906.57        84.74223
906.96        85.57767
907.36        86.16034
907.76        86.53999
908.15        86.58768
908.55         85.9833
908.95        84.79353
909.34        83.15115
909.74        81.49251
910.14          80.314
910.53        79.79168
910.93        79.84681
911.33        80.43184
911.72        81.41924
912.12        82.53643
912.52        83.67118
912.91        84.61478
913.31        85.12148
913.70        85.21273
914.10        84.90186
914.49        84.14173
914.89        83.00211
915.29         81.7403
915.68        80.45657
916.08        79.61902
916.47        79.52574
916.87        80.13596
917.26        81.34312
917.66        82.63146
918.05        83.17561
918.45        82.76041
918.84        81.68031
919.24        80.43378
919.64        79.74065
920.03         79.8161
920.42        80.41403
920.82        81.34391
921.21        82.42015
921.61        83.31877
922.00        84.08899
922.40        84.45669
922.79        84.10784
923.19        83.15275
923.58        81.49799
923.98        79.34447
924.37        78.08161
924.77         78.4231
925.16        75.72829
925.55        78.09133
925.95        79.22061
926.34        81.38242
926.74        84.04213
927.13        86.55357
927.52        87.52852
927.92        86.77189
928.31        84.74967
928.70        82.09093
929.10        79.91351
929.49        78.54788
929.89        77.72683
930.28        77.56633
930.67        78.24187
931.07        79.54511
931.46        81.53104
931.85        83.34412
932.24        83.67338
932.64        82.31097
933.03        79.41222
933.42        75.87557
933.82        73.70661
934.21        73.47681
934.60        74.63845
934.99        76.08401
935.39        76.77869
935.78        76.56406
936.17        74.96555
936.56        71.84252
936.96        73.48491
937.35        71.99562
937.74        73.54245
938.13        74.91168
938.53        75.92691
938.92        76.64409
939.31        77.30961
939.70         77.8899
940.09        77.97433
940.49         77.5264
940.88        76.71134
941.27        75.89791
941.66        75.55334
942.05        75.71847
942.44        76.22095
942.84         76.9087
943.23        77.57572
943.62        78.03555
944.01        78.35266
944.40        78.36659
944.79        77.81444
945.18        76.64318
945.57        74.83271
945.97        72.80756
946.36        71.58864
946.75        71.65405
947.14        72.62666
947.53        73.85162
947.92        74.65559
948.31        74.98055
948.70        75.05481
949.09        75.01577
949.48        75.13001
949.87        75.47845
950.26        75.85503
950.65        76.24222
951.04        76.68202
951.43        77.13958
951.82        77.62762
952.21        77.85655
952.60        77.36408
952.99        76.11449
953.38        74.27747
953.77        72.38947
954.16        71.21773
954.55        70.92688
954.94        71.39459
955.33        72.06345
955.72        71.96735
956.11        70.89752
956.50        69.11236
956.89        67.44561
957.28        67.40919
957.66        69.44012
958.05        72.78004
958.44        76.31896
958.83         78.4488
959.22        78.74508
959.61        77.60646
960.00        75.70721
960.39        74.15848
960.78         73.3519
961.16        73.06534
961.55        72.85641
961.94        71.98412
962.33         70.3764
962.72        68.44514
963.11        66.89245
963.49        66.58803
963.88        67.64584
964.27        69.86166
964.66        72.51888
965.04        74.03802
965.43        73.73199
965.82        72.13825
966.21        70.24097
966.60        69.34618
966.98        69.71545
967.37        70.89703
967.76        72.38818
968.15         73.2169
968.53          73.029
968.92        72.14023
969.31        70.95485
969.69        69.94374
970.08        69.23774
970.47        68.70872
970.86        68.16325
971.24        67.29955
971.63        66.09176
972.02        64.68883
972.40        63.50187
972.79        63.22423
973.17        64.12552
973.56        65.93595
973.95        68.15183
974.33        69.75565
974.72        70.22456
975.11         69.7329
975.49        68.80822
975.88        68.27378
976.26         68.2685
976.65        68.64204
977.04        68.79522
977.42        67.47012
977.81        64.54844
978.19        60.77314
978.58        57.81395
978.96        57.24245
979.35        59.23105
979.74        63.46635
980.12        69.08415
980.51        72.93165
980.89        73.86574
981.28        72.61078
981.66        70.35485
982.05        68.65604
982.43        67.91093
982.82        67.58417
983.20        67.78692
983.59        68.76701
983.97        70.59451
984.35        73.42339
984.74        76.52266
985.12        78.26595
985.51        77.66249
985.89        74.84383
986.28         70.9101
986.66        67.72349
987.04        66.16791
987.43        65.88246
987.81        65.97855
988.20        65.20384
988.58        63.06321
988.96        59.18285
989.35        54.25787
989.73        52.21801
990.12        55.81072
990.50        63.25522
990.88        69.60268
991.27        70.99958
991.65        68.01475
992.03        61.81021
992.42        55.00394
992.80        52.32384
993.18        55.01812
993.56        60.42981
993.95        66.11794
994.33        69.99915
994.71        71.56523
995.10        71.91782
995.48        71.16389
995.86        69.14362
996.24        65.95461
996.63        61.23656
997.01        56.01048
997.39        53.73266
997.77        55.89572
998.15        61.80782
998.54        68.40435
998.92        71.44948
999.30        69.67739
999.68        64.23505
1000.06        56.65131
1000.45        50.81191
1000.83        48.46271
1001.21        48.36642
1001.59        49.95506
1001.97        52.80618
1002.35        56.70713
1002.73        62.49696
1003.12        68.75832
1003.50        70.37667
1003.88         65.2279
1004.26        55.83924
1004.64        46.72288
1005.02        41.58273
1005.40        40.56591
1005.78        43.03142
1006.16        50.07008
1006.54        59.76882
1006.92        66.52542
1007.30        69.46861
1007.69        69.95378
1008.07         69.7368
1008.45        69.06381
1008.83         66.8548
1009.21        59.11812
1009.59        31.03617
1009.97       -48.51759
1010.35       -158.9141
1010.73       -137.1738
1011.11       -63.14222
1011.49        -10.0433
1011.86        26.78188
1012.24        47.54007
1012.62        56.49375
1013.00        58.30579
1013.38        55.07743
1013.76        48.69634
1014.14        46.09098
1014.52        53.26298
1014.90         71.5348
1015.28        94.77116
1015.66        103.9261
1016.04        88.37292
1016.41        54.08709
1016.79        21.47885
1017.17        9.461221
1017.55        13.69215
1017.93        22.95264
1018.31        31.40679
1018.69         36.1887
1019.06        37.66301
1019.44        36.20108
1019.82        32.19003
1020.20        27.71959
1020.58        25.29265
1020.95        27.80667
1021.33        23.18686
1021.71        472.7597
1022.09        140.8423
1022.46        133.2839
1022.84           136.1
1023.22        144.7386
1023.60        168.5882
1023.97        407.1843
1024.35        1.512617
1024.73        45.03592
