SpectraSmart Spectrum 2.9.0.0
--------- Device Information -----------
Spectrum Name :  反射率_0
Saving Time :  2024/04/26 00:06:02
Spectro-Module Model Name : SE2030-DUVN
Spectro-Module Serial Number : OS361AC55029948
Wavelength Start : 200
Wavelength End : 1025
Wavelength Unit : Wavelength(nm)
Spectrum Unit : Reflectance(%)
-----------Spectrum Setting ------------
Integration Time : 20ms
Average : 10
Boxcar : 0
Background removal :  enabled
linearity correction :  enabled
SC :  disabled
Intensity correction :  disabled
DWT denoise :  enabled
savitzky-golay :  disabled
FFT :  disabled
Running average :  disabled
Kalman :  disabled
High pass :  disabled
---------------BEGIN--------------------
Wavelength(nm)             Reflectance(%)
200.29               0
200.75        85.20471
201.21        78.48488
201.67        70.88707
202.13        66.22245
202.58        64.94717
203.04        66.51402
203.50        69.40004
203.96        70.91671
204.42        70.36726
204.88        68.60672
205.34        67.02455
205.80        67.12343
206.26        69.57787
206.72        75.97316
207.18        87.89944
207.64        94.44769
208.10        80.43818
208.55        61.70042
209.01         51.8266
209.47        50.55695
209.93        54.51843
210.39          62.556
210.85        71.36861
211.31        73.39594
211.77        66.27831
212.23        52.82084
212.69        39.04439
213.14        34.20129
213.60        39.94211
214.06        53.73094
214.52        69.71999
214.98        78.79093
215.44        78.69409
215.90        72.45609
216.36        64.27074
216.81         59.9489
217.27        60.77163
217.73        64.34074
218.19        67.65496
218.65        66.91487
219.11        60.78848
219.57        48.87261
220.02         32.5486
220.48        21.20595
220.94        20.91308
221.40        29.77276
221.86        39.75042
222.32         42.0409
222.77        37.11045
223.23          29.344
223.69        22.98925
224.15        22.34559
224.61        26.91928
225.06         34.4727
225.52        41.88123
225.98        45.31182
226.44        44.09134
226.90        39.95047
227.36        35.04214
227.81         32.2327
228.27        32.44457
228.73        34.46701
229.19        37.27337
229.65        39.37787
230.10        40.31907
230.56        40.63702
231.02        40.67671
231.48        40.74869
231.93         40.9371
232.39        41.13208
232.85        41.22787
233.31         41.1543
233.77        40.88324
234.22        40.40341
234.68        39.93907
235.14        39.81472
235.60        40.12186
236.05        40.83163
236.51         41.5047
236.97        41.45062
237.43        40.53031
237.88        38.80573
238.34        36.91677
238.80        36.74702
239.26        39.19741
239.71        43.97629
240.17        49.48198
240.63        53.20772
241.08        54.37632
241.54        53.45272
242.00        51.67741
242.46        50.84609
242.91        51.82245
243.37        55.35142
243.83        66.62127
244.28        100.2605
244.74        132.3549
245.20        109.0939
245.66        90.27125
246.11         84.3289
246.57        84.97768
247.03        92.63121
247.48        119.7789
247.94        117.2977
248.40         90.7055
248.85         81.4127
249.31        78.84805
249.77        79.42722
250.22        82.14233
250.68        86.99245
251.14        93.71301
251.59        97.43959
252.05        93.83702
252.51        85.73347
252.96        76.99339
253.42        71.24413
253.88        68.03983
254.33        66.00435
254.79        66.23985
255.25        69.59072
255.70        74.89771
256.16        81.17283
256.62         85.4769
257.07        84.89742
257.53        80.54091
257.99        73.73697
258.44        67.23001
258.90        65.00871
259.35        65.97842
259.81        68.29416
260.27        69.44857
260.72        67.08346
261.18        62.10053
261.63        55.72365
262.09         49.8424
262.55        45.94962
263.00        44.01771
263.46        43.34354
263.91        42.98611
264.37         42.2221
264.83        40.85145
265.28        39.07235
265.74          37.344
266.19        36.09355
266.65          35.522
267.11        35.33913
267.56        35.19933
268.02        34.69384
268.47        33.72048
268.93        32.43243
269.38        31.01581
269.84        29.99554
270.30        29.50722
270.75        29.42128
271.21        29.46531
271.66        29.23541
272.12        28.62465
272.57        27.76324
273.03        26.90804
273.48        26.36131
273.94        26.20792
274.39        26.29712
274.85        26.41658
275.31        26.25244
275.76        25.73466
276.22        24.99886
276.67        24.21543
277.13        23.71668
277.58        23.51321
278.04         23.5166
278.49        23.51358
278.95        23.26033
279.40        22.69522
279.86        21.97025
280.31        21.20791
280.77        20.69139
281.22           20.44
281.68        20.38098
282.13         20.4035
282.59        20.38109
283.04        20.27377
283.50        20.15553
283.95         20.0248
284.41        19.89102
284.86        19.75836
285.32        19.62101
285.77        19.53669
286.22        19.65573
286.68        19.96145
287.13         20.3775
287.59        20.73736
288.04        20.78899
288.50        20.51554
288.95        19.99358
289.41        19.40416
289.86        18.91929
290.32        18.64892
290.77        18.53481
291.22        18.56946
291.68        18.70021
292.13        18.91103
292.59        19.21855
293.04        19.63046
293.50         20.1531
293.95         20.7589
294.40        21.40189
294.86        22.01637
295.31        22.52207
295.77         22.9092
296.22        23.20699
296.68        23.45777
297.13        23.70467
297.58        23.98754
298.04        24.31144
298.49         24.7083
298.95        25.26111
299.40         25.9612
299.85        26.77659
300.31        27.61213
300.76        28.32477
301.21        28.85989
301.67        29.27906
302.12        29.59103
302.58        29.87122
303.03        30.12861
303.48         30.3513
303.94        30.61989
304.39        31.02171
304.84        31.56462
305.30        32.21277
305.75         32.8046
306.20         33.1022
306.66         33.0878
307.11        32.82776
307.57        32.51234
308.02        32.34983
308.47          32.421
308.93        32.65574
309.38        32.96186
309.83         33.2253
310.29        33.39346
310.74        33.49277
311.19        33.53468
311.65         33.5321
312.10        33.49063
312.55         33.4039
313.00        33.25748
313.46        33.04531
313.91        32.77053
314.36        32.46367
314.82        32.19888
315.27        32.06529
315.72        32.08482
316.18        32.22688
316.63        32.41489
317.08        32.49924
317.53        32.43595
317.99        32.25142
318.44        32.03115
318.89        31.91748
319.35        31.93083
319.80        32.02974
320.25        32.09853
320.70        31.95266
321.16        31.55985
321.61        30.99201
322.06        30.38228
322.51        29.92709
322.97        29.66664
323.42        29.55585
323.87        29.50309
324.32        29.35507
324.78        29.06916
325.23        28.70503
325.68        28.32685
326.13        28.03964
326.59        27.86718
327.04         27.7868
327.49        27.75459
327.94        27.70762
328.39         27.6232
328.85        27.51017
329.30         27.4117
329.75         27.3583
330.20         27.3597
330.66          27.384
331.11        27.42227
331.56         27.4155
332.01        27.34456
332.46        27.21099
332.92        27.03723
333.37        26.89968
333.82        26.81176
334.27        26.77551
334.72        26.73201
335.17        26.58075
335.63        26.30634
336.08        25.94567
336.53         25.6239
336.98        25.54353
337.43        25.73759
337.88        26.14564
338.34         26.5692
338.79        26.73007
339.24        26.53518
339.69         26.0643
340.14        25.52289
340.59        25.27308
341.05         25.3988
341.50        25.78188
341.95        26.22503
342.40        26.44065
342.85        26.36168
343.30        26.09246
343.75        25.72823
344.20        25.43605
344.66        25.27559
345.11        25.15263
345.56          25.072
346.01        25.04123
346.46        25.03942
346.91        25.09351
347.36         25.0751
347.81        24.76949
348.26        24.17499
348.72        23.39645
349.17        22.65335
349.62        22.38901
350.07        22.69094
350.52        23.39629
350.97        24.24619
351.42        24.84361
351.87        25.06729
352.32          25.027
352.77        24.79614
353.22        24.49945
353.67        24.20019
354.13        23.86682
354.58        23.53594
355.03        23.30916
355.48        23.20616
355.93        23.22507
356.38         23.2961
356.83        23.28844
357.28        23.16442
357.73        22.94737
358.18        22.69639
358.63        22.51001
359.08        22.41143
359.53        22.37458
359.98          22.328
360.43        22.16268
360.88        21.86521
361.33        21.47648
361.78        21.10411
362.23        20.91957
362.68        20.94934
363.13         21.1216
363.58        21.31419
364.03        21.33739
364.48        21.14542
364.93        20.80975
365.38        20.39434
365.83        20.00248
366.28        19.68162
366.73        19.39973
367.18        19.19522
367.63        19.13177
368.08        19.20335
368.53        19.38953
368.98        19.58781
369.43        19.63086
369.88         19.4863
370.33        19.20416
370.78        18.87023
371.23        18.63766
371.68        18.55523
372.13        18.57093
372.58        18.65948
373.03        18.77509
373.48        18.88425
373.93        19.00108
374.38        19.07409
374.83        19.02035
375.28        18.83331
375.72        18.52508
376.17        18.20002
376.62        17.99318
377.07        17.94133
377.52        18.00224
377.97        18.11508
378.42        18.17637
378.87        18.15264
379.32        18.07955
379.77        17.97293
380.22        17.85232
380.67         17.7295
381.11        17.59664
381.56        17.46661
382.01        17.37383
382.46        17.32336
382.91         17.3042
383.36        17.29894
383.81        17.27436
384.26        17.22178
384.71        17.15771
385.15        17.07053
385.60        16.95419
386.05         16.8059
386.50        16.61923
386.95        16.44603
387.40        16.37724
387.85        16.42568
388.29        16.55741
388.74        16.68453
389.19        16.66842
389.64        16.49368
390.09        16.19423
390.54        15.88164
390.98        15.74601
391.43         15.8362
391.88        16.07734
392.33        16.32897
392.78        16.38449
393.23        16.21637
393.67        15.89881
394.12        15.57556
394.57        15.38769
395.02        15.36784
395.47        15.46276
395.91        15.61468
396.36        15.70203
396.81         15.6874
397.26        15.59582
397.71        15.47137
398.15         15.3613
398.60        15.30219
399.05        15.28179
399.50        15.25121
399.95        15.09945
400.39        14.88619
400.84        14.59051
401.29        14.32607
401.74        14.26801
402.18        14.46315
402.63        14.83201
403.08        15.24141
403.53        15.47796
403.97        15.48502
404.42        15.32438
404.87        15.07675
405.32        14.88702
405.76        14.80479
406.21        14.78757
406.66        14.80821
407.11        14.83478
407.55        14.85631
408.00         14.8846
408.45        14.90574
408.90        14.87816
409.34         14.7968
409.79        14.67654
410.24        14.55668
410.68        14.49379
411.13        14.50213
411.58        14.56642
412.03        14.66215
412.47         14.7468
412.92        14.79093
413.37        14.80292
413.81        14.79438
414.26        14.80001
414.71        14.81849
415.15        14.84284
415.60        14.83481
416.05        14.75367
416.49        14.59677
416.94        14.39663
417.39        14.19693
417.83        14.07076
418.28        14.04552
418.73        14.08639
419.17        14.17657
419.62        14.28197
420.07        14.38492
420.51         14.4921
420.96        14.55684
421.41        14.50068
421.85        14.31592
422.30        14.05305
422.74        13.78751
423.19        13.65712
423.64        13.67333
424.08        13.80802
424.53        13.98626
424.98        14.10056
425.42        14.11924
425.87         14.0649
426.31        13.97406
426.76        13.94803
427.21        13.98435
427.65        13.95597
428.10        13.91069
428.54        14.01316
428.99        14.26381
429.44        14.58842
429.88         14.8439
430.33        14.85028
430.77        14.58651
431.22        14.11831
431.66         13.6285
432.11         13.4484
432.56        13.60611
433.00        13.93181
433.45        14.26662
433.89        14.51766
434.34        14.58284
434.78        14.35875
435.23        14.04264
435.67        14.05815
436.12        14.35699
436.57        14.44661
437.01        14.28213
437.46        14.15266
437.90        14.09461
438.35        14.02923
438.79        13.95656
439.24        13.91631
439.68        13.91667
440.13        13.88801
440.57        13.85319
441.02        14.03336
441.46        14.31474
441.91        14.19624
442.35          13.754
442.80        13.51807
443.24        13.47058
443.69        13.41212
444.13        13.30989
444.58        13.11808
445.02        12.89905
445.47        12.92824
445.91        13.14106
446.36        13.19411
446.80        13.05613
447.24        12.91416
447.69        12.81864
448.13        12.76094
448.58        12.75962
449.02        12.81043
449.47        12.87254
449.91        12.87886
450.36         12.8186
450.80        12.71059
451.25        12.60282
451.69        12.55904
452.13        12.59448
452.58        12.67232
453.02        12.76109
453.47        12.80746
453.91        12.79982
454.36        12.76271
454.80         12.6933
455.24        12.58767
455.69        12.46454
456.13        12.32069
456.58        12.22017
457.02        12.23789
457.46        12.38509
457.91        12.62945
458.35         12.8877
458.79        13.01815
459.24        12.99868
459.68        12.85795
460.13        12.68989
460.57        12.60606
461.01        12.64808
461.46        12.77039
461.90        12.91386
462.34        12.97489
462.79        12.92661
463.23        12.79832
463.68        12.65666
464.12        12.61099
464.56        12.69157
465.01        12.86723
465.45        13.03799
465.89        13.10469
466.34        13.05829
466.78        12.86077
467.22        12.62858
467.67        12.67707
468.11        12.97137
468.55        13.11713
468.99        13.06549
469.44        13.00681
469.88         12.9846
470.32        13.04713
470.77        13.15276
471.21           13.14
471.65        12.99664
472.10        12.85815
472.54        12.76268
472.98        12.73228
473.42        12.78144
473.87        12.90442
474.31        13.05824
474.75        13.16785
475.20        13.21626
475.64        13.21452
476.08        13.19243
476.52        13.19788
476.97         13.2434
477.41        13.31708
477.85        13.38877
478.29        13.43733
478.74         13.4593
479.18        13.39709
479.62        13.28924
480.06        13.42087
480.50        13.51954
480.95        13.61055
481.39        13.58315
481.83        13.54572
482.27        13.50412
482.72        13.36227
483.16        13.17642
483.60        13.21981
484.04         13.4943
484.48        13.60383
484.93         13.7787
485.37        14.21851
485.81        14.79438
486.25        15.30612
486.69        20.17172
487.14        15.86851
487.58         10.5143
488.02         12.8097
488.46        14.33279
488.90        14.21638
489.34        14.25275
489.79        14.20177
490.23        15.04901
490.67        15.58567
491.11        15.57028
491.55        15.44087
491.99        15.19829
492.43        14.99155
492.88        14.90283
493.32        14.93529
493.76         14.9825
494.20        15.15781
494.64        15.41022
495.08        15.70992
495.52         16.0253
495.96        16.32633
496.41        16.55454
496.85        16.69456
497.29        16.75256
497.73        16.57928
498.17        16.37918
498.61        16.55773
499.05        17.11445
499.49        17.24505
499.93        17.35945
500.37        17.48191
500.82        17.56208
501.26        17.77292
501.70        18.02271
502.14        18.16351
502.58         18.1696
503.02        18.17455
503.46        18.18545
503.90        18.11608
504.34        18.00521
504.78        17.95887
505.22        17.99614
505.66        18.09525
506.10        18.22218
506.54        18.31537
506.98        18.35808
507.42        18.36962
507.86        18.38707
508.30        18.46831
508.74        18.62042
509.18        18.81425
509.62        19.00853
510.06        19.13775
510.50         19.1865
510.94        19.18608
511.38        19.15398
511.82        19.11621
512.26        19.08858
512.70        19.05818
513.14        19.05995
513.58        19.15166
514.02        19.32411
514.46        19.54964
514.90        19.74924
515.34        19.76174
515.78        19.53361
516.22        19.27579
516.66        19.08338
517.10        18.65156
517.54         18.0156
517.98        18.80913
518.42        18.60743
518.86        18.96716
519.30        19.14071
519.74        19.35974
520.18        19.56119
520.62         19.6129
521.06        19.52391
521.50        19.30661
521.93        19.03553
522.37        18.84811
522.81        18.78242
523.25        18.80619
523.69        18.87578
524.13        18.91939
524.57        18.91286
525.01        18.87648
525.45        18.82693
525.89        18.78899
526.32        18.76647
526.76        18.74796
527.20        18.71201
527.64        18.63607
528.08        18.52268
528.52        18.36763
528.96        18.19716
529.40        18.10085
529.83        18.09889
530.27        17.97862
530.71        18.06469
531.15        18.02218
531.59         17.9472
532.03        17.84466
532.46        17.75076
532.90         17.7257
533.34        17.77282
533.78        17.86836
534.22         17.9663
534.66        18.00163
535.09        17.95417
535.53        17.85044
535.97        17.71764
536.41        17.60177
536.85        17.52338
537.28        17.47867
537.72        17.45712
538.16         17.4418
538.60        17.43039
539.04        17.41341
539.47        17.42136
539.91        17.54256
540.35        17.75913
540.79         17.9789
541.22        18.14821
541.66         18.2559
542.10        18.28747
542.54        18.22011
542.97         18.1248
543.41         18.1467
543.85        18.30868
544.29        18.57808
544.72        18.86402
545.16         19.0297
545.60        19.04795
546.04        18.96321
546.47        18.88237
546.91        18.98268
547.35        19.28725
547.79        19.73319
548.22        20.19493
548.66        20.45971
549.10        20.49313
549.53         20.3966
549.97        20.27286
550.41        20.22493
550.84        20.29701
551.28        20.46735
551.72        20.71644
552.15          21.003
552.59        21.29415
553.03        21.59379
553.46        21.86411
553.90        22.06571
554.34        22.19888
554.77        22.24956
555.21        22.24336
555.65        22.29257
556.08        22.42579
556.52        22.34137
556.96        22.55843
557.39        22.64993
557.83        22.77236
558.27        22.90676
558.70         23.0504
559.14         23.1805
559.57        23.28193
560.01        23.37175
560.45        23.43332
560.88        23.44178
561.32        23.41923
561.75        23.36181
562.19        23.32393
562.63        23.35609
563.06        23.46275
563.50        23.63074
563.93        23.81878
564.37         23.9715
564.80        24.06492
565.24        24.12557
565.68        24.16489
566.11        24.20271
566.55        24.26785
566.98        24.34942
567.42        24.46887
567.85        24.65245
568.29        24.91473
568.72        25.17051
569.16        25.42984
569.60        25.81072
570.03        26.19308
570.47        26.28102
570.90        26.17541
571.34        25.97424
571.77        26.27752
572.21        26.47798
572.64        26.45651
573.08        26.24672
573.51         25.5098
573.95        26.70994
574.38        28.39263
574.82        27.87308
575.25        27.60747
575.69        26.59512
576.12        26.04694
576.56        25.92724
576.99        26.56972
577.42        27.83028
577.86        27.87008
578.29        27.89553
578.73        29.05298
579.16        26.73292
579.60        24.33705
580.03        25.39342
580.47        27.08814
580.90        27.34474
581.33        26.87786
581.77          26.637
582.20        29.18318
582.64        28.97006
583.07        24.61646
583.51        23.96233
583.94        23.29014
584.37        24.06839
584.81        25.07232
585.24        26.30387
585.68        26.95295
586.11        26.37939
586.54        24.51641
586.98        23.83142
587.41        24.00934
587.85        24.99923
588.28        25.75756
588.71         24.6498
589.15        23.58828
589.58        24.12296
590.01        24.16592
590.45        24.66617
590.88        24.66957
591.31         24.2808
591.75        24.04507
592.18        24.16061
592.61        24.89707
593.05        25.42718
593.48        26.69042
593.91        26.62228
594.35        24.57038
594.78        24.08963
595.21        24.12074
595.65        25.32943
596.08        26.36717
596.51        25.44799
596.94        24.81993
597.38        25.23857
597.81        26.52138
598.24        27.08444
598.68        26.83625
599.11        26.76528
599.54        28.24797
599.97        29.19251
600.41        27.63219
600.84        28.06031
601.27        28.99601
601.70        28.80801
602.14         29.1686
602.57        29.03456
603.00        29.57466
603.43         30.7375
603.87         32.0807
604.30        32.29933
604.73        31.56457
605.16        31.62604
605.60        32.56619
606.03        33.58245
606.46        34.28918
606.89        34.59706
607.32        34.00636
607.76        34.19918
608.19        35.60574
608.62        35.35934
609.05        35.04076
609.48        35.59013
609.92         35.8179
610.35        36.21953
610.78        37.87254
611.21        38.30349
611.64        37.15414
612.07        37.74278
612.50        38.14972
612.94        38.64471
613.37        38.68488
613.80         39.0316
614.23        39.68251
614.66        39.95211
615.09        40.38126
615.52        40.60713
615.96        40.73978
616.39        41.00792
616.82        40.72314
617.25        40.92183
617.68        41.70052
618.11        42.18783
618.54        42.37174
618.97        42.24233
619.40        42.01994
619.84         42.2731
620.27        42.94352
620.70        43.45618
621.13        43.69122
621.56        43.48561
621.99        43.03901
622.42        43.58563
622.85        44.81807
623.28        44.76723
623.71        44.51891
624.14        44.56001
624.57        44.08065
625.00        44.01062
625.43        44.08296
625.86        43.60737
626.29         43.3571
626.72        43.95749
627.15        43.28546
627.58        43.26455
628.01        43.18404
628.44        43.02146
628.87        42.78241
629.30        42.63944
629.73        42.56536
630.16        42.35402
630.59        41.97303
631.02        41.44243
631.45        40.84159
631.88        40.34011
632.31        39.96654
632.74        39.63979
633.17        39.31535
633.60        38.95036
634.03        38.52595
634.46         38.0582
634.89        37.57093
635.32        37.10154
635.75        36.66438
636.18        36.25089
636.61          35.848
637.04        35.43244
637.47        34.99532
637.89        34.54607
638.32         34.0971
638.75         33.6908
639.18        33.34314
639.61        33.05158
640.04        32.78685
640.47        32.49732
640.90        32.17426
641.33        31.83076
641.76        31.50317
642.18        31.29941
642.61        31.23535
643.04        31.20429
643.47        31.13951
643.90        31.33778
644.33        31.13393
644.76        31.08284
645.18        31.01345
645.61         30.9771
646.04        30.98324
646.47        31.01521
646.90         31.1273
647.33        31.37943
647.75        31.78773
648.18        32.36311
648.61        32.96419
649.04        33.35843
649.47        33.51103
649.89        33.42074
650.32        33.35599
650.75        33.80859
651.18        34.77064
651.61        35.89474
652.03        36.89288
652.46        37.38453
652.89        37.62277
653.32        37.86968
653.74        38.29768
654.17        39.78541
654.60        40.20512
655.03        39.26018
655.46        40.83578
655.88        43.98537
656.31         47.9651
656.74        114.8853
657.16        75.27325
657.59        26.35521
658.02        19.44835
658.45         33.4446
658.87         43.6212
659.30        46.26593
659.73        45.79926
660.15        44.71802
660.58        46.61216
661.01        48.25589
661.44        47.17701
661.86        47.01178
662.29        47.25366
662.72        48.11428
663.14        49.41418
663.57        49.62795
664.00        48.94666
664.42        48.98447
664.85        49.81584
665.27        50.43214
665.70        50.65039
666.13        50.75525
666.55        50.72868
666.98        50.49471
667.41         50.2209
667.83        50.21607
668.26        50.54694
668.69        51.09792
669.11        51.66734
669.54        52.16799
669.96        52.03946
670.39        51.80349
670.82        51.49926
671.24        51.37873
671.67        51.56912
672.09        52.10049
672.52        52.71264
672.94        53.25084
673.37        52.78026
673.80         52.6404
674.22        52.65718
674.65        52.67712
675.07        52.70909
675.50        52.75164
675.92         52.8215
676.35        52.96986
676.77        53.19503
677.20        53.42837
677.62        53.64122
678.05          53.784
678.47        53.82288
678.90        53.82103
679.32        53.84801
679.75        53.77205
680.17        53.79379
680.60        54.29906
681.02        54.30555
681.45        54.36107
681.87        54.19355
682.30        54.00964
682.72        53.89318
683.15        53.89436
683.57        54.07181
684.00        54.33783
684.42        54.80647
684.85        55.04483
685.27        55.06116
685.70        54.94142
686.12        54.76357
686.54        54.67686
686.97        54.71074
687.39        54.83324
687.82        54.97131
688.24        55.04878
688.66        55.02806
689.09        54.94704
689.51         54.8754
689.94        54.89481
690.36        55.02496
690.78        55.25628
691.21        55.53484
691.63        55.69493
692.06        55.68789
692.48        55.88517
692.90        55.75293
693.33        55.79737
693.75        55.85712
694.17        56.03582
694.60        56.28942
695.02        56.15446
695.44         56.1232
695.87         56.1422
696.29          56.385
696.71        56.32525
697.14        56.08028
697.56        56.55026
697.98        57.49662
698.41        57.37053
698.83        56.75825
699.25        56.29664
699.68        56.24613
700.10        56.14286
700.52        56.02487
700.94        56.16999
701.37        56.51308
701.79        56.86737
702.21        57.14883
702.64        57.41195
703.06        57.59328
703.48        57.58239
703.90        57.38565
704.33         57.0411
704.75        56.65444
705.17        56.47406
705.59        56.56487
706.01        56.76762
706.44        56.98932
706.86        57.55494
707.28        57.64108
707.70        57.90589
708.12        58.08391
708.55        58.03577
708.97        57.79261
709.39        57.58884
709.81        57.49167
710.23        57.41404
710.66        57.38326
711.08        57.52511
711.50        57.74102
711.92        57.81842
712.34        57.72175
712.76        57.50273
713.19        57.28424
713.61        57.28705
714.03        57.54281
714.45        57.97766
714.87        58.41411
715.29        58.57574
715.71        58.40593
716.13        57.99559
716.56        57.52369
716.98        57.30446
717.40        57.41227
717.82        57.75037
718.24        58.17165
718.66        58.42534
719.08        58.43701
719.50        58.29069
719.92        58.06729
720.34        57.90785
720.76        57.86371
721.19        57.79427
721.61        57.87482
722.03        57.98919
722.45        58.17276
722.87        58.41679
723.29        58.67733
723.71        58.87045
724.13        58.96762
724.55        58.98411
724.97        58.93766
725.39        58.86791
725.81         58.7961
726.23        58.71806
726.65        58.65398
727.07        58.63153
727.49        58.66064
727.91        58.74741
728.33        58.87001
728.75        58.98483
729.17        59.07311
729.59        59.13065
730.01        59.18831
730.43        59.29319
730.85        59.45363
731.27        59.67302
731.69        59.86957
732.10        59.90128
732.52        59.75682
732.94        59.48682
733.36         59.2277
733.78        59.19635
734.20        59.45159
734.62         59.7463
735.04        60.66975
735.46        60.64634
735.88        60.10184
736.30        60.38503
736.72        61.44196
737.13        61.86327
737.55        61.43134
737.97        61.28719
738.39        61.48465
738.81        60.87712
739.23        59.85976
739.65        60.59963
740.06        62.61993
740.48         62.8421
740.90         61.3228
741.32        60.50663
741.74        60.67103
742.16        60.78917
742.57        60.86124
742.99        61.56014
743.41        62.61401
743.83         63.2439
744.25        63.29872
744.67        62.98088
745.08        62.52857
745.50        62.33296
745.92        62.51377
746.34         62.9293
746.75        63.41309
747.17         63.6884
747.59        63.70372
748.01        63.56055
748.42        63.41019
748.84        63.50399
749.26        63.90357
749.68        64.40276
750.09        64.89559
750.51        65.43409
750.93         65.8593
751.35        65.68665
751.76        65.05511
752.18        64.75983
752.60        64.80908
753.01        64.57763
753.43        64.16299
753.85        64.17815
754.27        64.68037
754.68        65.43704
755.10        66.23472
755.52        66.85377
755.93        67.17184
756.35        67.18356
756.77        67.08698
757.18        67.03864
757.60        67.08961
758.02         67.6662
758.43         68.3738
758.85        67.63621
759.26        65.99092
759.68        65.73731
760.10         66.7382
760.51        67.90302
760.93        67.33788
761.34        66.55886
761.76        66.19075
762.18        65.47412
762.59        64.95098
763.01         65.2048
763.42        66.21301
763.84        66.90524
764.26        67.14285
764.67        67.46014
765.09        67.74512
765.50         67.6347
765.92        67.12608
766.33        66.02393
766.75        64.74876
767.16         64.3605
767.58         64.9771
768.00        66.08102
768.41        67.42274
768.83         68.6368
769.24        69.20055
769.66        68.79094
770.07        67.73355
770.49        66.12667
770.90        64.57576
771.32        65.40504
771.73        67.95777
772.15        67.79755
772.56        65.24536
772.97        64.63155
773.39        65.94681
773.80        66.38085
774.22        65.76918
774.63        65.71287
775.05        66.16376
775.46        66.41451
775.88        66.37337
776.29        66.21709
776.70        66.00922
777.12        65.90212
777.53        65.94398
777.95        66.03603
778.36        66.09995
778.77        66.00806
779.19        65.77805
779.60        65.46133
780.02        65.18603
780.43        65.25789
780.84        65.76855
781.26        66.14619
781.67         66.3812
782.09        67.48691
782.50        68.89403
782.91        67.99341
783.33        65.46459
783.74        64.58517
784.15         65.5343
784.57        66.25478
784.98        66.41714
785.39        66.51479
785.81        66.45782
786.22        65.99394
786.63         65.4454
787.04        65.41592
787.46        65.96842
787.87        66.89759
788.28        67.89641
788.70        68.41637
789.11        68.31319
789.52          67.851
789.93        67.24333
790.35         66.6132
790.76        66.13812
791.17        66.14197
791.58        66.51223
792.00        66.63367
792.41        66.40834
792.82        66.29675
793.23        66.42647
793.65        66.20347
794.06          65.915
794.47        67.11343
794.88        69.04843
795.29        68.86742
795.71        66.73546
796.12        64.74873
796.53        63.54704
796.94        63.13749
797.35        63.63649
797.76        64.79395
798.18        66.04707
798.59        66.89404
799.00        67.02373
799.41        66.11804
799.82        65.03728
800.23        64.32015
800.64         64.2945
801.06        64.61087
801.47        65.13537
801.88        65.55177
802.29        65.72733
802.70        65.79308
803.11        65.79501
803.52        65.77856
803.93        65.78732
804.34        65.77102
804.75        65.75441
805.17        65.89924
805.58        66.26129
805.99        66.46896
806.40        66.47249
806.81        67.01865
807.22        67.68217
807.63        66.62574
808.04        64.41886
808.45        63.54473
808.86        64.20891
809.27        65.16175
809.68        65.98277
810.09        66.44585
810.50        66.34315
810.91         65.7695
811.32        64.99177
811.73        64.43893
812.14        64.24266
812.55         64.2551
812.96        64.44003
813.37        64.71841
813.78        65.02711
814.19        65.44003
814.60        65.77425
815.01        65.73247
815.42        65.28352
815.83        64.46434
816.24        63.62794
816.65        63.40968
817.05         63.9869
817.46        65.14356
817.87        66.39211
818.28        66.85155
818.69        66.29697
819.10        64.97384
819.51        63.45206
819.92        62.69365
820.33        62.95913
820.74        63.95218
821.14        65.19512
821.55         65.8182
821.96        65.60976
822.37        64.86009
822.78        63.92384
823.19        63.31517
823.60        63.18971
824.00          63.417
824.41        63.78669
824.82        64.06486
825.23        64.13705
825.64        64.09573
826.04        64.03712
826.45         64.0789
826.86        64.24308
827.27        64.46049
827.68        64.63044
828.08        64.62461
828.49        64.36406
828.90        63.93968
829.31        63.45818
829.72        63.11079
830.12        62.99938
830.53        63.05515
830.94        63.25546
831.35        63.54106
831.75        63.91679
832.16        64.33548
832.57        64.77991
832.97        65.16247
833.38         65.3941
833.79        65.47791
834.20        65.45347
834.60        65.39417
835.01        65.35287
835.42        65.30984
835.82        65.24023
836.23        65.03267
836.64        64.71286
837.04        64.33916
837.45         64.0097
837.86        63.88412
838.26        63.99269
838.67        64.24529
839.08        64.55459
839.48        64.75481
839.89        64.76137
840.29        64.64219
840.70        64.39072
841.11        63.98656
841.51        63.46998
841.92        62.84024
842.33        62.27239
842.73        62.05951
843.14        62.23025
843.54         62.7391
843.95        63.33653
844.35        63.65078
844.76        63.56412
845.17        63.19157
845.57         62.7238
845.98        62.46564
846.38        62.49379
846.79        62.68353
847.19         62.9406
847.60        63.03483
848.00        62.93485
848.41        62.71524
848.81        62.46031
849.22        62.20327
849.62        62.01553
850.03        61.88002
850.43        61.87705
850.84        62.10816
851.24        62.60284
851.65        63.17945
852.05        63.82645
852.46        64.36273
852.86        64.73369
853.27        65.01905
853.67         64.9427
854.07        64.19601
854.48        62.86942
854.88        61.09058
855.29        59.48321
855.69        58.94902
856.10        59.64362
856.50        61.47143
856.90        63.81694
857.31        65.22336
857.71        65.22614
858.12        64.16653
858.52        62.71638
858.92        61.74892
859.33        61.47334
859.73        61.64616
860.13        62.15012
860.54        62.73863
860.94        63.32462
861.34        63.97585
861.75        64.58988
862.15        65.07956
862.55        65.38216
862.96        65.47961
863.36        65.44124
863.76        65.40119
864.17        65.40876
864.57         65.4889
864.97        65.63601
865.38        65.82968
865.78        66.09457
866.18        66.34074
866.58        66.57176
866.99        66.78541
867.39        67.00037
867.79        67.25349
868.19        67.29054
868.60        66.65627
869.00        65.31322
869.40        63.46648
869.80        61.88417
870.21        61.73717
870.61        63.33063
871.01        66.29207
871.41        69.69576
871.81        71.93953
872.22        72.54668
872.62         71.9129
873.02        70.69894
873.42        70.28264
873.82        70.68617
874.22        70.81875
874.63        70.61442
875.03        70.18575
875.43        69.52418
875.83        70.38448
876.23        68.73077
876.63        67.60897
877.03        66.38577
877.44        65.16189
877.84        110.7247
878.24        72.07043
878.64        74.35075
879.04        78.24596
879.44        72.02243
879.84         68.9194
880.24        76.54236
880.64        78.94993
881.04        77.83784
881.44         76.6553
881.84        75.69164
882.24        74.70882
882.65        74.12868
883.05        73.86966
883.45        73.92492
883.85        74.78584
884.25        76.17745
884.65         77.1237
885.05        77.34094
885.45        77.05812
885.85        76.62198
886.25        76.56179
886.65        76.97677
887.05        77.65984
887.45        78.33005
887.85         78.5106
888.25        78.07172
888.65        77.23871
889.04        76.23997
889.44        75.44843
889.84        74.97872
890.24        74.70811
890.64        74.65547
891.04        74.85123
891.44        75.24607
891.84        75.84917
892.24        76.41714
892.64        76.49368
893.04        76.03306
893.44         75.2387
893.83        74.46067
894.23        74.20801
894.63        74.56833
895.03        75.31184
895.43        76.33872
895.83        77.43652
896.23         78.4202
896.63        79.34942
897.02        79.81819
897.42        79.20403
897.82        77.51745
898.22        75.03869
898.62        72.60558
899.01        71.44109
899.41        71.78608
899.81        73.24487
900.21        75.15117
900.61        76.40184
901.00        76.65565
901.40        76.22358
901.80        75.48521
902.20        75.03923
902.59        75.05774
902.99        75.32867
903.39        75.62708
903.79        75.60186
904.18        75.18653
904.58         74.6276
904.98         74.1558
905.38         74.0966
905.77        74.50048
906.17        75.16834
906.57        75.98917
906.96         76.8685
907.36        77.63873
907.76        78.32327
908.15        78.71217
908.55        78.35286
908.95        77.26456
909.34         75.6007
909.74         73.8425
910.14        72.56753
910.53        71.97847
910.93        71.98162
911.33        72.50763
911.72        73.40806
912.12        74.40252
912.52        75.38754
912.91        76.19472
913.31        76.58562
913.70        76.58061
914.10         76.2251
914.49        75.37868
914.89        73.99988
915.29        72.35243
915.68        70.62875
916.08        69.51233
916.47        69.58272
916.87        70.76949
917.26        72.87211
917.66        75.11624
918.05        76.20384
918.45        75.78726
918.84        74.31364
919.24         72.5191
919.64          71.502
920.03        71.58456
920.42        72.39906
920.82        73.66962
921.21        75.02914
921.61         76.0661
922.00        76.90259
922.40        77.23257
922.79        76.71541
923.19        75.49577
923.58        73.36087
923.98        70.55923
924.37        69.03671
924.77        69.69587
925.16        66.05978
925.55        69.26748
925.95         70.2318
926.34        72.12776
926.74        74.44072
927.13        76.64391
927.52        77.45972
927.92        76.69774
928.31        74.79419
928.70        72.36535
929.10        70.52435
929.49        69.56807
929.89        69.23026
930.28        69.51101
930.67        70.39436
931.07        71.64223
931.46         73.3663
931.85        74.87122
932.24        75.10769
932.64        73.93588
933.03         71.4184
933.42        68.36266
933.82        66.55508
934.21        66.46519
934.60        67.62271
934.99         68.9123
935.39        69.38129
935.78        68.91896
936.17        66.76915
936.56        62.75307
936.96        65.16856
937.35        63.50585
937.74        65.83347
938.13        67.87646
938.53        69.37674
938.92         70.4204
939.31        71.34294
939.70        72.02193
940.09        71.79891
940.49         70.6561
940.88        68.93378
941.27        67.33939
941.66        66.71474
942.05        67.11204
942.44        68.22832
942.84        69.73398
943.23        71.04653
943.62        71.82129
944.01        72.21841
944.40        72.08772
944.79        71.19028
945.18        69.49783
945.57        66.92657
945.97        64.09299
946.36         62.4716
946.75        62.71832
947.14        64.28843
947.53        66.16357
947.92         67.2974
948.31        67.59354
948.70        67.35156
949.09        66.85735
949.48        66.72073
949.87        67.16175
950.26        67.89058
950.65        68.63042
951.04        69.02481
951.43        68.99018
951.82         68.7048
952.21        68.23654
952.60        67.69822
952.99        67.15224
953.38        66.49819
953.77        65.92869
954.16        65.72675
954.55        65.90567
954.94        66.47664
955.33        66.94138
955.72        66.43365
956.11        64.82124
956.50         62.3383
956.89        59.93031
957.28        59.34917
957.66        61.12082
958.05        64.45646
958.44        68.18855
958.83        70.57238
959.22        71.12563
959.61        70.29944
960.00        68.63041
960.39        67.01773
960.78        65.81911
961.16        64.80853
961.55        63.87204
961.94        62.85141
962.33        61.78049
962.72        60.88416
963.11        60.33694
963.49        60.27539
963.88        60.66883
964.27        61.44966
964.66        62.39172
965.04        63.02823
965.43        63.08433
965.82        62.71769
966.21        62.18557
966.60        61.84335
966.98        61.81161
967.37        61.97239
967.76        62.28385
968.15        62.63894
968.53        62.94662
968.92        63.11866
969.31        63.23032
969.69        63.36242
970.08        63.50738
970.47        63.68547
970.86        63.57677
971.24        62.62268
971.63        60.77231
972.02        58.19011
972.40        55.63755
972.79         54.5193
973.17        55.32874
973.56        57.70524
973.95        60.81474
974.33        62.94449
974.72        63.36262
975.11        62.51325
975.49        61.13976
975.88        60.31381
976.26        60.22565
976.65        60.56971
977.04          60.831
977.42        59.93839
977.81        57.74548
978.19        54.92059
978.58        52.68386
978.96         52.0541
979.35        53.16255
979.74         55.7806
980.12        59.58329
980.51        62.78563
980.89        64.68459
981.28        65.43886
981.66        65.38554
982.05        65.03901
982.43        64.62334
982.82        63.92671
983.20        63.34651
983.59        63.50038
983.97        64.56412
984.35        66.54652
984.74        68.63578
985.12        69.12284
985.51         67.1379
985.89         62.9544
986.28        58.08378
986.66        54.85144
987.04        54.09578
987.43        55.14969
987.81        56.51958
988.20        56.24209
988.58        53.67904
988.96        48.39318
989.35        41.26789
989.73        37.64322
990.12        41.69622
990.50         51.0596
990.88        59.60726
991.27        62.50861
991.65        60.43588
992.03         54.9547
992.42         48.7421
992.80        46.47673
993.18        49.43441
993.56        54.90816
993.95        60.75458
994.33         65.3479
994.71        68.14111
995.10        70.04702
995.48        70.78152
995.86        69.55093
996.24        66.24687
996.63        60.59654
997.01        53.75245
997.39        49.70435
997.77        50.39312
998.15        55.21553
998.54        61.05828
998.92        63.39577
999.30        60.83893
999.68        54.59286
1000.06        46.53378
1000.45        41.15741
1000.83         40.1425
1001.21        41.77756
1001.59        44.68021
1001.97         47.5498
1002.35        50.01375
1002.73        52.91249
1003.12        55.16404
1003.50        53.46457
1003.88        47.22062
1004.26        38.63015
1004.64        31.06472
1005.02        26.94786
1005.40        26.21483
1005.78        28.53096
1006.16        35.18237
1006.54        44.95691
1006.92        52.39463
1007.30        55.92268
1007.69        56.57196
1008.07        56.09015
1008.45        54.51608
1008.83        50.30834
1009.21        37.64213
1009.59       -3.035009
1009.97       -108.4068
1010.35          -243.2
1010.73       -204.9853
1011.11       -108.4949
1011.49        -42.1918
1011.86        2.880902
1012.24        27.63629
1012.62        37.34583
1013.00        37.64588
1013.38        30.78431
1013.76        18.69045
1014.14        10.44493
1014.52        14.46688
1014.90        32.93435
1015.28        59.88211
1015.66        73.03855
1016.04        59.81607
1016.41        27.60739
1016.79       -3.468076
1017.17       -14.64214
1017.55       -9.941731
1017.93      -0.8836614
1018.31        7.805444
1018.69        14.57061
1019.06        19.91219
1019.44        24.86089
1019.82        29.98844
1020.20        32.96394
1020.58        28.40312
1020.95        6.697689
1021.33       -79.58183
1021.71        1519.832
1022.09        250.4488
1022.46        189.1691
1022.84        175.9448
1023.22        184.7328
1023.60        228.3075
1023.97        696.5853
1024.35       -102.1818
1024.73       -13.30622
