SpectraSmart Spectrum 2.9.0.0
--------- Device Information -----------
Spectrum Name :  反射率_0
Saving Time :  2024/04/26 00:18:09
Spectro-Module Model Name : SE2030-DUVN
Spectro-Module Serial Number : OS361AC55029948
Wavelength Start : 200
Wavelength End : 1025
Wavelength Unit : Wavelength(nm)
Spectrum Unit : Reflectance(%)
-----------Spectrum Setting ------------
Integration Time : 20ms
Average : 10
Boxcar : 0
Background removal :  enabled
linearity correction :  enabled
SC :  disabled
Intensity correction :  disabled
DWT denoise :  enabled
savitzky-golay :  disabled
FFT :  disabled
Running average :  disabled
Kalman :  disabled
High pass :  disabled
---------------BEGIN--------------------
Wavelength(nm)             Reflectance(%)
200.29               0
200.75        87.19418
201.21        80.50118
201.67        73.06898
202.13        69.06791
202.58        68.98402
203.04        72.00178
203.50        76.13174
203.96        77.96904
204.42          76.843
204.88        74.11568
205.34        71.77102
205.80        71.96389
206.26        75.71614
206.72        85.29015
207.18        104.4972
207.64        121.4155
208.10        110.3699
208.55        87.49764
209.01        73.16722
209.47        68.71202
209.93         70.0486
210.39        75.10776
210.85        81.00603
211.31        81.69706
211.77        75.38965
212.23        64.51109
212.69         53.7689
213.14        50.30697
213.60         55.2816
214.06        66.69312
214.52        79.88945
214.98        87.68135
215.44        88.21696
215.90        83.77662
216.36        77.61346
216.81        74.21822
217.27        74.70966
217.73        77.26536
218.19        79.51418
218.65        78.40147
219.11        72.82639
219.57        62.34645
220.02        48.24571
220.48        38.85147
220.94        39.39994
221.40        48.10595
221.86        57.56757
222.32        59.79633
222.77        55.22534
223.23        47.96233
223.69        41.95146
224.15         41.2518
224.61        45.40218
225.06        52.33707
225.52        59.09787
225.98        61.99632
226.44        60.44054
226.90        56.13399
227.36        51.21101
227.81        48.51251
228.27        48.93619
228.73        51.20664
229.19        54.31559
229.65        56.78106
230.10        58.06921
230.56        58.77658
231.02        59.03262
231.48        58.92884
231.93        58.57123
232.39        57.94641
232.85        57.27992
233.31        57.05133
233.77        57.31349
234.22        57.92026
234.68        58.58122
235.14        58.65926
235.60        57.99294
236.05        56.90822
236.51        55.57141
236.97        54.08892
237.43        52.49532
237.88        50.66562
238.34        49.01583
238.80        48.97624
239.26        51.15066
239.71        55.40044
240.17        60.17793
240.63        63.09674
241.08        63.51805
241.54        62.00246
242.00        59.67773
242.46        58.07181
242.91        57.81917
243.37         58.7093
243.83        64.85897
244.28        97.32505
244.74         156.233
245.20        152.3372
245.66        134.8096
246.11         129.017
246.57        131.0022
247.03        140.8282
247.48        161.1734
247.94        115.9166
248.40        85.57108
248.85         80.5463
249.31        80.71511
249.77        82.18439
250.22        84.65398
250.68        88.78369
251.14          94.543
251.59        98.12506
252.05        95.85664
252.51        89.43909
252.96        81.95545
253.42        76.74974
253.88        73.43326
254.33        70.96699
254.79        70.18801
255.25        71.63023
255.70        74.57996
256.16        78.44575
256.62        81.15104
257.07        80.61745
257.53        77.58416
257.99        72.76625
258.44         67.9743
258.90        66.15837
259.35        66.39049
259.81         67.4936
260.27        67.56449
260.72        64.79039
261.18        59.98991
261.63        54.07811
262.09        48.71653
262.55        45.16177
263.00        43.37003
263.46        42.76348
263.91        42.44639
264.37        41.73415
264.83        40.43827
265.28        38.71494
265.74        37.06724
266.19        35.98753
266.65        35.65154
267.11        35.74065
267.56        35.79877
268.02        35.28749
268.47         34.1154
268.93        32.48734
269.38         30.7307
269.84        29.62869
270.30        29.37678
270.75        29.74614
271.21        30.30623
271.66        30.41316
272.12        29.90085
272.57        28.98546
273.03        27.98772
273.48        27.30431
273.94        27.06976
274.39        27.10556
274.85        27.23901
275.31        27.22068
275.76        26.96627
276.22        26.57249
276.67        26.12889
277.13          25.848
277.58        25.71057
278.04        25.67521
278.49        25.55277
278.95        25.14128
279.40        24.40662
279.86        23.50419
280.31        22.60079
280.77        22.05073
281.22        21.87366
281.68        21.96509
282.13        22.15749
282.59        22.24622
283.04        22.16477
283.50        22.00623
283.95        21.77324
284.41        21.48994
284.86         21.1719
285.32        20.81497
285.77         20.4995
286.22        20.41092
286.68        20.54644
287.13         20.8341
287.59        21.09548
288.04         21.0531
288.50        20.68546
288.95        20.07205
289.41        19.41294
289.86         18.9097
290.32        18.66631
290.77        18.60114
291.22        18.66383
291.68        18.74054
292.13        18.80295
292.59        18.88889
293.04        19.03836
293.50        19.31119
293.95        19.70094
294.40        20.15092
294.86        20.58945
295.31        20.92443
295.77        21.13859
296.22        21.26598
296.68        21.34776
297.13        21.42212
297.58        21.53179
298.04        21.68853
298.49        21.92053
298.95        22.30264
299.40        22.82897
299.85        23.46725
300.31        24.15022
300.76        24.78326
301.21        25.30863
301.67        25.75594
302.12        26.08591
302.58        26.29584
303.03        26.38609
303.48         26.3805
303.94        26.38226
304.39        26.51768
304.84        26.81648
305.30        27.23285
305.75        27.65214
306.20        27.90295
306.66        27.96581
307.11        27.88682
307.57        27.76374
308.02        27.67299
308.47        27.66943
308.93        27.72079
309.38        27.82199
309.83        27.99725
310.29        28.22327
310.74        28.47984
311.19        28.70396
311.65        28.79723
312.10        28.73816
312.55        28.55719
313.00        28.28929
313.46        28.00552
313.91        27.73464
314.36        27.48371
314.82         27.2925
315.27        27.20512
315.72         27.2288
316.18        27.34522
316.63        27.50788
317.08        27.61477
317.53        27.62861
317.99        27.55823
318.44        27.43908
318.89         27.3353
319.35         27.2579
319.80        27.19584
320.25        27.09928
320.70         26.8932
321.16        26.57513
321.61        26.17938
322.06        25.79073
322.51        25.53201
322.97        25.41613
323.42        25.41126
323.87        25.42554
324.32        25.30634
324.78        25.01344
325.23        24.59911
325.68        24.13751
326.13        23.75344
326.59        23.48409
327.04         23.3145
327.49         23.2081
327.94        23.10476
328.39         22.9862
328.85        22.86518
329.30        22.79175
329.75        22.81229
330.20        22.93117
330.66        23.10318
331.11        23.28683
331.56        23.37767
332.01        23.34545
332.46        23.20436
332.92        22.99815
333.37        22.83661
333.82        22.75176
334.27        22.73276
334.72        22.72806
335.17        22.64721
335.63        22.46934
336.08        22.22808
336.53        22.00978
336.98        21.95166
337.43        22.07728
337.88         22.3461
338.34        22.61226
338.79        22.68464
339.24        22.49555
339.69        22.09893
340.14        21.66336
340.59         21.4838
341.05         21.6172
341.50        21.96619
341.95        22.34663
342.40        22.48714
342.85        22.33105
343.30        21.98247
343.75        21.54466
344.20        21.20102
344.66        21.02012
345.11         20.9085
345.56        20.88049
346.01        20.95432
346.46        21.10194
346.91        21.33711
347.36        21.49798
347.81        21.32158
348.26        20.79162
348.72        20.02134
349.17        19.25126
349.62        18.96281
350.07        19.25965
350.52        19.97751
350.97        20.84346
351.42        21.43739
351.87        21.63671
352.32        21.55878
352.77        21.31203
353.22        21.07406
353.67        20.90993
354.13        20.76398
354.58        20.61014
355.03        20.45203
355.48        20.29049
355.93        20.15771
356.38        20.04658
356.83         19.9265
357.28        19.79045
357.73        19.63569
358.18         19.4886
358.63        19.39351
359.08        19.35601
359.53        19.36687
359.98        19.36757
360.43        19.26855
360.88        19.05695
361.33        18.75578
361.78        18.45867
362.23        18.31877
362.68        18.35909
363.13        18.52226
363.58        18.68684
364.03         18.6627
364.48        18.41184
364.93        18.00683
365.38        17.54636
365.83        17.18787
366.28        16.98486
366.73        16.88889
367.18        16.87767
367.63        16.91389
368.08        16.96776
368.53         17.0473
368.98        17.11205
369.43        17.09367
369.88        16.98362
370.33        16.80154
370.78        16.58639
371.23         16.4137
371.68        16.30941
372.13        16.24769
372.58        16.23726
373.03        16.28792
373.48        16.38432
373.93         16.5217
374.38         16.6284
374.83        16.59166
375.28        16.39805
375.72        16.07492
376.17        15.73736
376.62         15.5343
377.07        15.50769
377.52        15.60657
377.97        15.77069
378.42        15.89995
378.87        15.95315
379.32        15.95729
379.77        15.91254
380.22        15.81656
380.67        15.67887
381.11        15.50254
381.56        15.30815
382.01         15.1436
382.46        15.02478
382.91        14.94058
383.36        14.89151
383.81        14.87145
384.26         14.8707
384.71        14.89188
385.15        14.89367
385.60          14.823
386.05        14.66864
386.50        14.44069
386.95        14.20288
387.40        14.07077
387.85        14.07202
388.29        14.16808
388.74        14.28237
389.19        14.29911
389.64        14.20128
390.09        14.01915
390.54        13.82894
390.98        13.75698
391.43        13.83767
391.88        14.01545
392.33        14.19457
392.78        14.23685
393.23        14.12395
393.67        13.90261
394.12        13.67778
394.57        13.54426
395.02        13.52507
395.47         13.5855
395.91        13.68292
396.36        13.72441
396.81        13.68547
397.26        13.58396
397.71         13.4647
398.15        13.37751
398.60        13.35371
399.05        13.38027
399.50        13.39962
399.95        13.29382
400.39        13.11155
400.84         12.8378
401.29        12.58784
401.74        12.54444
402.18        12.75466
402.63         13.1373
403.08        13.54963
403.53        13.76416
403.97        13.72406
404.42        13.49902
404.87        13.18831
405.32        12.96761
405.76         12.8946
406.21        12.91567
406.66        12.98758
407.11        13.05376
407.55         13.0983
408.00        13.14403
408.45        13.18053
408.90        13.17347
409.34        13.11776
409.79        13.01562
410.24        12.91654
410.68        12.89561
411.13        12.96748
411.58        13.11794
412.03         13.2829
412.47        13.34919
412.92         13.2781
413.37        13.10206
413.81        12.90993
414.26        12.85198
414.71        12.94913
415.15        13.16137
415.60        13.36885
416.05        13.39884
416.49        13.21387
416.94        12.88168
417.39        12.52017
417.83        12.32849
418.28        12.36667
418.73        12.55854
419.17        12.81222
419.62        12.98358
420.07        13.03506
420.51        13.01285
420.96        12.93894
421.41         12.8463
421.85        12.75103
422.30        12.65379
422.74        12.56778
423.19        12.54792
423.64        12.58777
424.08        12.68508
424.53        12.79017
424.98        12.83893
425.42        12.81788
425.87         12.7376
426.31        12.62701
426.76        12.57298
427.21        12.57193
427.65        12.51724
428.10        12.45915
428.54        12.55073
428.99        12.79344
429.44        13.11753
429.88         13.3877
430.33        13.43192
430.77        13.22758
431.22        12.83251
431.66        12.41578
432.11        12.28603
432.56        12.47045
433.00        12.81255
433.45        13.15488
433.89        13.39231
434.34         13.4249
434.78        13.16439
435.23        12.81281
435.67        12.77924
436.12        13.02269
436.57        13.09368
437.01        12.93776
437.46        12.79153
437.90        12.68526
438.35        12.55905
438.79        12.43976
439.24        12.40316
439.68        12.46101
440.13        12.53293
440.57        12.60791
441.02        12.83886
441.46         13.1094
441.91         12.9762
442.35        12.52782
442.80        12.27579
443.24        12.20966
443.69        12.13892
444.13         12.0357
444.58        11.86429
445.02        11.67817
445.47        11.72638
445.91        11.93651
446.36        11.97239
446.80         11.8019
447.24        11.60313
447.69        11.43921
448.13        11.33011
448.58        11.30198
449.02        11.34536
449.47        11.41272
449.91        11.42551
450.36        11.36869
450.80        11.26309
451.25        11.16391
451.69        11.14592
452.13        11.22458
452.58        11.35874
453.02         11.4999
453.47        11.56891
453.91        11.55114
454.36        11.47839
454.80        11.37409
455.24        11.27844
455.69        11.21743
456.13        11.17183
456.58        11.17175
457.02        11.24447
457.46        11.39164
457.91        11.59726
458.35        11.80421
458.79        11.91095
459.24        11.90556
459.68        11.80393
460.13         11.6831
460.57        11.63051
461.01        11.68167
461.46        11.80118
461.90        11.94049
462.34        12.01011
462.79        11.98806
463.23        11.89781
463.68        11.80018
464.12        11.79389
464.56        11.90343
465.01        12.09775
465.45         12.2811
465.89        12.35784
466.34        12.32068
466.78        12.13657
467.22        11.91623
467.67        11.95857
468.11        12.23276
468.55        12.36775
468.99        12.32513
469.44         12.2952
469.88        12.31986
470.32        12.44075
470.77        12.60565
471.21        12.63957
471.65        12.52288
472.10        12.38885
472.54        12.28477
472.98        12.24965
473.42        12.30334
473.87        12.43904
474.31        12.60324
474.75        12.70399
475.20        12.72424
475.64        12.68216
476.08        12.63221
476.52        12.65932
476.97        12.77995
477.41        12.96802
477.85        13.15797
478.29        13.27031
478.74        13.28647
479.18        13.16717
479.62         12.9835
480.06        13.06431
480.50         13.1589
480.95        13.27953
481.39        13.29674
481.83        13.28574
482.27        13.24288
482.72        13.07772
483.16        12.86767
483.60        12.91877
484.04        13.24844
484.48        13.43401
484.93        13.64122
485.37         14.1003
485.81        14.68491
486.25        14.86954
486.69        19.45237
487.14        15.41308
487.58        10.26907
488.02        12.52522
488.46        14.18965
488.90         13.8807
489.34        14.23445
489.79        14.25911
490.23          15.147
490.67        15.62799
491.11        15.48944
491.55        15.28477
491.99        15.02215
492.43        14.78511
492.88        14.66205
493.32        14.71561
493.76        14.83323
494.20        15.07586
494.64        15.38142
495.08        15.73124
495.52        16.08633
495.96         16.4061
496.41        16.63181
496.85        16.74957
497.29        16.77479
497.73        16.57666
498.17        16.36604
498.61        16.54331
499.05        17.11111
499.49        17.26857
499.93        17.42281
500.37        17.59791
500.82        17.72739
501.26        17.96172
501.70        18.20488
502.14        18.31252
502.58        18.28056
503.02        18.27993
503.46        18.32453
503.90        18.31525
504.34        18.26704
504.78        18.24884
505.22        18.27072
505.66         18.3235
506.10        18.39072
506.54        18.44039
506.98        18.46705
507.42        18.48219
507.86        18.51611
508.30        18.61594
508.74        18.78435
509.18        18.99558
509.62        19.20883
510.06        19.35829
510.50        19.42694
510.94        19.44263
511.38        19.41989
511.82        19.38186
512.26        19.34435
512.70        19.29712
513.14        19.27772
513.58        19.34769
514.02        19.50149
514.46        19.71301
514.90        19.90716
515.34        19.92801
515.78        19.72192
516.22          19.496
516.66        19.34031
517.10        18.94341
517.54        18.33615
517.98        19.14552
518.42        18.95331
518.86        19.30577
519.30        19.46033
519.74        19.65195
520.18        19.82572
520.62        19.86217
521.06        19.77511
521.50        19.57491
521.93        19.33626
522.37        19.19488
522.81        19.18502
523.25         19.2721
523.69        19.40324
524.13        19.49419
524.57        19.51679
525.01        19.49127
525.45        19.44111
525.89        19.40329
526.32        19.38572
526.76        19.37677
527.20        19.34543
527.64         19.2545
528.08        19.10486
528.52        18.89545
528.96        18.67503
529.40        18.56774
529.83        18.60004
530.27         18.5473
530.71        18.70811
531.15        18.68163
531.59        18.55845
532.03        18.35793
532.46        18.17062
532.90        18.14624
533.34        18.30268
533.78        18.58255
534.22        18.86799
534.66        18.98709
535.09        18.89931
535.53         18.6684
535.97        18.38202
536.41        18.18231
536.85        18.11509
537.28        18.14414
537.72         18.2213
538.16        18.26896
538.60        18.26657
539.04        18.22884
539.47        18.20073
539.91        18.29139
540.35        18.49096
540.79        18.69529
541.22        18.85951
541.66        18.99182
542.10        19.07723
542.54        19.08604
542.97        19.06889
543.41        19.13853
543.85        19.31072
544.29        19.56259
544.72        19.81821
545.16        19.96672
545.60        19.98678
546.04        19.91204
546.47         19.8456
546.91        19.95645
547.35        20.26531
547.79         20.7218
548.22        21.18573
548.66        21.41437
549.10         21.3753
549.53        21.18518
549.97        20.98115
550.41         20.9157
550.84        21.03996
551.28        21.32083
551.72         21.7057
552.15        22.07462
552.59        22.37132
553.03        22.69851
553.46        22.89819
553.90        23.07255
554.34        23.19118
554.77        23.23189
555.21        23.21988
555.65        23.27408
556.08        23.42336
556.52         23.3529
556.96        23.59661
557.39         23.6924
557.83        23.80152
558.27        23.90846
558.70         24.0202
559.14        24.13056
559.57        24.22821
560.01        24.32519
560.45        24.39843
560.88        24.41276
561.32         24.3881
561.75        24.32459
562.19        24.27912
562.63        24.30427
563.06        24.40575
563.50        24.56914
563.93         24.7563
564.37        24.91786
564.80        25.03024
565.24        25.11874
565.68        25.18668
566.11        25.24469
566.55        25.31962
566.98         25.3931
567.42        25.49667
567.85        25.69065
568.29          25.982
568.72         26.2409
569.16        26.48563
569.60        26.83827
570.03        27.17076
570.47        27.23704
570.90        27.17462
571.34        26.72646
571.77         27.2205
572.21        27.31557
572.64        27.44569
573.08        27.05846
573.51        26.31788
573.95        27.51838
574.38        29.25149
574.82        28.78145
575.25        28.32186
575.69        27.37137
576.12        27.01011
576.56        26.96414
576.99        27.55698
577.42        28.66409
577.86        28.64408
578.29        28.59346
578.73        29.93112
579.16        27.54375
579.60        25.16521
580.03        26.27266
580.47           27.98
580.90        28.43223
581.33        27.91905
581.77         27.4994
582.20        30.03261
582.64        29.67195
583.07        25.18501
583.51        24.64766
583.94        24.21632
584.37        25.22012
584.81        26.29871
585.24        27.40103
585.68        27.77588
586.11        27.34495
586.54         25.4675
586.98        24.86263
587.41        25.04374
587.85        26.06507
588.28         26.8569
588.71        25.65755
589.15        24.80402
589.58        25.15196
590.01        25.41343
590.45        25.93991
590.88        25.97338
591.31        25.63503
591.75         25.4733
592.18        25.54844
592.61        26.11574
593.05        26.67065
593.48        27.73901
593.91         27.6905
594.35        25.72746
594.78        25.35469
595.21        25.45757
595.65        26.69359
596.08         27.6824
596.51        26.73708
596.94        26.21634
597.38        26.71885
597.81         28.0339
598.24        28.69763
598.68        28.57083
599.11        28.43157
599.54        29.67666
599.97        30.79109
600.41        29.26668
600.84        29.79701
601.27        30.71287
601.70        30.48564
602.14        30.83743
602.57        30.76921
603.00        31.46939
603.43        32.69838
603.87        33.98845
604.30        34.18516
604.73        33.46761
605.16        33.44017
605.60        34.20239
606.03        35.26893
606.46        36.26782
606.89        36.46025
607.32        35.96222
607.76        36.44859
608.19        37.71988
608.62        37.78101
609.05        37.29843
609.48        37.93298
609.92        38.21696
610.35         38.5948
610.78        40.15859
611.21          41.081
611.64        39.44414
612.07         40.1344
612.50        40.65251
612.94        41.22376
613.37        41.24826
613.80        41.63283
614.23        42.37594
614.66         42.6149
615.09        42.96204
615.52         43.1912
615.96        43.40507
616.39        43.73776
616.82        43.45427
617.25        43.62773
617.68        44.43465
618.11        45.15465
618.54        45.39798
618.97        45.34558
619.40        45.10257
619.84        45.25037
620.27        45.79012
620.70         46.3438
621.13        46.76781
621.56        46.62909
621.99        46.10373
622.42        46.63434
622.85        47.94244
623.28         47.8091
623.71         47.4466
624.14         47.6003
624.57        47.43159
625.00         46.8427
625.43        47.24154
625.86        46.76883
626.29        46.82654
626.72        46.84632
627.15        46.59576
627.58        46.46473
628.01        46.30995
628.44         46.1744
628.87         46.0636
629.30        45.99543
629.73        45.99207
630.16        45.74955
630.59        45.27409
631.02        44.68011
631.45        44.05573
631.88        43.47248
632.31        42.95742
632.74        42.61903
633.17        42.19528
633.60        41.83095
634.03        41.43835
634.46        41.04197
634.89        40.63182
635.32         40.1922
635.75        39.72768
636.18        39.24064
636.61        38.75156
637.04        38.29334
637.47         37.8702
637.89        37.47301
638.32        37.08732
638.75        36.71398
639.18        36.35416
639.61        36.01815
640.04        35.69011
640.47        35.33776
640.90        34.96085
641.33        34.56963
641.76        34.19565
642.18        33.94336
642.61        33.83092
643.04        33.75157
643.47        33.65242
643.90        33.88324
644.33        33.72596
644.76        33.76314
645.18        33.78708
645.61        33.81511
646.04        33.84831
646.47         33.8839
646.90        33.97399
647.33        34.18932
647.75        34.55116
648.18        35.02355
648.61        35.50976
649.04        35.92341
649.47        36.19141
649.89        36.15056
650.32        36.03839
650.75        36.35439
651.18        37.16077
651.61          38.258
652.03        39.35487
652.46        40.00104
652.89        40.35986
653.32        40.38612
653.74        40.41738
654.17        41.68771
654.60        43.21284
655.03        41.90957
655.46        43.06159
655.88        46.28009
656.31        50.17123
656.74        115.4246
657.16        75.08818
657.59         26.4447
658.02        20.22148
658.45        35.11141
658.87        45.95259
659.30        48.22105
659.73        48.30303
660.15        46.77005
660.58        49.47728
661.01        51.16218
661.44        49.75883
661.86          49.501
662.29        49.86124
662.72        50.73872
663.14        51.93988
663.57         52.1361
664.00          51.512
664.42        51.57431
664.85        52.39729
665.27        53.00829
665.70        53.23458
666.13        53.36876
666.55        53.39201
666.98        53.21619
667.41        52.99217
667.83        53.00711
668.26        53.32261
668.69        53.83022
669.11        54.33011
669.54        54.76366
669.96        54.56234
670.39        54.23983
670.82        53.85472
671.24        53.79189
671.67        54.14911
672.09        54.72162
672.52        55.27096
672.94        55.94388
673.37        55.71496
673.80        55.65497
674.22        55.58125
674.65        55.58008
675.07         55.6725
675.50         55.7212
675.92        55.75773
676.35        55.92259
676.77        56.22155
677.20        56.55254
677.62        56.86858
678.05        57.11034
678.47        57.23838
678.90        57.24981
679.32        57.21566
679.75        57.17445
680.17        57.37945
680.60        57.60202
681.02        57.82132
681.45        57.88379
681.87        57.77511
682.30        57.53859
682.72        57.30955
683.15        57.33089
683.57         57.6605
684.00         58.1018
684.42        58.70817
684.85         59.0517
685.27        59.11895
685.70        58.99593
686.12        58.79227
686.54        58.71293
686.97        58.80648
687.39        59.03728
687.82        59.31541
688.24        59.53106
688.66        59.63245
689.09          59.652
689.51        59.65676
689.94        59.76746
690.36        59.98974
690.78        60.18682
691.21        60.32704
691.63        60.45699
692.06         60.5701
692.48        60.63925
692.90        60.68575
693.33        60.75406
693.75        60.85324
694.17         60.9706
694.60        61.11227
695.02        61.25691
695.44        61.36207
695.87        61.62779
696.29        62.00575
696.71         61.8174
697.14        61.27326
697.56        61.71909
697.98        62.90755
698.41        62.82631
698.83        62.11888
699.25        61.69893
699.68        61.82539
700.10        61.82787
700.52        61.72461
700.94         61.8677
701.37        62.21491
701.79        62.60409
702.21        62.95945
702.64        63.32599
703.06        63.60638
703.48        63.64185
703.90         63.4313
704.33        63.02544
704.75         62.5807
705.17        62.43225
705.59        62.66092
706.01        63.07111
706.44        63.49868
706.86        64.20367
707.28        64.24924
707.70        64.40862
708.12        64.45733
708.55        64.34763
708.97         64.1379
709.39        64.05066
709.81        64.12125
710.23        64.18248
710.66        64.23502
711.08        64.44285
711.50        64.69061
711.92         64.7331
712.34        64.53958
712.76        64.16674
713.19        63.79791
713.61        63.76179
714.03        64.10722
714.45        64.72722
714.87        65.36807
715.29        65.62733
715.71        65.42329
716.13        64.89441
716.56        64.27284
716.98        63.97849
717.40        64.12093
717.82        64.51981
718.24        65.02541
718.66        65.52435
719.08        65.88381
719.50        65.85941
719.92        65.51128
720.34        65.50035
720.76        65.49464
721.19        65.22536
721.61        65.31837
722.03        65.35519
722.45        65.54683
722.87         65.8504
723.29        66.19888
723.71        66.41818
724.13        66.45743
724.55        66.41245
724.97        66.35024
725.39        66.16363
725.81        66.23551
726.23        66.27276
726.65        66.36659
727.07        66.47742
727.49        66.59711
727.91        66.74566
728.33         66.8932
728.75        66.98889
729.17        67.01868
729.59        66.98795
730.01        66.94821
730.43        66.97623
730.85        67.09782
731.27        67.32214
731.69        67.56857
732.10        67.69032
732.52        67.65775
732.94        67.51109
733.36        67.38721
733.78        67.45171
734.20         67.7504
734.62        68.19997
735.04        69.26661
735.46        69.02645
735.88         68.0358
736.30        68.18681
736.72        69.56924
737.13        70.22502
737.55        69.84045
737.97        69.71348
738.39        69.89642
738.81        69.01073
739.23        67.62695
739.65        68.60206
740.06        71.32635
740.48        71.77156
740.90         69.9587
741.32         68.9914
741.74        69.23383
742.16        69.38492
742.57        69.53306
742.99        70.42515
743.41        71.73769
743.83        72.45711
744.25        72.42637
744.67        72.02522
745.08        71.53569
745.50        71.30558
745.92        71.47572
746.34        71.95015
746.75        72.54588
747.17        72.91162
747.59        72.97866
748.01        72.90919
748.42        72.85542
748.84        72.95842
749.26        73.32788
749.68        73.99368
750.09        74.78836
750.51        75.43375
750.93        75.76111
751.35        75.49226
751.76        74.81858
752.18        74.53595
752.60        74.65397
753.01        74.51552
753.43        74.19112
753.85        74.27457
754.27        74.81093
754.68        75.59824
755.10        76.40495
755.52        76.94038
755.93        77.11231
756.35        77.04234
756.77        76.96877
757.18        76.98342
757.60        77.13461
758.02        77.96546
758.43        78.94704
758.85        78.25702
759.26        75.95607
759.68        75.65195
760.10         77.1207
760.51        77.95585
760.93        77.71754
761.34         76.6459
761.76        76.14326
762.18        75.41885
762.59        75.11368
763.01        75.63951
763.42        76.87944
763.84        77.71872
764.26        77.97565
764.67        78.10087
765.09        78.10986
765.50        77.98022
765.92        77.64729
766.33        76.56828
766.75         75.1576
767.16        74.52763
767.58        74.91934
768.00        76.30387
768.41        78.35419
768.83        79.85393
769.24        80.18236
769.66        79.74389
770.07        78.56059
770.49        76.91609
770.90         75.3055
771.32        76.16548
771.73        78.79254
772.15        78.48644
772.56         75.6578
772.97        75.07442
773.39        76.66914
773.80        77.16725
774.22        76.37096
774.63        76.20982
775.05         76.6694
775.46        76.94001
775.88        76.93385
776.29        76.87513
776.70        76.80439
777.12        76.82078
777.53        76.95624
777.95        77.11435
778.36        77.21703
778.77        77.11038
779.19        76.80852
779.60        76.43026
780.02        76.11446
780.43        76.00279
780.84        76.27275
781.26        76.76318
781.67        77.38956
782.09        78.56709
782.50         79.7338
782.91        78.77367
783.33        76.43578
783.74        75.68749
784.15        76.67598
784.57        77.66402
784.98        78.31824
785.39        77.89089
785.81        78.01733
786.22        77.44115
786.63        76.98698
787.04        76.90127
787.46        77.29955
787.87        78.28634
788.28        79.47314
788.70        80.01257
789.11        79.74644
789.52        79.03011
789.93        78.18848
790.35        77.62527
790.76        77.47314
791.17        77.63827
791.58        78.00349
792.00        78.31132
792.41        78.44279
792.82        78.55797
793.23        78.74686
793.65        78.52097
794.06        78.16321
794.47        79.21686
794.88        80.95433
795.29        80.51294
795.71        78.14019
796.12        76.08155
796.53        74.98808
796.94        74.75031
797.35        75.43255
797.76        76.78863
798.18        78.19845
798.59        79.07334
799.00         79.0649
799.41        78.08081
799.82         76.6254
800.23        75.75052
800.64        75.69299
801.06        76.05881
801.47        76.70371
801.88        77.28613
802.29        77.64557
802.70         77.9086
803.11        78.06519
803.52        78.06677
803.93        77.95026
804.34        77.69708
804.75        77.39758
805.17        77.37326
805.58        77.73638
805.99        77.92793
806.40        77.90813
806.81        78.79137
807.22        79.95791
807.63        78.76747
808.04        75.91627
808.45        74.76679
808.86        75.58499
809.27        76.63981
809.68        77.45539
810.09        77.94553
810.50         77.8874
810.91        77.34134
811.32        76.60217
811.73        76.12336
812.14        76.03451
812.55        76.22991
812.96        76.62799
813.37        76.91857
813.78        77.08057
814.19         77.5452
814.60        78.07567
815.01        78.00626
815.42        77.29903
815.83        76.19901
816.24        75.14332
816.65        74.81885
817.05        75.44518
817.46        76.79057
817.87        78.30349
818.28        78.98212
818.69        78.55469
819.10        77.27824
819.51        75.75986
819.92        75.03363
820.33        75.37653
820.74        76.46858
821.14        77.77283
821.55        78.32293
821.96        77.90405
822.37        76.85263
822.78        75.62813
823.19        74.89603
823.60        74.84288
824.00        75.30517
824.41        75.96425
824.82        76.41105
825.23        76.46591
825.64        76.27925
826.04        76.01219
826.45        75.88858
826.86        75.96008
827.27        76.11346
827.68        76.25384
828.08        76.27255
828.49        76.07442
828.90        75.77209
829.31        75.40182
829.72        75.02162
830.12        74.71263
830.53        74.44646
830.94        74.34113
831.35         74.5398
831.75        75.08904
832.16        75.88902
832.57        76.78427
832.97        77.42133
833.38        77.61126
833.79        77.43333
834.20        77.09006
834.60        76.90412
835.01        76.98625
835.42        77.24183
835.82        77.50287
836.23        77.40498
836.64        76.91729
837.04        76.18974
837.45        75.47913
837.86        75.18732
838.26        75.41069
838.67        75.97926
839.08        76.68749
839.48        77.15705
839.89         77.2252
840.29        77.03145
840.70        76.65639
841.11        76.20495
841.51        75.75179
841.92        75.24098
842.33        74.81115
842.73        74.70923
843.14        74.93249
843.54        75.45251
843.95        76.00396
844.35        76.19533
844.76        75.91636
845.17        75.30548
845.57        74.57652
845.98        74.06898
846.38        73.88026
846.79        73.88777
847.19        74.04437
847.60        74.17622
848.00          74.259
848.41        74.33158
848.81        74.41225
849.22        74.44505
849.62        74.47845
850.03        74.50475
850.43        74.61593
850.84        74.90457
851.24        75.42062
851.65        75.95611
852.05        76.54942
852.46        77.08793
852.86        77.52942
853.27        77.93831
853.67        77.96587
854.07        77.19727
854.48        75.71317
854.88        73.67715
855.29        71.78879
855.69        71.04905
856.10        71.63512
856.50        73.44941
856.90        75.83603
857.31        77.26161
857.71        77.25278
858.12         76.1667
858.52        74.70914
858.92        73.82084
859.33        73.71061
859.73        74.12495
860.13        74.87804
860.54        75.57871
860.94        76.11108
861.34        76.55861
861.75        76.90131
862.15        77.19358
862.55         77.4063
862.96        77.47575
863.36        77.43063
863.76        77.30821
864.17        77.14296
864.57        77.01902
864.97        76.95993
865.38         76.9746
865.78        77.11629
866.18        77.30107
866.58        77.58656
866.99        78.05563
867.39        78.75327
867.79        79.68008
868.19        80.50578
868.60        80.61575
869.00        79.89471
869.40        78.51963
869.80        77.23795
870.21        77.22687
870.61        78.81389
871.01        81.62293
871.41         84.7602
871.81         86.6847
872.22        86.95382
872.62        86.01897
873.02        84.61302
873.42        84.05106
873.82        84.49867
874.22        85.23989
874.63        86.00237
875.03        86.33218
875.43        85.94839
875.83        85.89117
876.23        84.65328
876.63         84.1321
877.03        84.21699
877.44        85.07384
877.84        103.9437
878.24        90.78461
878.64         91.0704
879.04        91.23433
879.44        87.35905
879.84        85.55939
880.24        89.61485
880.64        91.77478
881.04        92.79919
881.44        93.05182
881.84        91.94045
882.24        89.82925
882.65        87.84527
883.05        87.04609
883.45        87.60447
883.85        89.50483
884.25        92.02583
884.65        93.57862
885.05        93.64283
885.45         92.6993
885.85        91.49604
886.25         91.0801
886.65        91.67532
887.05        92.92012
887.45        94.32322
887.85        95.03751
888.25        94.79208
888.65         93.9149
889.04        92.80286
889.44        92.09212
889.84        91.94392
890.24         92.1245
890.64        92.46498
891.04        92.73055
891.44        92.82918
891.84        92.87754
892.24        92.82906
892.64        92.56877
893.04        92.15408
893.44        91.67326
893.83         91.3214
894.23        91.40971
894.63        91.96743
895.03        92.85118
895.43        93.99144
895.83        95.21726
896.23        96.36807
896.63        97.45928
897.02        98.14472
897.42        97.90416
897.82        96.73978
898.22        94.86898
898.62        92.97269
899.01        92.04202
899.41         92.2968
899.81        93.41398
900.21        94.85728
900.61        95.73476
901.00        95.77251
901.40        95.23816
901.80         94.4558
902.20        93.93165
902.59        93.81894
902.99        93.94611
903.39        94.11048
903.79        93.98765
904.18        93.51362
904.58        92.88454
904.98        92.35091
905.38        92.27805
905.77        92.69621
906.17        93.41204
906.57        94.19632
906.96        94.77246
907.36        94.98612
907.76        94.94557
908.15        94.63666
908.55         93.9276
908.95        92.92182
909.34        91.66199
909.74        90.49365
910.14        89.77467
910.53        89.62751
910.93         90.0189
911.33        90.81918
911.72        91.75748
912.12        92.58289
912.52        93.24659
912.91        93.77978
913.31        94.27647
913.70        94.81265
914.10        95.34964
914.49        95.63544
914.89        95.07118
915.29        93.62499
915.68        91.58038
916.08        89.82202
916.47        89.07523
916.87        89.38596
917.26        90.54359
917.66        91.83927
918.05        92.13672
918.45        91.18669
918.84        89.42049
919.24        87.66434
919.64         87.1249
920.03        88.10052
920.42        90.17487
920.82         92.7293
921.21        94.79428
921.61        95.77749
922.00        95.95937
922.40        95.44701
922.79        94.40337
923.19        93.02502
923.58        91.19035
923.98        89.05431
924.37        87.49616
924.77         87.1254
925.16         85.2197
925.55        86.71876
925.95        87.77415
926.34        89.73107
926.74        92.12258
927.13        94.49564
927.52        95.83566
927.92        95.98322
928.31        95.22215
928.70        93.81534
929.10        92.27865
929.49        90.80833
929.89        89.33485
930.28        88.28333
930.67        88.36169
931.07        89.53559
931.46        91.67735
931.85         93.8533
932.24        94.63148
932.64        93.72456
933.03        91.39745
933.42        88.31857
933.82        86.04698
934.21        85.11252
934.60        85.15498
934.99        85.59364
935.39        85.86308
935.78        85.87498
936.17        85.43304
936.56        84.36357
936.96        85.63075
937.35        84.71992
937.74        85.09874
938.13        85.47794
938.53        86.22692
938.92        87.39459
939.31        89.02843
939.70        90.72658
940.09        91.26678
940.49        90.29855
940.88        88.38315
941.27        86.37057
941.66        85.24216
942.05        85.14211
942.44        85.73551
942.84        86.81158
943.23         88.0915
943.62        89.26904
944.01         90.3587
944.40        91.11687
944.79        91.17618
945.18        90.43565
945.57        88.87331
945.97        86.65398
946.36        84.50589
946.75        83.05819
947.14        82.33272
947.53        82.20938
947.92        82.43409
948.31        82.90392
948.70        83.71932
949.09        84.78939
949.48        85.79181
949.87          86.492
950.26        86.79208
950.65        86.83797
951.04         86.9668
951.43        87.25668
951.82        87.63508
952.21        87.78842
952.60        87.23967
952.99        85.95827
953.38        84.14877
953.77        82.41486
954.16        81.60202
954.55        81.85634
954.94        82.99191
955.33        84.29022
955.72        84.53064
956.11        83.42242
956.50        81.27127
956.89         79.0219
957.28        78.42383
957.66         80.0391
958.05        83.09267
958.44        86.44801
958.83        88.42161
959.22        88.56663
959.61        87.31086
960.00        85.37831
960.39        83.94975
960.78        83.40391
961.16        83.46119
961.55        83.53258
961.94        82.66248
962.33        80.73222
962.72        78.24951
963.11        76.04945
963.49        75.15617
963.88        75.72389
964.27        77.51107
964.66        79.83055
965.04        81.18427
965.43        80.90416
965.82        79.50652
966.21        77.89749
966.60        77.28529
966.98        77.90181
967.37         79.3026
967.76         80.9486
968.15         81.8056
968.53        81.52409
968.92        80.47529
969.31        79.14449
969.69        78.11061
970.08         77.5505
970.47        77.31689
970.86        77.23167
971.24         77.0191
971.63        76.59389
972.02        76.03812
972.40         75.6729
972.79        76.00501
973.17        77.23386
973.56        79.09995
973.95        80.97676
974.33        81.68539
974.72        80.85937
975.11        78.90456
975.49         76.7814
975.88        75.80814
976.26        76.17437
976.65         77.6214
977.04        79.34398
977.42         79.3905
977.81        77.15375
978.19        73.47946
978.58        70.24586
978.96         69.3263
979.35         70.9828
979.74        74.78891
980.12        79.91282
980.51        83.29925
980.89        83.93857
981.28        82.60698
981.66        80.46857
982.05        79.03675
982.43        78.62083
982.82        78.65037
983.20         79.1675
983.59        80.36044
983.97        82.27086
984.35        85.06737
984.74        87.87697
985.12        88.93498
985.51        87.24888
985.89        83.12128
986.28        78.05669
986.66        74.55328
987.04        73.55814
987.43        74.42316
987.81        75.87061
988.20        76.32972
988.58        75.35786
988.96        72.88857
989.35        69.53199
989.73        68.62035
990.12        72.08925
990.50        78.31107
990.88        83.32182
991.27        84.27079
991.65         81.6741
992.03        76.48181
992.42        70.88309
992.80        68.75466
993.18        71.10324
993.56        75.70409
993.95        80.52509
994.33        83.81184
994.71        85.15829
995.10        85.53928
995.48         84.9476
995.86        83.11254
996.24        80.08614
996.63        75.48525
997.01        70.51289
997.39        68.81627
997.77        71.87953
998.15        78.88018
998.54        86.26706
998.92        89.17497
999.30        86.21127
999.68        78.56698
1000.06        68.38509
1000.45        61.03482
1000.83        58.78305
1001.21        59.90965
1001.59        62.85034
1001.97        65.95212
1002.35         68.7949
1002.73        72.45853
1003.12        75.99709
1003.50        76.25959
1003.88        72.13188
1004.26        65.16041
1004.64        58.83017
1005.02        56.26859
1005.40        57.79033
1005.78        63.50386
1006.16        73.90092
1006.54        83.50739
1006.92        86.06713
1007.30        83.78145
1007.69        80.44744
1008.07         78.5234
1008.45        77.95132
1008.83        77.90074
1009.21        77.26247
1009.59        69.51172
1009.97        35.58215
1010.35       -25.09464
1010.73       -27.79711
1011.11        4.023804
1011.49        30.08768
1011.86        49.73264
1012.24        60.99868
1012.62        65.66547
1013.00         66.3032
1013.38        63.99886
1013.76        60.86633
1014.14        63.92317
1014.52        79.05788
1014.90        108.0463
1015.28        143.6495
1015.66        164.3609
1016.04        156.5826
1016.41        123.1777
1016.79         83.1256
1017.17         58.4525
1017.55        50.68645
1017.93        50.57624
1018.31         53.5034
1018.69        57.33262
1019.06        62.07516
1019.44        69.02841
1019.82        80.12947
1020.20        95.71029
1020.58        115.5791
1020.95        140.4994
1021.33        178.2129
1021.71       -371.8635
1022.09        67.78547
1022.46        92.60406
1022.84        101.7454
1023.22         109.557
1023.60        124.5941
1023.97        255.1999
1024.35        37.18829
1024.73        64.58171
