SpectraSmart Spectrum 2.9.0.0
--------- Device Information -----------
Spectrum Name :  反射率_0
Saving Time :  2024/04/25 23:52:29
Spectro-Module Model Name : SE2030-DUVN
Spectro-Module Serial Number : OS361AC55029948
Wavelength Start : 200
Wavelength End : 1025
Wavelength Unit : Wavelength(nm)
Spectrum Unit : Reflectance(%)
-----------Spectrum Setting ------------
Integration Time : 20ms
Average : 10
Boxcar : 0
Background removal :  enabled
linearity correction :  enabled
SC :  disabled
Intensity correction :  disabled
DWT denoise :  enabled
savitzky-golay :  disabled
FFT :  disabled
Running average :  disabled
Kalman :  disabled
High pass :  disabled
---------------BEGIN--------------------
Wavelength(nm)             Reflectance(%)
200.29               0
200.75        87.50296
201.21        83.64281
201.67        77.89033
202.13        73.02945
202.58        69.66859
203.04        67.25633
203.50        65.87057
203.96         65.9031
204.42        67.06515
204.88        68.98719
205.34        70.99514
205.80        72.50443
206.26        73.68369
206.72        75.08769
207.18        76.64411
207.64        76.26067
208.10        72.38614
208.55        67.98467
209.01        66.00794
209.47        66.50435
209.93        68.54865
210.39        72.16917
210.85        75.43472
211.31         74.0252
211.77        67.10605
212.23        56.54128
212.69        46.49231
213.14        43.41182
213.60        48.25738
214.06        59.28262
214.52        72.52728
214.98        81.70644
215.44        84.86678
215.90         83.7683
216.36        80.30782
216.81        77.07275
217.27        75.27517
217.73         74.1256
218.19         72.7076
218.65        69.72848
219.11        64.44926
219.57        56.13816
220.02        45.84459
220.48        40.10061
220.94        42.38339
221.40        51.22457
221.86        59.51489
222.32        59.83014
222.77        53.23619
223.23        43.99329
223.69         36.6312
224.15        35.86356
224.61        41.06604
225.06        49.75266
225.52        58.50793
225.98        62.97593
226.44        62.27799
226.90        58.20669
227.36        52.96108
227.81        49.47046
228.27        48.78276
228.73        49.81523
229.19         51.5813
229.65        52.66863
230.10        52.77185
230.56        52.51476
231.02        52.49247
231.48        53.36345
231.93         55.0542
232.39        57.16155
232.85        59.10215
233.31        60.08997
233.77        59.88628
234.22        58.71985
234.68        56.82541
235.14        54.72773
235.60        52.85132
236.05        51.29364
236.51        50.10254
236.97        49.15549
237.43        48.40931
237.88        47.98733
238.34        48.24151
238.80        50.01639
239.26        53.45527
239.71        58.24518
240.17        62.94556
240.63        65.72487
241.08        66.14735
241.54        64.59209
242.00        62.14901
242.46        60.23867
242.91        59.36489
243.37        59.12183
243.83        62.33253
244.28        85.97012
244.74        135.6546
245.20        137.7227
245.66        125.6951
246.11        122.6203
246.57        126.9394
247.03        141.7459
247.48        177.9027
247.94        135.8481
248.40        91.32497
248.85        80.16582
249.31        77.79396
249.77        78.31947
250.22        80.54102
250.68        85.01036
251.14         90.9865
251.59        92.48746
252.05        85.46967
252.51        73.51382
252.96        62.88425
253.42        59.05319
253.88        61.02563
254.33        66.45384
254.79        73.48842
255.25        78.92793
255.70        81.72228
256.16        83.22522
256.62        83.17042
257.07        81.16463
257.53        78.01016
257.99        73.70199
258.44        69.50679
258.90        67.82539
259.35        67.74867
259.81         68.4521
260.27        68.26723
260.72        65.55744
261.18        61.10634
261.63         55.6922
262.09        50.82713
262.55        47.60211
263.00        45.95655
263.46        45.37849
263.91        45.09326
264.37        44.57356
264.83        43.61848
265.28        42.32853
265.74        41.04093
266.19        39.97672
266.65        39.32803
267.11        38.92105
267.56        38.51324
268.02        37.81303
268.47        36.73277
268.93        35.39083
269.38        33.97893
269.84        33.03355
270.30         32.6806
270.75        32.78561
271.21        33.02451
271.66        32.91013
272.12        32.32128
272.57        31.40424
273.03        30.46273
273.48        29.87199
273.94        29.73873
274.39        29.88807
274.85        30.08571
275.31        29.97707
275.76        29.48372
276.22        28.76477
276.67        28.00098
277.13         27.5469
277.58        27.40931
278.04        27.48813
278.49        27.56087
278.95        27.38756
279.40        26.89572
279.86        26.24188
280.31        25.52304
280.77        24.99459
281.22        24.67192
281.68        24.50141
282.13        24.40232
282.59        24.30266
283.04        24.16447
283.50        24.04628
283.95        23.91343
284.41         23.7327
284.86         23.4944
285.32        23.21045
285.77         22.9553
286.22        22.90803
286.68        23.06421
287.13        23.34309
287.59         23.5736
288.04        23.48965
288.50        23.07885
288.95         22.4237
289.41        21.72339
289.86        21.17168
290.32        20.87518
290.77        20.75127
291.22        20.76991
291.68        20.84546
292.13        20.95004
292.59        21.11498
293.04        21.33908
293.50        21.61875
293.95        21.93786
294.40        22.26058
294.86        22.57368
295.31        22.87444
295.77        23.16372
296.22         23.4476
296.68        23.70624
297.13        23.87872
297.58        23.98062
298.04        24.05087
298.49        24.17089
298.95          24.501
299.40        25.05228
299.85        25.76272
300.31        26.51559
300.76        27.13785
301.21        27.56129
301.67        27.85784
302.12        28.03329
302.58        28.15059
303.03        28.22431
303.48        28.25208
303.94        28.32564
304.39        28.55379
304.84        28.95167
305.30        29.47534
305.75        29.98058
306.20        30.25138
306.66        30.26571
307.11        30.08411
307.57        29.84508
308.02        29.68501
308.47        29.67269
308.93        29.75609
309.38        29.90776
309.83        30.11639
310.29         30.3472
310.74         30.5937
311.19        30.79437
311.65        30.84998
312.10         30.7452
312.55        30.51378
313.00         30.2082
313.46        29.93032
313.91        29.71356
314.36        29.55095
314.82        29.46847
315.27        29.48757
315.72        29.60576
316.18        29.80934
316.63        30.03826
317.08        30.16834
317.53        30.16323
317.99        30.04089
318.44        29.86777
318.89        29.75971
319.35        29.73775
319.80        29.77367
320.25        29.79442
320.70        29.68209
321.16        29.41733
321.61        29.04939
322.06        28.65882
322.51        28.36257
322.97        28.18084
323.42        28.08667
323.87        28.02588
324.32        27.91042
324.78         27.7159
325.23        27.48101
325.68         27.2346
326.13        27.02557
326.59        26.86573
327.04        26.75339
327.49        26.68299
327.94        26.65215
328.39        26.65595
328.85        26.68604
329.30        26.75256
329.75        26.82963
330.20        26.90692
330.66        26.96732
331.11        27.02531
331.56        27.06139
332.01         27.0697
332.46        27.04091
332.92        26.98101
333.37        26.93646
333.82        26.91019
334.27        26.91389
334.72        26.90548
335.17        26.81189
335.63        26.62439
336.08        26.36864
336.53        26.15308
336.98         26.1556
337.43        26.40385
337.88        26.84732
338.34        27.29871
338.79        27.49833
339.24        27.35868
339.69        26.95184
340.14        26.47963
340.59        26.29701
341.05        26.48224
341.50        26.91894
341.95        27.40214
342.40        27.63413
342.85        27.54939
343.30        27.25615
343.75        26.86819
344.20        26.58265
344.66        26.46893
345.11        26.42893
345.56        26.44481
346.01        26.48959
346.46         26.5342
346.91        26.60886
347.36        26.61431
347.81        26.38372
348.26        25.91865
348.72         25.3053
349.17        24.70975
349.62         24.4875
350.07        24.71375
350.52        25.26583
350.97        25.95031
351.42        26.46777
351.87        26.72433
352.32        26.79965
352.77        26.73947
353.22        26.62394
353.67        26.49097
354.13         26.3128
354.58        26.11291
355.03        25.97362
355.48        25.91095
355.93        25.92696
356.38        25.95704
356.83        25.88381
357.28         25.6836
357.73        25.38646
358.18        25.07883
358.63        24.89773
359.08        24.87102
359.53        24.95909
359.98        25.05894
360.43        25.01037
360.88        24.78395
361.33        24.43209
361.78        24.07198
362.23        23.89373
362.68        23.93197
363.13        24.10797
363.58        24.30417
364.03        24.34025
364.48        24.17052
364.93         23.8645
365.38        23.47907
365.83        23.10287
366.28        22.78026
366.73        22.48609
367.18        22.25802
367.63        22.16014
368.08        22.18948
368.53        22.32343
368.98        22.47778
369.43        22.51291
369.88        22.39915
370.33        22.18118
370.78        21.90967
371.23        21.67845
371.68        21.52438
372.13        21.41163
372.58        21.36478
373.03        21.42357
373.48        21.57449
373.93        21.80319
374.38        22.00499
374.83         22.0153
375.28        21.80802
375.72        21.42241
376.17        20.99865
376.62        20.72989
377.07        20.67233
377.52        20.76574
377.97           20.93
378.42        21.03274
378.87        21.02877
379.32        20.95964
379.77        20.85124
380.22         20.7375
380.67        20.62967
381.11        20.51179
381.56        20.37723
382.01        20.22962
382.46        20.07498
382.91        19.92446
383.36        19.78879
383.81        19.67836
384.26        19.59756
384.71        19.54444
385.15        19.50581
385.60        19.47611
386.05        19.44004
386.50        19.38814
386.95        19.32377
387.40        19.25654
387.85        19.19304
388.29        19.13491
388.74        19.06908
389.19        18.94307
389.64        18.75343
390.09        18.50503
390.54         18.2758
390.98        18.19578
391.43        18.29459
391.88        18.52098
392.33        18.74366
392.78        18.76803
393.23        18.57497
393.67        18.23033
394.12        17.89502
394.57        17.73166
395.02         17.7733
395.47        17.95938
395.91        18.20921
396.36        18.35273
396.81        18.33931
397.26         18.2095
397.71        18.02616
398.15        17.86465
398.60        17.77496
399.05         17.7349
399.50        17.69934
399.95        17.55649
400.39        17.37419
400.84        17.12368
401.29        16.90326
401.74        16.85268
402.18        17.01148
402.63        17.30976
403.08        17.64188
403.53        17.83761
403.97        17.85134
404.42        17.73228
404.87        17.54277
405.32        17.39474
405.76        17.32576
406.21        17.30476
406.66        17.31486
407.11        17.33937
407.55        17.37323
408.00        17.42287
408.45        17.46814
408.90        17.45659
409.34        17.37832
409.79        17.24966
410.24        17.12325
410.68        17.07363
411.13        17.11943
411.58        17.24435
412.03        17.39962
412.47        17.50018
412.92        17.50708
413.37        17.44231
413.81        17.36351
414.26        17.37785
414.71        17.49351
415.15        17.67726
415.60        17.83438
416.05        17.83369
416.49         17.6511
416.94        17.34836
417.39        17.01475
417.83        16.80028
418.28         16.7596
418.73        16.83624
419.17         16.9927
419.62          17.167
420.07        17.32989
420.51        17.49815
420.96         17.6253
421.41        17.62887
421.85        17.49674
422.30        17.27761
422.74        17.04262
423.19        16.93491
423.64        16.96703
424.08        17.11173
424.53        17.30003
424.98        17.43947
425.42        17.50096
425.87        17.49782
426.31        17.45281
426.76        17.45333
427.21        17.48907
427.65        17.42005
428.10        17.31664
428.54        17.40252
428.99        17.69137
429.44        18.08791
429.88        18.42783
430.33        18.51177
430.77        18.30511
431.22        17.86915
431.66        17.40468
432.11        17.29426
432.56        17.56567
433.00        18.01161
433.45        18.42311
433.89        18.67685
434.34         18.6572
434.78        18.24771
435.23        17.74098
435.67        17.72138
436.12        18.13376
436.57        18.34958
437.01         18.2836
437.46        18.24962
437.90        18.27406
438.35        18.26237
438.79        18.22346
439.24        18.22515
439.68         18.2854
440.13        18.30869
440.57        18.31689
441.02         18.5957
441.46        18.99659
441.91        18.85733
442.35        18.30197
442.80        18.06265
443.24        18.12313
443.69        18.20527
444.13        18.22972
444.58        18.06662
445.02         17.7861
445.47         17.7859
445.91        18.01557
446.36        18.06522
446.80        17.91067
447.24         17.7924
447.69        17.74779
448.13        17.71768
448.58        17.71578
449.02        17.75317
449.47        17.80735
449.91        17.83923
450.36        17.84163
450.80        17.81884
451.25        17.79473
451.69        17.79457
452.13        17.82754
452.58        17.87376
453.02        17.92007
453.47        17.94569
453.91        17.94759
454.36        17.93877
454.80        17.91532
455.24        17.86801
455.69        17.80913
456.13         17.7329
456.58        17.68761
457.02        17.71731
457.46        17.83371
457.91        18.01366
458.35         18.1971
458.79        18.28456
459.24        18.26534
459.68        18.15397
460.13        18.02789
460.57        17.96413
461.01        18.00052
461.46        18.10702
461.90        18.23454
462.34        18.30021
462.79        18.27854
463.23        18.18554
463.68        18.08907
464.12        18.10634
464.56        18.26011
465.01        18.52446
465.45        18.75481
465.89        18.81093
466.34        18.68692
466.78        18.32693
467.22        17.92618
467.67        17.97668
468.11        18.44075
468.55        18.75449
468.99        18.80367
469.44        18.78848
469.88        18.75677
470.32        18.79603
470.77        18.89921
471.21        18.91906
471.65        18.85324
472.10         18.8578
472.54        18.92739
472.98        18.98959
473.42        19.04136
473.87        19.11453
474.31        19.19352
474.75        19.24758
475.20        19.27609
475.64        19.27192
476.08        19.26229
476.52        19.29081
476.97        19.36683
477.41        19.48376
477.85        19.59751
478.29        19.67302
478.74         19.7058
479.18         19.6123
479.62        19.45422
480.06        19.65735
480.50        19.82807
480.95        20.00302
481.39         20.0147
481.83        20.02282
482.27        20.02361
482.72         19.8447
483.16        19.57711
483.60        19.64226
484.04        20.05449
484.48        20.20804
484.93        20.34062
485.37        20.79057
485.81        21.44648
486.25          21.467
486.69         28.0168
487.14        22.49864
487.58        14.86205
488.02        18.11986
488.46        20.62168
488.90        20.76271
489.34        20.95913
489.79        20.82512
490.23        21.80408
490.67        22.48495
491.11        22.54559
491.55        22.40854
491.99        22.05856
492.43        21.79529
492.88        21.72499
493.32        21.81577
493.76        21.90346
494.20        22.15634
494.64        22.49757
495.08         22.8835
495.52        23.27234
495.96        23.62853
496.41        23.87424
496.85        23.98873
497.29        23.99857
497.73        23.71346
498.17        23.42763
498.61        23.71187
499.05        24.54641
499.49        24.74101
499.93         24.8717
500.37        24.98558
500.82        25.02341
501.26        25.24697
501.70        25.53475
502.14        25.67394
502.58        25.63747
503.02        25.62738
503.46        25.65479
503.90        25.59515
504.34        25.48958
504.78          25.465
505.22        25.54066
505.66        25.68781
506.10        25.86442
506.54        25.99636
506.98        26.06255
507.42        26.08466
507.86        26.10791
508.30         26.2034
508.74        26.38136
509.18        26.60909
509.62        26.83675
510.06         26.9847
510.50        27.03475
510.94        27.02354
511.38        26.97853
511.82        26.94128
512.26        26.93068
512.70        26.92791
513.14        26.96046
513.58        27.07307
514.02        27.25501
514.46        27.48773
514.90        27.69327
515.34        27.71549
515.78         27.5062
516.22        27.25522
516.66        27.07142
517.10        26.71866
517.54        26.23335
517.98        27.07104
518.42        27.00952
518.86        27.38223
519.30        27.50635
519.74        27.61059
520.18         27.6833
520.62        27.67743
521.06        27.62136
521.50        27.50781
521.93        27.36863
522.37        27.26847
522.81        27.22455
523.25        27.22334
523.69        27.25684
524.13        27.30799
524.57        27.36368
525.01        27.42523
525.45          27.469
525.89        27.45715
526.32         27.3819
526.76        27.25672
527.20        27.10827
527.64        26.99005
528.08        26.92181
528.52        26.86359
528.96        26.79929
529.40        26.77622
529.83        26.80273
530.27        26.59715
530.71        26.67013
531.15        26.57369
531.59         26.4663
532.03          26.336
532.46        26.24059
532.90        26.27233
533.34        26.42999
533.78        26.67607
534.22        26.91183
534.66        26.99179
535.09        26.88336
535.53        26.64595
535.97         26.3537
536.41        26.13259
536.85         26.0258
537.28        26.00163
537.72         26.0344
538.16        26.08265
538.60        26.12989
539.04        26.17285
539.47        26.21649
539.91        26.33219
540.35         26.4932
540.79        26.58294
541.22        26.61022
541.66        26.69952
542.10        26.85284
542.54        26.99157
542.97        27.12085
543.41        27.29465
543.85        27.50733
544.29        27.75607
544.72        27.98008
545.16        28.09608
545.60        28.09299
546.04        27.99475
546.47        27.91077
546.91          28.026
547.35        28.36032
547.79        28.86028
548.22        29.37152
548.66        29.62865
549.10        29.59505
549.53        29.39901
549.97        29.19135
550.41        29.13294
550.84        29.28123
551.28         29.5991
551.72        30.01566
552.15        30.39661
552.59        30.68703
553.03        30.92005
553.46         31.1023
553.90        31.27277
554.34        31.44801
554.77        31.57946
555.21        31.66121
555.65        31.78569
556.08        31.97331
556.52         31.8156
556.96         32.0694
557.39        32.14949
557.83        32.28876
558.27        32.45149
558.70         32.6352
559.14        32.81693
559.57         32.9712
560.01        33.11778
560.45        33.22731
560.88         33.2435
561.32        33.18961
561.75        33.09878
562.19        33.03821
562.63        32.99531
563.06        33.01436
563.50        33.23967
563.93        33.59528
564.37        33.83851
564.80        33.92543
565.24        33.98618
565.68        34.04023
566.11        34.08112
566.55         34.1469
566.98        34.22734
567.42        34.34692
567.85        34.53726
568.29        34.81678
568.72        35.07628
569.16        35.35376
569.60         35.7521
570.03        36.09875
570.47        36.14534
570.90        36.07328
571.34        35.30059
571.77        36.01539
572.21        36.02769
572.64        36.03569
573.08        35.63081
573.51        34.53805
573.95        36.04724
574.38        38.20174
574.82        37.49496
575.25        37.01382
575.69        35.75787
576.12        35.23317
576.56        35.15798
576.99        35.94139
577.42          37.558
577.86        37.34126
578.29        37.13225
578.73        39.15528
579.16        36.10103
579.60        32.94205
580.03        34.39322
580.47        36.65343
580.90        37.26656
581.33        36.64745
581.77         35.9533
582.20        39.23706
582.64        38.92354
583.07        33.11345
583.51        32.44678
583.94        31.81932
584.37        33.26392
584.81         34.7657
585.24        36.42878
585.68        37.13031
586.11        36.22337
586.54         33.6871
586.98        32.76767
587.41        33.02055
587.85        34.62733
588.28        35.66766
588.71        34.18437
589.15        33.02238
589.58        33.58167
590.01        33.88122
590.45        34.51442
590.88        34.70145
591.31        34.33982
591.75        34.21047
592.18        34.26993
592.61         34.9044
593.05        35.57969
593.48        37.11628
593.91        37.05906
594.35        34.31066
594.78        33.69407
595.21        33.72273
595.65        35.38575
596.08        36.80845
596.51        35.52023
596.94        34.68699
597.38        35.24892
597.81        36.92147
598.24        37.96646
598.68        37.63514
599.11        37.22431
599.54        39.10312
599.97        40.09138
600.41        37.94182
600.84        38.40921
601.27        39.54178
601.70        39.21198
602.14        39.58498
602.57        39.46391
603.00        40.32347
603.43        41.71858
603.87        43.08343
604.30         43.1717
604.73         42.2211
605.16        42.03752
605.60        42.82043
606.03        44.08683
606.46        45.32814
606.89        45.48837
607.32        44.38418
607.76        44.71129
608.19        46.54425
608.62        46.40442
609.05        46.07121
609.48        46.68466
609.92        46.70893
610.35        47.03867
610.78        48.87372
611.21        49.68492
611.64        47.79152
612.07        48.55179
612.50        49.13472
612.94        49.76541
613.37        49.70487
613.80        50.21325
614.23        50.94239
614.66        51.16508
615.09        51.54114
615.52        51.83569
615.96        52.10352
616.39        52.60989
616.82        51.90581
617.25        51.98883
617.68        52.67685
618.11         53.3826
618.54         53.9191
618.97        53.86366
619.40        53.53985
619.84        53.41515
620.27        54.65218
620.70        55.26812
621.13        55.49315
621.56        55.05388
621.99        54.52981
622.42        55.29701
622.85        56.97048
623.28        56.92791
623.71        56.51406
624.14        56.21321
624.57        56.21511
625.00        55.96771
625.43         56.0907
625.86         55.6385
626.29        55.84269
626.72        55.97092
627.15        55.71689
627.58        55.54746
628.01        55.30116
628.44        55.33793
628.87        55.22013
629.30        55.30418
629.73        55.28781
630.16        55.41444
630.59        54.65528
631.02        53.97912
631.45        53.24661
631.88        52.61595
632.31        52.12868
632.74         51.9477
633.17        51.65731
633.60        51.42183
634.03        51.09398
634.46        50.72209
634.89        50.30909
635.32        49.86431
635.75        49.40294
636.18        48.91387
636.61        48.41991
637.04        47.96114
637.47        47.54239
637.89        47.15941
638.32        46.78496
638.75        46.40349
639.18        46.01405
639.61        45.63359
640.04        45.26091
640.47        44.88697
640.90        44.51673
641.33        44.15152
641.76        43.80824
642.18        43.58087
642.61        43.48061
643.04        43.38304
643.47        43.23495
643.90        43.50946
644.33        43.29483
644.76        43.33289
645.18         43.3546
645.61        43.37786
646.04        43.39464
646.47        43.39078
646.90        43.44118
647.33        43.63197
647.75        43.99845
648.18        44.55889
648.61        45.13338
649.04        45.46054
649.47        45.50083
649.89        45.15876
650.32        44.82307
650.75        45.34631
651.18        46.64491
651.61        47.91576
652.03        48.75647
652.46        49.00406
652.89        49.05505
653.32        49.04646
653.74        49.13755
654.17        51.36925
654.60        51.47285
655.03        50.43527
655.46        51.83426
655.88        55.33305
656.31        59.18225
656.74        132.7899
657.16         86.3965
657.59        30.38724
658.02        23.52689
658.45        41.41906
658.87        53.71235
659.30        56.45416
659.73        56.53165
660.15        54.72197
660.58        57.21754
661.01        58.86699
661.44        57.19482
661.86        56.98328
662.29        57.53206
662.72        58.38463
663.14        59.37607
663.57        59.63556
664.00        59.18393
664.42        59.30368
664.85        60.02047
665.27        60.52372
665.70        60.67713
666.13        60.76592
666.55         60.7873
666.98        60.65814
667.41        60.49839
667.83        60.54851
668.26        60.85756
668.69        61.31705
669.11        61.76092
669.54        62.22878
669.96        62.10333
670.39        61.90858
670.82         61.6096
671.24        61.56875
671.67        61.93209
672.09        62.06423
672.52        62.82381
672.94        63.39632
673.37        62.99608
673.80        63.00948
674.22        63.18568
674.65        63.35176
675.07        63.48057
675.50        63.54846
675.92        63.60178
676.35        63.77003
676.77        64.05638
677.20        64.37797
677.62        64.70025
678.05        64.87205
678.47        64.83939
678.90        65.05771
679.32        64.92664
679.75        64.87327
680.17        64.96169
680.60        65.31989
681.02        65.38085
681.45        65.49663
681.87        65.48453
682.30         65.4374
682.72        65.42204
683.15         65.4346
683.57        65.58332
684.00        66.03861
684.42        66.80293
684.85        67.15329
685.27        67.06261
685.70         66.8145
686.12        66.54482
686.54        66.43443
686.97        66.53688
687.39        66.78451
687.82        67.07999
688.24        67.38217
688.66        67.59608
689.09        67.60113
689.51        67.49492
689.94        67.56107
690.36        67.84744
690.78        68.18282
691.21        68.48719
691.63        68.75151
692.06        68.91757
692.48        68.87873
692.90        68.74338
693.33        68.77678
693.75        69.01435
694.17         69.3738
694.60        69.76292
695.02        69.96135
695.44         69.9301
695.87        70.08169
696.29        70.42839
696.71         70.2369
697.14        69.71967
697.56        70.24631
697.98        71.53468
698.41        71.45046
698.83        70.72102
699.25        70.27279
699.68         70.4108
700.10        70.45141
700.52        70.41748
700.94        70.68346
701.37        71.16522
701.79        71.62479
702.21        71.97427
702.64        72.25639
703.06        72.40559
703.48        72.40215
703.90        72.28003
704.33        71.71248
704.75         71.4398
705.17        71.26167
705.59        71.43523
706.01        71.75514
706.44        72.08176
706.86        72.79169
707.28        72.84419
707.70        73.04385
708.12        73.12762
708.55        73.14921
708.97        73.10938
709.39        73.00141
709.81        72.90139
710.23        72.92922
710.66        73.10941
711.08        73.43919
711.50        73.77818
711.92        73.91502
712.34        73.80659
712.76        73.50478
713.19        73.16846
713.61        73.08905
714.03        73.31736
714.45         73.7672
714.87        74.24434
715.29        74.43948
715.71        74.28622
716.13        73.89059
716.56        73.43346
716.98        73.23477
717.40        73.37168
717.82        73.74524
718.24        74.21365
718.66        74.53623
719.08        74.63997
719.50        74.59386
719.92        74.47108
720.34        74.40753
720.76        74.44879
721.19        74.42743
721.61         74.5564
722.03        74.66171
722.45        74.79574
722.87        74.96352
723.29        75.15108
723.71        75.32114
724.13         75.4587
724.55        75.56632
724.97        75.65444
725.39        75.73526
725.81        75.81288
726.23        75.90608
726.65        76.01306
727.07        76.01958
727.49        76.10306
727.91        76.13509
728.33        76.18578
728.75        76.26686
729.17        76.37626
729.59         76.5284
730.01        76.70837
730.43        76.80709
730.85         76.8611
731.27        77.08786
731.69        77.38815
732.10        77.47857
732.52        77.34045
732.94        77.04221
733.36        76.71938
733.78        77.03627
734.20        76.98512
734.62        77.73695
735.04        78.71524
735.46        78.68254
735.88        77.89808
736.30        78.21891
736.72        79.61647
737.13        80.20892
737.55        79.70142
737.97        79.72808
738.39        80.23952
738.81        79.18144
739.23        77.22711
739.65        78.10266
740.06        81.19476
740.48        81.71519
740.90        79.69902
741.32        78.81107
741.74        79.39256
742.16        79.72057
742.57        79.83732
742.99        80.73433
743.41        82.09984
743.83        82.69064
744.25        82.45142
744.67        82.20506
745.08        82.13898
745.50        82.05168
745.92        82.03564
746.34        82.27886
746.75         82.7068
747.17        83.00029
747.59        83.12625
748.01        83.29227
748.42        83.53242
748.84        83.68822
749.26        83.90524
749.68        84.46235
750.09        85.25205
750.51        86.10226
750.93        86.71494
751.35         86.2823
751.76        85.11769
752.18        84.71127
752.60        85.10488
753.01        85.22744
753.43        85.04672
753.85        85.23498
754.27        85.80455
754.68        86.46459
755.10         87.1029
755.52        87.71929
755.93        88.23862
756.35        88.56287
756.77        88.70246
757.18        88.80589
757.60         88.9463
758.02        89.06786
758.43        88.78246
758.85        89.25628
759.26        86.66155
759.68        86.68652
760.10        88.24235
760.51        89.12814
760.93        88.94292
761.34        87.93748
761.76        87.38284
762.18        86.42465
762.59        85.78399
763.01        86.40369
763.42         88.1392
763.84        89.23895
764.26        89.46652
764.67        89.61378
765.09        89.63979
765.50        89.48872
765.92        89.10922
766.33        87.50823
766.75        85.24136
767.16        85.20621
767.58        85.79469
768.00        87.52151
768.41        89.45203
768.83         91.1609
769.24        91.94949
769.66        91.31326
770.07        89.79002
770.49        87.90178
770.90        86.29273
771.32        87.27538
771.73        90.08129
772.15        89.72937
772.56        86.69935
772.97        86.24413
773.39        88.27428
773.80        89.07054
774.22        88.36855
774.63        88.37433
775.05        89.03113
775.46        89.33426
775.88        89.17616
776.29        88.84597
776.70        88.46409
777.12        88.26215
777.53        88.31422
777.95        88.48512
778.36        88.65462
778.77        88.58957
779.19        88.29087
779.60        87.89437
780.02        87.55679
780.43        87.52091
780.84        87.97402
781.26        88.48716
781.67        89.01801
782.09        90.52201
782.50        92.25103
782.91         91.0795
783.33        87.90997
783.74        86.85428
784.15         88.1342
784.57        89.20376
784.98        89.58857
785.39        89.62701
785.81        89.28917
786.22        88.74167
786.63        88.33952
787.04        88.37157
787.46        88.90535
787.87        89.96081
788.28        91.16711
788.70        91.72875
789.11        91.48446
789.52        90.81377
789.93        90.01659
790.35        89.29991
790.76        88.87454
791.17        89.09232
791.58        89.81451
792.00        90.22647
792.41        90.17058
792.82         90.4556
793.23        90.77765
793.65        90.33611
794.06        89.48775
794.47        90.47443
794.88        92.44395
795.29        92.56444
795.71        89.44922
796.12        87.44172
796.53        86.66961
796.94        86.30115
797.35        86.49651
797.76        87.93937
798.18         89.9724
798.59        91.15017
799.00        91.05762
799.41        89.96207
799.82        88.59217
800.23        87.70288
800.64        87.59888
801.06        87.90613
801.47        88.50758
801.88         89.0929
802.29         89.5057
802.70        89.86401
803.11        90.11013
803.52        90.11936
803.93        89.90955
804.34        89.47711
804.75        88.97778
805.17        88.83531
805.58        89.19086
805.99        89.47041
806.40        89.56101
806.81        90.40932
807.22        91.38951
807.63         90.0073
808.04        87.01308
808.45        85.76447
808.86        86.55521
809.27        87.68449
809.68        88.65423
810.09        89.34605
810.50        89.52111
810.91         89.1263
811.32        88.46817
811.73         88.3225
812.14        88.69913
812.55        88.77579
812.96        88.55203
813.37        88.64672
813.78        89.06023
814.19        89.48225
814.60        89.68619
815.01        89.47782
815.42        88.82627
815.83        87.75679
816.24        86.69855
816.65        86.40767
817.05         87.1038
817.46        88.53459
817.87        90.12554
818.28         90.8313
818.69        90.36694
819.10        88.98548
819.51        87.35487
819.92        86.61121
820.33        87.04743
820.74        88.32334
821.14        89.78115
821.55        90.24437
821.96        89.47912
822.37        87.91169
822.78        86.17958
823.19         85.2152
823.60        85.26376
824.00        86.08488
824.41        87.23341
824.82        88.07503
825.23        88.32706
825.64        88.21606
826.04        87.90741
826.45          87.643
826.86        87.50594
827.27        87.35751
827.68        87.24009
828.08        87.29762
828.49        87.47283
828.90          87.836
829.31        88.18926
829.72         88.1417
830.12         87.6534
830.53        86.83955
830.94        86.08629
831.35        85.92854
831.75        86.50969
832.16        87.60466
832.57        88.93291
832.97        89.89227
833.38        90.15984
833.79        89.95171
834.20        89.52423
834.60        89.10752
835.01         88.8093
835.42        89.18594
835.82        88.93418
836.23        88.69675
836.64        88.11974
837.04        87.38115
837.45        86.70428
837.86         86.4492
838.26        86.70707
838.67        87.29444
839.08        88.01455
839.48        88.50237
839.89        88.58895
840.29        88.40623
840.70        88.02318
841.11          87.527
841.51        86.99146
841.92          86.367
842.33        85.82654
842.73        85.67001
843.14        85.90892
843.54        86.51907
843.95        87.18201
844.35          87.425
844.76        87.11711
845.17        86.40706
845.57        85.59464
845.98        85.16012
846.38        85.21833
846.79        85.60339
847.19        86.12122
847.60        86.32345
848.00        86.12978
848.41        85.66737
848.81        85.16361
849.22        84.87123
849.62        84.92014
850.03        85.23563
850.43        85.74672
850.84        86.21199
851.24        86.58871
851.65        86.72592
852.05        86.90084
852.46        87.37808
852.86         88.1859
853.27        89.25479
853.67        89.90894
854.07         89.2571
854.48        87.32032
854.88         84.4446
855.29        81.67776
855.69         80.5271
856.10        81.29836
856.50        83.78858
856.90        87.10996
857.31        89.18977
857.71         89.3186
858.12        87.98925
858.52        86.12466
858.92        84.97911
859.33         84.8343
859.73        85.36534
860.13        86.27007
860.54        86.94408
860.94        87.23643
861.34        87.30207
861.75        87.32762
862.15        87.67421
862.55         88.3685
862.96        89.24161
863.36        90.05666
863.76         90.3769
864.17        90.10967
864.57        89.48021
864.97        88.77204
865.38         88.4014
865.78        88.52355
866.18         88.9277
866.58        89.51946
866.99        90.11581
867.39        90.69244
867.79         91.3514
868.19        91.83009
868.60        91.62576
869.00         90.6982
869.40        89.16006
869.80        87.80782
870.21        87.89863
870.61        89.76073
871.01        93.01321
871.41        96.58307
871.81         98.6229
872.22        98.61223
872.62        97.09071
873.02        95.09496
873.42        94.29134
873.82        95.03139
874.22        96.81448
874.63        98.95685
875.03         99.9603
875.43        99.18781
875.83        97.45023
876.23        95.63374
876.63        95.25789
877.03        96.75374
877.44        100.4296
877.84        98.09379
878.24        108.1772
878.64        106.8468
879.04        103.1971
879.44        100.8322
879.84        99.50656
880.24        100.1835
880.64        101.8015
881.04        104.2964
881.44        105.9454
881.84        105.5625
882.24         103.814
882.65        101.9067
883.05        101.3285
883.45        102.3593
883.85        104.5841
884.25        107.1689
884.65        108.6212
885.05        108.4443
885.45        107.1735
885.85        105.6689
886.25         105.094
886.65         105.693
887.05        107.0647
887.45        108.6985
887.85        109.6901
888.25        109.7211
888.65        109.1369
889.04        108.2211
889.44        107.4474
889.84        106.9762
890.24         106.629
890.64        106.4615
891.04        106.5866
891.44        106.9714
891.84        107.6271
892.24        108.2823
892.64        108.4044
893.04         107.937
893.44        107.1295
893.83        106.3385
894.23        106.1245
894.63        106.5762
895.03        107.4505
895.43        108.6983
895.83        110.1923
896.23        111.7355
896.63        113.3291
897.02        114.4321
897.42        114.1824
897.82        112.5418
898.22        109.8595
898.62        107.0732
899.01        105.5523
899.41        105.6218
899.81        106.8409
900.21        108.5814
900.61        109.7888
901.00        110.1224
901.40        109.9199
901.80        109.4531
902.20        109.1509
902.59        109.1569
902.99        109.2542
903.39        109.3702
903.79        109.4257
904.18        109.3761
904.58        109.3261
904.98        109.2538
905.38        109.0975
905.77         108.845
906.17         108.524
906.57        108.2203
906.96        108.1123
907.36        108.1792
907.76        108.3934
908.15        108.6127
908.55        108.4892
908.95        108.0034
909.34        107.1995
909.74        106.4101
910.14        105.9812
910.53         106.038
910.93         106.555
911.33        107.2672
911.72        107.7079
912.12        107.7015
912.52        107.3447
912.91        107.0656
913.31        107.4774
913.70        108.7193
914.10        110.6696
914.49        112.7243
914.89        113.1432
915.29         111.441
915.68        108.2854
916.08        105.2244
916.47        103.6941
916.87         103.886
917.26        105.3199
917.66        107.1533
918.05        108.0412
918.45        107.5894
918.84        106.2724
919.24        104.8494
919.64        104.3954
920.03        105.1991
920.42        106.8779
920.82        108.8202
921.21        110.1719
921.61        110.4672
922.00        110.0205
922.40        109.1535
922.79        108.2242
923.19        107.3854
923.58        106.6701
923.98        106.0445
924.37         105.142
924.77        104.1062
925.16        103.7772
925.55        103.2914
925.95        104.2729
926.34        106.3832
926.74        109.1434
927.13        111.7695
927.52        112.8595
927.92        112.2472
928.31        110.3466
928.70        107.7784
929.10        105.5933
929.49        104.1344
929.89        103.1781
930.28         102.874
930.67         103.451
931.07        104.7283
931.46         106.717
931.85        108.6921
932.24        109.5575
932.64        109.1029
933.03        107.4946
933.42        105.2076
933.82        103.4376
934.21        102.5665
934.60        102.3583
934.99        102.5102
935.39        102.5134
935.78        102.2678
936.17        102.0584
936.56        101.8135
936.96        101.1324
937.35        100.6353
937.74        100.0116
938.13        99.71716
938.53        100.0941
938.92        101.1191
939.31        102.7677
939.70         104.554
940.09        105.2042
940.49        104.3064
940.88        102.4052
941.27        100.3523
941.66        99.13602
942.05         98.9192
942.44        99.39777
942.84        100.3299
943.23        101.4255
943.62        102.3982
944.01        103.2678
944.40        103.9692
944.79        104.4233
945.18        104.5962
945.57        104.4438
945.97        103.7409
946.36        102.3437
946.75        100.5344
947.14        98.72584
947.53        97.41267
947.92        96.93594
948.31        97.24351
948.70        98.26413
949.09        99.74905
949.48        101.0281
949.87        101.7117
950.26        101.8256
950.65         101.652
951.04        101.7205
951.43        102.1428
951.82        102.7348
952.21        103.0787
952.60        102.5484
952.99        101.0898
953.38        99.01766
953.77        96.97707
954.16        95.85432
954.55        95.84203
954.94         96.7398
955.33        97.97166
955.72         98.5586
956.11        98.23672
956.50        97.23695
956.89        96.21597
957.28        96.36909
957.66        98.06969
958.05        100.6829
958.44         103.339
958.83        104.7735
959.22        104.6791
959.61         103.378
960.00        101.5534
960.39        100.3157
960.78        99.99506
961.16        100.3514
961.55          100.73
961.94        100.0585
962.33        98.17924
962.72          95.624
963.11        93.24458
963.49        92.10646
963.88        92.37177
964.27        93.74517
964.66        95.62798
965.04        96.73909
965.43         96.4569
965.82        95.27586
966.21        93.84442
966.60        93.00118
966.98        92.93027
967.37        93.27448
967.76        93.80811
968.15        94.12012
968.53        94.04089
968.92        93.72928
969.31        93.28259
969.69        92.74183
970.08        92.18691
970.47        91.63551
970.86        91.13402
971.24        90.81818
971.63        90.71438
972.02        90.76425
972.40        91.15164
972.79        92.09964
973.17        93.70659
973.56         95.7578
973.95        97.60693
974.33        98.02668
974.72        96.72632
975.11        94.18716
975.49         91.5372
975.88        90.31786
976.26        90.76389
976.65        92.59338
977.04        94.98804
977.42         95.8239
977.81         94.2769
978.19        91.14161
978.58        88.36493
978.96        87.98806
979.35         90.3014
979.74        94.77702
980.12        100.3936
980.51        103.6005
980.89        103.3074
981.28        100.5743
981.66        96.84141
982.05        93.91039
982.43        92.18614
982.82        91.17439
983.20        90.92834
983.59        91.67429
983.97        93.45358
984.35        96.37629
984.74        99.73043
985.12        102.1028
985.51        102.4216
985.89         100.864
986.28        97.99417
986.66        94.93798
987.04        92.54743
987.43        90.81909
987.81        89.69602
988.20         89.0463
988.58        88.75772
988.96        88.91158
989.35         89.8991
989.73        92.62074
990.12        96.30818
990.50        99.95696
990.88        101.9781
991.27        101.8867
991.65        100.1127
992.03        96.84306
992.42        93.08799
992.80        90.68113
993.18        90.40649
993.56        91.38425
993.95         92.7786
994.33        93.94136
994.71        94.57533
995.10        95.11802
995.48        95.29543
995.86        94.51005
996.24         92.6765
996.63        89.63329
997.01        86.32182
997.39         85.4674
997.77        88.12283
998.15        93.45847
998.54        98.89542
998.92        101.1532
999.30        99.20596
999.68        93.99968
1000.06        86.70988
1000.45         80.5163
1000.83        77.05459
1001.21        75.51366
1001.59        75.67786
1001.97        77.31922
1002.35        80.21239
1002.73        85.09515
1003.12        90.53662
1003.50        91.94959
1003.88         87.2837
1004.26        78.72064
1004.64        70.68186
1005.02        67.03995
1005.40        68.17673
1005.78         74.0564
1006.16         85.1368
1006.54        95.47087
1006.92        98.35732
1007.30        96.16135
1007.69        93.22806
1008.07        92.59115
1008.45        94.84131
1008.83        100.6219
1009.21        113.1961
1009.59        134.2318
1009.97        146.0359
1010.35        104.5999
1010.73        52.35303
1011.11        47.46742
1011.49        58.04033
1011.86        70.33007
1012.24        78.75119
1012.62         83.0751
1013.00        84.98814
1013.38        85.75297
1013.76        87.60774
1014.14        96.13593
1014.52        115.4379
1014.90        146.2433
1015.28        180.8266
1015.66        199.8866
1016.04        190.9722
1016.41        155.9497
1016.79        113.1827
1017.17        84.51268
1017.55        72.99415
1017.93        70.40419
1018.31        72.01064
1018.69         75.5224
1019.06        80.87765
1019.44        89.31828
1019.82        103.9263
1020.20         127.785
1020.58        165.0737
1020.95        225.9734
1021.33        350.5021
1021.71       -1485.226
1022.09       -8.980971
1022.46        72.41006
1022.84        99.52302
1023.22        112.0722
1023.60        121.5163
1023.97        162.7756
1024.35        104.3517
1024.73         119.108
