SpectraSmart Spectrum 2.9.0.0
--------- Device Information -----------
Spectrum Name :  反射率_0
Saving Time :  2024/04/25 22:54:59
Spectro-Module Model Name : SE2030-DUVN
Spectro-Module Serial Number : OS361AC55029948
Wavelength Start : 200
Wavelength End : 1025
Wavelength Unit : Wavelength(nm)
Spectrum Unit : Reflectance(%)
-----------Spectrum Setting ------------
Integration Time : 20ms
Average : 10
Boxcar : 0
Background removal :  enabled
linearity correction :  enabled
SC :  disabled
Intensity correction :  disabled
DWT denoise :  enabled
savitzky-golay :  disabled
FFT :  disabled
Running average :  disabled
Kalman :  disabled
High pass :  disabled
---------------BEGIN--------------------
Wavelength(nm)             Reflectance(%)
200.29               0
200.75        81.21014
201.21        75.24368
201.67        68.20064
202.13        63.23615
202.58        60.76814
203.04        60.27537
203.50        61.11654
203.96        62.18774
204.42        62.92091
204.88        63.49281
205.34          64.021
205.80        64.70194
206.26        65.83134
206.72        68.05129
207.18        71.70284
207.64        73.17032
208.10        68.07394
208.55        61.57932
209.01        58.59865
209.47        59.47428
209.93          62.952
210.39        68.78276
210.85        74.83237
211.31        75.97358
211.77        70.72936
212.23        61.14802
212.69        51.49752
213.14        48.39407
213.60        52.92172
214.06        63.27382
214.52        75.51888
214.98        83.51931
215.44        85.47206
215.90        83.18922
216.36        78.94684
216.81        75.81312
217.27         74.9116
217.73        75.20803
218.19        75.14204
218.65        72.59784
219.11        66.66044
219.57        56.57755
220.02        43.81654
220.48        36.74767
220.94        39.92479
221.40        51.10329
221.86        61.70818
222.32        62.87096
222.77        55.70151
223.23        45.19501
223.69        36.35402
224.15        34.28346
224.61        38.40888
225.06        46.09732
225.52        53.88899
225.98        57.42634
226.44        55.90712
226.90         51.2632
227.36         45.7364
227.81        42.28313
228.27        41.92161
228.73        43.43634
229.19        45.90469
229.65        48.01283
230.10        49.24858
230.56        50.02331
231.02        50.58966
231.48        51.18757
231.93        51.85245
232.39        52.51526
232.85        52.93489
233.31        52.82962
233.77        52.17355
234.22        51.05872
234.68         49.9227
235.14        49.55738
235.60        50.18201
236.05         51.5486
236.51        53.08243
236.97         53.9411
237.43        53.92677
237.88        53.24656
238.34        52.10836
238.80        51.47603
239.26        51.85075
239.71          53.076
240.17        54.60711
240.63        55.92765
241.08        56.90264
241.54        57.74276
242.00        58.46835
242.46        59.05334
242.91        59.78539
243.37        60.60636
243.83        64.69118
244.28        91.84238
244.74        149.0166
245.20        149.9931
245.66        135.3826
246.11        131.4555
246.57        136.0594
247.03        153.1542
247.48        197.6045
247.94        153.8529
248.40        101.2258
248.85         87.3647
249.31        84.32488
249.77        85.19276
250.22         88.4645
250.68          94.646
251.14        102.9892
251.59        106.1489
252.05        98.35936
252.51        83.90575
252.96        69.90559
253.42        62.27618
253.88        60.23749
254.33        61.76936
254.79        66.06842
255.25        71.33228
255.70        76.19843
256.16        80.73759
256.62        83.79597
257.07        84.20301
257.53        82.70142
257.99        79.63555
258.44        76.05256
258.90        74.16007
259.35        73.28475
259.81        72.89657
260.27        71.90576
260.72        69.23708
261.18        65.49403
261.63        61.05747
262.09        56.96201
262.55        53.71327
263.00        51.33938
263.46        49.74514
263.91        48.46218
264.37        47.27938
264.83         45.9898
265.28        44.54079
265.74        43.21636
266.19        42.16774
266.65        41.54976
267.11         41.2082
267.56        40.83883
268.02         40.0739
268.47        38.82307
268.93        37.22733
269.38        35.54747
269.84        34.46189
270.30         34.1358
270.75        34.37888
271.21        34.80965
271.66        34.85033
272.12        34.34628
272.57        33.47255
273.03        32.51166
273.48        31.80425
273.94        31.47157
274.39        31.35231
274.85        31.29508
275.31        31.06899
275.76        30.61061
276.22        30.03741
276.67        29.44476
277.13         29.0602
277.58        28.86693
278.04        28.81781
278.49        28.74404
278.95        28.48404
279.40        27.98128
279.86        27.36104
280.31        26.70283
280.77        26.24277
281.22         25.9803
281.68        25.86673
282.13        25.80756
282.59        25.71197
283.04        25.54225
283.50        25.36976
283.95        25.17084
284.41        24.93434
284.86        24.65811
285.32        24.34726
285.77        24.08983
286.22        24.08446
286.68        24.32462
287.13        24.72354
287.59        25.06828
288.04        25.02774
288.50        24.58283
288.95        23.83337
289.41        23.03981
289.86         22.4845
290.32        22.29047
290.77        22.34873
291.22        22.56296
291.68        22.74598
292.13        22.85243
292.59        22.94839
293.04        23.10707
293.50        23.44315
293.95        23.95987
294.40         24.5743
294.86        25.19546
295.31        25.70242
295.77        26.07006
296.22        26.34776
296.68        26.56795
297.13        26.75218
297.58        26.94544
298.04        27.16234
298.49        27.47108
298.95        28.01599
299.40        28.79661
299.85        29.75674
300.31        30.76847
300.76        31.63225
301.21        32.27254
301.67        32.76911
302.12        33.12552
302.58        33.41886
303.03        33.66427
303.48        33.85139
303.94        34.09647
304.39        34.53989
304.84        35.19686
305.30        36.01602
305.75        36.78838
306.20         37.2012
306.66          37.225
307.11        36.95277
307.57        36.61774
308.02        36.48626
308.47        36.65584
308.93          37.033
309.38        37.50899
309.83        37.94703
310.29        38.28116
310.74        38.54145
311.19         38.7258
311.65        38.82598
312.10        38.84521
312.55        38.78147
313.00        38.64277
313.46         38.4635
313.91        38.25554
314.36         38.0381
314.82        37.86477
315.27        37.78792
315.72        37.82419
316.18        37.95538
316.63        38.12192
317.08        38.20026
317.53        38.15352
317.99        37.99803
318.44        37.81108
318.89          37.723
319.35        37.74959
319.80        37.85929
320.25        37.93328
320.70        37.78112
321.16        37.37281
321.61        36.78034
322.06        36.15385
322.51        35.71851
322.97        35.51514
323.42        35.48952
323.87        35.52073
324.32        35.40547
324.78        35.08619
325.23         34.6397
325.68        34.15287
326.13        33.77078
326.59        33.53161
327.04        33.40803
327.49        33.35048
327.94        33.28644
328.39        33.18988
328.85         33.0734
329.30        32.98726
329.75        32.96133
330.20        33.00341
330.66        33.07602
331.11        33.16316
331.56        33.19485
332.01        33.14944
332.46        33.02915
332.92         32.8592
333.37        32.73613
333.82        32.67352
334.27        32.67015
334.72        32.65832
335.17        32.52274
335.63        32.24311
336.08        31.86174
336.53        31.51245
336.98        31.41412
337.43        31.60238
337.88        32.01076
338.34        32.42764
338.79        32.55733
339.24        32.30288
339.69        31.75506
340.14        31.13104
340.59        30.81384
341.05        30.89893
341.50        31.26128
341.95        31.70816
342.40        31.95844
342.85        31.94186
343.30        31.76069
343.75        31.48664
344.20        31.24434
344.66        31.08689
345.11        30.93476
345.56        30.82101
346.01        30.79936
346.46        30.85774
346.91        31.00046
347.36        31.08764
347.81        30.88839
348.26        30.38779
348.72        29.69387
349.17        29.00049
349.62        28.70634
350.07        28.90055
350.52        29.44518
350.97        30.13094
351.42        30.63643
351.87        30.85916
352.32        30.88446
352.77        30.76729
353.22        30.59934
353.67        30.42449
354.13        30.21827
354.58        29.98834
355.03        29.79452
355.48        29.65124
355.93        29.56325
356.38        29.50857
356.83        29.43694
357.28        29.32899
357.73        29.18982
358.18        29.02895
358.63        28.86188
359.08        28.69793
359.53        28.54402
359.98        28.37965
360.43        28.17494
360.88        27.93093
361.33        27.65124
361.78        27.40899
362.23        27.32145
362.68        27.39489
363.13        27.58109
363.58        27.74747
364.03        27.68657
364.48        27.36296
364.93        26.85526
365.38        26.28969
365.83        25.87146
366.28         25.6644
366.73        25.60332
367.18        25.64658
367.63        25.72294
368.08        25.78757
368.53        25.85795
368.98        25.88588
369.43        25.79047
369.88        25.56765
370.33          25.244
370.78        24.88674
371.23        24.61977
371.68        24.48374
372.13        24.44282
372.58        24.48956
373.03        24.60046
373.48        24.74648
373.93        24.93139
374.38        25.07871
374.83        25.07109
375.28        24.89428
375.72         24.5678
376.17        24.22088
376.62        24.03155
377.07        24.04378
377.52        24.19912
377.97        24.40258
378.42        24.49709
378.87        24.43924
379.32        24.28659
379.77        24.08718
380.22        23.90611
380.67        23.76627
381.11        23.64564
381.56        23.54245
382.01        23.46651
382.46        23.41544
382.91        23.38895
383.36         23.3715
383.81         23.3328
384.26         23.2644
384.71        23.17408
385.15        23.05744
385.60        22.92776
386.05        22.77929
386.50         22.6036
386.95         22.4255
387.40        22.29121
387.85        22.21848
388.29        22.19904
388.74        22.20036
389.19        22.13264
389.64        21.98635
390.09        21.77416
390.54        21.58708
390.98        21.57611
391.43        21.77018
391.88        22.10225
392.33        22.42026
392.78        22.50303
393.23        22.32726
393.67        21.96719
394.12        21.60429
394.57        21.41876
395.02        21.44944
395.47        21.63047
395.91        21.87884
396.36        22.01519
396.81         21.9888
397.26        21.84548
397.71        21.64917
398.15        21.47205
398.60        21.36868
399.05        21.31646
399.50        21.27397
399.95        21.12541
400.39        20.95474
400.84        20.72063
401.29         20.5197
401.74        20.47998
402.18        20.63932
402.63        20.92972
403.08        21.25589
403.53        21.46423
403.97        21.51108
404.42        21.43575
404.87        21.28997
405.32        21.16687
405.76        21.09713
406.21        21.06047
406.66        21.04007
407.11        21.01945
407.55        20.99749
408.00        20.97785
408.45        20.95999
408.90        20.92702
409.34        20.87802
409.79        20.82038
410.24        20.77377
410.68        20.76576
411.13        20.80506
411.58        20.88081
412.03        20.97432
412.47        21.05631
412.92        21.09925
413.37        21.11211
413.81        21.10314
414.26        21.10609
414.71        21.11834
415.15        21.13196
415.60        21.11983
416.05        21.05755
416.49        20.94418
416.94        20.80734
417.39        20.66381
417.83         20.5398
418.28        20.45766
418.73        20.40307
419.17        20.40195
419.62        20.48879
420.07        20.65643
420.51        20.88802
420.96        21.10368
421.41        21.16713
421.85        21.04559
422.30         20.8114
422.74        20.54345
423.19        20.39895
423.64        20.39399
424.08        20.49589
424.53        20.64041
424.98        20.75353
425.42        20.81333
425.87        20.82843
426.31        20.81075
426.76        20.83573
427.21        20.88255
427.65        20.79032
428.10         20.6487
428.54        20.73769
428.99        21.07512
429.44        21.53883
429.88        21.92587
430.33        21.99222
430.77        21.69884
431.22         21.1302
431.66        20.52676
432.11        20.34764
432.56        20.62816
433.00        21.09533
433.45        21.52618
433.89        21.87461
434.34        21.98224
434.78        21.56324
435.23        20.94717
435.67        20.91523
436.12        21.39708
436.57         21.5833
437.01        21.40739
437.46        21.33101
437.90        21.40062
438.35        21.48482
438.79        21.53816
439.24        21.55177
439.68        21.53171
440.13        21.39556
440.57         21.2475
441.02        21.52755
441.46        22.08341
441.91        22.14058
442.35        21.73446
442.80        21.50325
443.24         21.4554
443.69         21.4979
444.13        21.55686
444.58        21.33125
445.02        20.91759
445.47        20.88075
445.91         21.1613
446.36        21.22974
446.80        21.05359
447.24        20.93203
447.69        20.90027
448.13         20.8729
448.58        20.86295
449.02        20.88602
449.47        20.92394
449.91        20.94748
450.36        20.95313
450.80        20.94135
451.25        20.93646
451.69        20.96362
452.13        21.02942
452.58        21.11101
453.02         21.1902
453.47        21.24195
453.91        21.26053
454.36        21.26076
454.80        21.23527
455.24        21.16799
455.69        21.07564
456.13        20.95812
456.58        20.87954
457.02        20.90196
457.46        21.04088
457.91        21.26405
458.35        21.50164
458.79        21.64039
459.24        21.66331
459.68        21.58731
460.13         21.4825
460.57        21.41064
461.01        21.41267
461.46        21.46469
461.90        21.53953
462.34        21.59204
462.79        21.60271
463.23        21.57746
463.68        21.56009
464.12        21.62841
464.56        21.78999
465.01        22.03305
465.45        22.22199
465.89        22.24181
466.34         22.0952
466.78        21.70226
467.22        21.26073
467.67        21.30217
468.11        21.77032
468.55        22.01333
468.99        21.95005
469.44        21.89438
469.88        21.91591
470.32         22.0932
470.77        22.36193
471.21        22.45238
471.65        22.33882
472.10        22.23543
472.54        22.19201
472.98        22.20978
473.42        22.30578
473.87        22.48709
474.31        22.69185
474.75        22.81998
475.20        22.85481
475.64        22.81275
476.08        22.75143
476.52        22.75887
476.97        22.85715
477.41        23.02281
477.85        23.19556
478.29        23.32282
478.74        23.39235
479.18        23.31021
479.62        23.14398
480.06        23.38832
480.50        23.57703
480.95        23.76259
481.39        23.75756
481.83        23.76701
482.27         23.7906
482.72        23.62031
483.16        23.36313
483.60        23.50255
484.04        24.04157
484.48        24.30241
484.93        24.56518
485.37        25.06095
485.81         25.5942
486.25        25.79182
486.69        34.11446
487.14         27.1041
487.58        17.78345
488.02        21.72581
488.46        24.83212
488.90        25.03531
489.34        25.24073
489.79        25.11936
490.23        26.41618
490.67        26.99774
491.11        26.64106
491.55        26.58568
491.99        26.75707
492.43        26.76952
492.88        26.68612
493.32        26.90928
493.76        27.21798
494.20        27.58213
494.64        27.89931
495.08        28.18532
495.52        28.45629
495.96        28.76568
496.41        29.05526
496.85        29.29826
497.29        29.46998
497.73         29.2168
498.17        28.88463
498.61        29.21816
499.05        30.22259
499.49        30.53097
499.93        30.81722
500.37        30.93341
500.82        30.82482
501.26        31.01853
501.70        31.37778
502.14        31.52575
502.58        31.44081
503.02        31.44349
503.46        31.54934
503.90        31.58246
504.34        31.56567
504.78        31.61304
505.22        31.73578
505.66        31.90783
506.10        32.09573
506.54        32.24097
506.98        32.32711
507.42        32.37065
507.86        32.41296
508.30        32.51884
508.74        32.69783
509.18        32.92302
509.62        33.14627
510.06        33.28902
510.50        33.33513
510.94        33.32112
511.38        33.28013
511.82        33.26224
512.26        33.28717
512.70         33.3335
513.14        33.41682
513.58        33.56329
514.02        33.75561
514.46         33.9754
514.90        34.15822
515.34         34.1728
515.78        33.97861
516.22        33.75064
516.66        33.57264
517.10          33.204
517.54        32.67891
517.98        33.33919
518.42        33.19737
518.86        33.53531
519.30        33.73645
519.74        33.98549
520.18        34.22109
520.62        34.31955
521.06        34.28407
521.50        34.13069
521.93        33.91873
522.37        33.75882
522.81        33.68574
523.25        33.67118
523.69        33.70052
524.13        33.74737
524.57        33.79485
525.01        33.85117
525.45        33.89059
525.89         33.8691
526.32        33.77642
526.76        33.62397
527.20        33.44327
527.64        33.29798
528.08        33.21243
528.52        33.14286
528.96        33.06094
529.40        33.01175
529.83        33.00636
530.27         32.7016
530.71        32.75385
531.15        32.65707
531.59        32.60857
532.03        32.57517
532.46        32.58228
532.90        32.66491
533.34        32.80583
533.78        32.98843
534.22        33.13236
534.66        33.12047
535.09        32.93253
535.53        32.62382
535.97        32.27842
536.41        32.03952
536.85        31.95155
537.28         31.9798
537.72        32.07726
538.16        32.16704
538.60        32.22255
539.04        32.24258
539.47        32.24953
539.91        32.36021
540.35        32.54784
540.79        32.66196
541.22        32.70057
541.66        32.79615
542.10        32.94853
542.54        33.07364
542.97        33.19116
543.41        33.38508
543.85        33.65395
544.29        33.98546
544.72        34.30218
545.16        34.49889
545.60         34.5556
546.04        34.49949
546.47        34.45095
546.91        34.61408
547.35        35.01141
547.79        35.58649
548.22        36.16576
548.66        36.45199
549.10        36.40817
549.53        36.18464
549.97        35.96171
550.41        35.93131
550.84        36.15934
551.28        36.60036
551.72        37.15676
552.15        37.64285
552.59        37.98839
553.03        38.24201
553.46         38.4291
553.90        38.60917
554.34        38.80175
554.77        38.97493
555.21        39.12665
555.65        39.18643
556.08        39.48425
556.52        39.27657
556.96        39.57353
557.39        39.62008
557.83        39.70612
558.27        39.79068
558.70        39.91105
559.14        40.11507
559.57        40.38193
560.01        40.70934
560.45        40.99695
560.88        41.08838
561.32        40.99202
561.75        40.74143
562.19        40.48119
562.63        40.37579
563.06         40.4594
563.50        40.69216
563.93        40.98811
564.37        41.23033
564.80        41.36719
565.24         41.4513
565.68        41.50889
566.11        41.58381
566.55        41.71939
566.98        41.88212
567.42        42.07519
567.85        42.31144
568.29        42.60742
568.72        42.81444
569.16        43.01029
569.60        43.45388
570.03        43.95104
570.47        44.02262
570.90        43.83417
571.34        43.21045
571.77        43.82246
572.21        43.84951
572.64        43.82843
573.08        43.27805
573.51        41.62626
573.95        43.42408
574.38        46.28521
574.82        45.41579
575.25        45.17966
575.69        43.61703
576.12        42.86509
576.56        42.37054
576.99        43.44043
577.42        45.59096
577.86        45.24946
578.29        44.98797
578.73        47.28205
579.16         43.5233
579.60         39.8043
580.03        41.55695
580.47        44.24609
580.90        44.90625
581.33        43.95044
581.77        43.43091
582.20        47.63107
582.64        47.03888
583.07        40.05206
583.51        39.23286
583.94        38.64592
584.37        40.32397
584.81        42.08983
585.24        44.14829
585.68          45.179
586.11        44.01761
586.54         40.9362
586.98        39.63496
587.41        40.26737
587.85        42.29876
588.28        43.38329
588.71        41.42273
589.15        40.15263
589.58        40.81068
590.01        41.07623
590.45        41.93422
590.88        42.07455
591.31        41.66747
591.75        41.53074
592.18        41.59802
592.61        42.34978
593.05        43.31664
593.48         44.9566
593.91        45.35169
594.35        41.46347
594.78        40.75479
595.21        40.93613
595.65        42.99924
596.08        44.63853
596.51        43.01655
596.94        42.06363
597.38        42.70599
597.81        44.60928
598.24        46.00191
598.68        45.29342
599.11        44.98346
599.54        47.10993
599.97        48.24748
600.41        45.72513
600.84        46.22639
601.27        47.41375
601.70        47.25474
602.14        47.65282
602.57        47.30072
603.00        47.79979
603.43        49.83381
603.87         51.3464
604.30        51.50858
604.73        50.28257
605.16         49.8144
605.60        51.20682
606.03        52.61032
606.46         53.7922
606.89        53.52468
607.32        52.62117
607.76        52.81328
608.19        54.88217
608.62        54.55013
609.05        54.09314
609.48        54.80522
609.92        54.80783
610.35         55.1221
610.78        57.28434
611.21         57.5513
611.64        55.58243
612.07        56.43256
612.50        57.23889
612.94        58.00507
613.37        57.87842
613.80        58.19942
614.23        58.98986
614.66        59.13884
615.09        59.49403
615.52        59.70303
615.96        59.90569
616.39         60.1999
616.82        59.54416
617.25        59.85707
617.68        60.70163
618.11        61.42187
618.54        61.75149
618.97        61.49799
619.40         61.0019
619.84        60.97317
620.27         61.8248
620.70        62.62423
621.13        63.25452
621.56        62.91217
621.99        61.91306
622.42        62.66953
622.85        64.74947
623.28        64.26263
623.71        64.05977
624.14        63.45651
624.57         63.4831
625.00        62.96897
625.43         63.3062
625.86        62.74428
626.29        62.79247
626.72        63.43237
627.15        62.94814
627.58        62.98991
628.01        62.93533
628.44        62.88689
628.87        62.85903
629.30        62.74723
629.73        62.62912
630.16        62.67878
630.59        61.89428
631.02         61.2648
631.45        60.61361
631.88        60.05796
632.31        59.61582
632.74        59.53568
633.17        59.26062
633.60        59.03508
634.03        58.67109
634.46        58.25335
634.89        57.79379
635.32        57.26833
635.75        56.72919
636.18        56.27803
636.61        55.92669
637.04        55.58722
637.47        55.24863
637.89        54.98055
638.32        54.71873
638.75        54.35769
639.18        53.88814
639.61        53.35545
640.04        52.81847
640.47        52.36415
640.90        52.02084
641.33        51.76136
641.76        51.55523
642.18        51.42682
642.61        51.36216
643.04        51.24032
643.47        51.02632
643.90        51.32393
644.33        51.07209
644.76        51.12802
645.18        51.16824
645.61        51.20192
646.04        51.21881
646.47         51.2159
646.90        51.27244
647.33        51.47343
647.75        51.85155
648.18        52.42009
648.61        53.00592
649.04        53.33986
649.47        53.38519
649.89        53.10111
650.32        52.84341
650.75        53.32271
651.18         54.5052
651.61        55.75416
652.03        56.67861
652.46        57.12109
652.89        57.40094
653.32        57.23616
653.74        56.96294
654.17        59.13668
654.60        60.04447
655.03        58.69945
655.46        59.78854
655.88        63.61586
656.31        68.44338
656.74        152.1928
657.16        97.68397
657.59        34.30811
658.02        26.77444
658.45        47.21792
658.87        61.09636
659.30        64.11491
659.73        63.78823
660.15        61.75822
660.58        64.30041
661.01        66.31829
661.44        64.73422
661.86        64.32977
662.29        64.44229
662.72        65.51893
663.14        67.29375
663.57        67.55738
664.00        66.53021
664.42        66.43336
664.85        67.35849
665.27        67.92167
665.70        67.93838
666.13        67.88123
666.55         67.7468
666.98        67.41826
667.41         67.0532
667.83        66.94923
668.26         67.1667
668.69        67.59109
669.11        68.04257
669.54        68.51324
669.96        68.30753
670.39        68.15537
670.82        67.99274
671.24        67.81378
671.67        67.92774
672.09        68.35351
672.52        68.91299
672.94        69.67802
673.37        69.35607
673.80        69.22952
674.22        69.06415
674.65        69.04735
675.07        69.19579
675.50        69.25989
675.92        69.26409
676.35        69.41083
676.77        69.70425
677.20        70.00503
677.62         70.2793
678.05        70.48093
678.47        70.58165
678.90        70.61362
679.32        70.61662
679.75        70.52053
680.17        70.62253
680.60        70.69149
681.02        70.76528
681.45        70.73148
681.87         70.5881
682.30        70.40816
682.72        70.28893
683.15        70.29333
683.57        70.51064
684.00        71.03458
684.42        71.81862
684.85        72.18797
685.27        72.09426
685.70        71.78081
686.12        71.40419
686.54        71.20762
686.97        71.25811
687.39        71.48467
687.82        71.74722
688.24        72.01366
688.66        72.00214
689.09        71.90556
689.51        71.77221
689.94        71.90429
690.36        72.29222
690.78        72.50914
691.21        72.53489
691.63        72.78816
692.06        73.16762
692.48        73.10776
692.90        72.72069
693.33        72.61076
693.75         72.8299
694.17        73.10522
694.60        73.36001
695.02        73.53523
695.44        73.59614
695.87        73.77291
696.29        74.06567
696.71        73.99023
697.14        73.72237
697.56        73.96161
697.98        75.15565
698.41        74.92435
698.83        74.14028
699.25         73.6974
699.68        73.85967
700.10        73.82665
700.52        73.57896
700.94        73.97179
701.37        74.17159
701.79        74.59837
702.21        74.93372
702.64        75.25881
703.06        75.48238
703.48         75.4665
703.90        75.22733
704.33        74.80902
704.75        74.35937
705.17         74.2086
705.59        74.43433
706.01        74.81795
706.44        75.21476
706.86        76.00459
707.28        76.09035
707.70         76.3959
708.12        76.58646
708.55         76.4119
708.97        75.96851
709.39        75.76448
709.81        75.85214
710.23        75.86397
710.66        75.80781
711.08         75.9845
711.50        76.28606
711.92        76.40933
712.34        76.31368
712.76        76.06823
713.19        75.82054
713.61        75.84349
714.03        76.17405
714.45        76.72266
714.87        77.26768
715.29        77.46409
715.71        77.24329
716.13         76.7194
716.56        76.12398
716.98        75.86466
717.40        76.03613
717.82        76.51355
718.24        77.10059
718.66        77.46204
719.08        77.49847
719.50        77.31939
719.92        77.03498
720.34        76.83971
720.76        76.80048
721.19        76.72415
721.61        76.83966
722.03        76.98425
722.45        77.20435
722.87        77.49829
723.29        77.80254
723.71         77.9963
724.13        78.04666
724.55        77.97782
724.97        77.85023
725.39        77.77479
725.81        77.78486
726.23         77.8523
726.65        77.94348
727.07        78.00051
727.49        78.01292
727.91        78.01308
728.33        78.02099
728.75        78.06572
729.17        78.14993
729.59        78.24433
730.01        78.35726
730.43        78.50198
730.85         78.6822
731.27        78.91932
731.69        79.11809
732.10        79.18176
732.52        78.94731
732.94        78.60147
733.36        78.32347
733.78        78.27989
734.20        78.50667
734.62        79.40382
735.04        80.58638
735.46        80.36575
735.88        79.11086
736.30        79.22371
736.72        80.68623
737.13        81.34011
737.55        80.84675
737.97        80.75838
738.39        81.10146
738.81        80.28535
739.23        78.85735
739.65         79.7921
740.06        82.49589
740.48        82.84149
740.90        80.91142
741.32        80.01737
741.74        80.47155
742.16        80.69265
742.57        80.73976
742.99        81.50276
743.41        82.73501
743.83        83.47604
744.25        83.59449
744.67         83.4684
745.08        83.27139
745.50        83.15414
745.92        83.21049
746.34        83.39868
746.75         83.6663
747.17        83.82742
747.59        83.85813
748.01        83.99702
748.42        84.25359
748.84        84.23888
749.26        84.15916
749.68        84.76568
750.09        85.88602
750.51        86.70296
750.93        86.98412
751.35        86.59928
751.76        85.80067
752.18        85.51377
752.60        85.75248
753.01        85.72408
753.43        85.44422
753.85        85.54248
754.27        86.05393
754.68        86.71218
755.10        87.36478
755.52        87.94247
755.93        88.34716
756.35        88.50569
756.77        88.55943
757.18        88.61586
757.60        88.70642
758.02        89.24481
758.43        89.79487
758.85        89.10644
759.26        86.77459
759.68        86.51865
760.10        87.89766
760.51         88.7317
760.93        88.44923
761.34        87.32235
761.76        86.97023
762.18         86.3954
762.59        86.31368
763.01        86.68429
763.42        87.94498
763.84        88.89662
764.26        89.44313
764.67        89.41253
765.09        88.94843
765.50        88.76691
765.92        88.75796
766.33        87.77351
766.75         86.2094
767.16        85.52811
767.58        86.02805
768.00         87.5036
768.41        89.63279
768.83        91.53253
769.24        92.39359
769.66        91.56785
770.07        89.69083
770.49        87.76938
770.90        86.41499
771.32        87.51193
771.73        90.24132
772.15        89.84001
772.56        86.79705
772.97        86.18716
773.39        87.94343
773.80        88.65948
774.22        88.10543
774.63        87.78294
775.05        88.51708
775.46        88.74042
775.88        88.61504
776.29        88.32556
776.70        87.99528
777.12        87.88206
777.53        88.03862
777.95        88.31376
778.36        88.57881
778.77        88.56258
779.19        88.25143
779.60         87.8825
780.02        87.58114
780.43         87.3258
780.84        87.40565
781.26        87.90504
781.67        88.75019
782.09         90.3512
782.50        91.94242
782.91        90.78738
783.33        87.79006
783.74         86.8166
784.15        88.07211
784.57        89.18394
784.98        89.62925
785.39         89.4463
785.81        88.69637
786.22        88.01688
786.63        87.74784
787.04        87.78361
787.46         88.1928
787.87        89.23833
788.28        90.54102
788.70        91.19543
789.11         91.0253
789.52        90.36643
789.93        89.56555
790.35        89.02187
790.76        88.91187
791.17        89.30807
791.58        89.99134
792.00         90.3482
792.41        90.24044
792.82        90.02029
793.23        89.87506
793.65        89.55344
794.06        89.41566
794.47        90.64523
794.88        92.23499
795.29        92.79363
795.71        89.21701
796.12        86.86864
796.53         85.5173
796.94        84.85958
797.35        85.11623
797.76        86.77111
798.18        89.07496
798.59         90.4422
799.00        90.38641
799.41        89.28162
799.82        87.74068
800.23        86.80793
800.64        86.76291
801.06        87.19065
801.47        87.90411
801.88        88.48805
802.29        88.76136
802.70         88.8819
803.11        88.88624
803.52        88.77976
803.93        88.61724
804.34        88.40975
804.75        88.21075
805.17        88.16644
805.58        88.43439
805.99        88.71547
806.40        88.92357
806.81        89.91829
807.22        91.01007
807.63        89.54269
808.04        86.31873
808.45        84.96651
808.86        85.79405
809.27        86.93703
809.68          87.877
810.09        88.50678
810.50        88.57344
810.91        88.13613
811.32        87.49091
811.73        87.11195
812.14        87.13022
812.55        87.38421
812.96        87.78912
813.37        88.12569
813.78        88.33688
814.19        88.67516
814.60        88.94413
815.01        88.70385
815.42        87.93777
815.83        86.76774
816.24        85.65945
816.65        85.39991
817.05        86.21481
817.46         87.8392
817.87         89.6263
818.28        90.40891
818.69         89.8736
819.10        88.31134
819.51         86.4603
819.92        85.57899
820.33        86.00448
820.74        87.36279
821.14        88.97737
821.55        89.63896
821.96          89.081
822.37        87.72211
822.78        86.17231
823.19        85.32372
823.60        85.41366
824.00        86.21371
824.41        87.26578
824.82        87.93007
825.23        87.94357
825.64         87.5422
826.04        86.98108
826.45        86.62713
826.86        86.57728
827.27        86.66619
827.68        86.80262
828.08        86.89529
828.49        86.82478
828.90         86.7163
829.31        86.53078
829.72        86.17818
830.12        85.71413
830.53        85.16628
830.94        84.75903
831.35        84.79176
831.75        85.34924
832.16        86.27122
832.57        87.37737
832.97        88.25784
833.38        88.66361
833.79        88.68839
834.20        88.46352
834.60        88.20618
835.01        88.02601
835.42        87.85931
835.82        87.66412
836.23        87.29092
836.64        86.78262
837.04        86.24326
837.45         85.8271
837.86        85.76712
838.26        86.10586
838.67        86.69743
839.08        87.39982
839.48        87.94234
839.89        88.17505
840.29         88.1936
840.70        87.97415
841.11        87.47136
841.51        86.73933
841.92        85.77232
842.33         84.8651
842.73        84.51412
843.14         84.7797
843.54        85.58583
843.95        86.48809
844.35        86.79594
844.76        86.33369
845.17        85.33697
845.57        84.23014
845.98        83.67957
846.38        83.84206
846.79        84.47521
847.19        85.32771
847.60        85.84588
848.00        85.89309
848.41        85.63577
848.81        85.25236
849.22        84.92538
849.62        84.78497
850.03        84.74577
850.43        84.88248
850.84        85.23405
851.24        85.82237
851.65        86.43288
852.05        87.08883
852.46        87.61872
852.86        87.97444
853.27        88.26086
853.67        88.08517
854.07        86.98296
854.48        85.06512
854.88        82.51028
855.29        80.20935
855.69        79.44821
856.10        80.44978
856.50        83.08558
856.90        86.41886
857.31        88.27863
857.71        87.98415
858.12        86.09216
858.52        83.70737
858.92        82.31326
859.33        82.22563
859.73        83.06036
860.13        84.45538
860.54        85.63867
860.94        86.33714
861.34        86.71996
861.75        86.90163
862.15        87.15099
862.55        87.50375
862.96        87.82169
863.36        88.00381
863.76         87.8748
864.17        87.43107
864.57        86.83224
864.97         86.3199
865.38        86.22266
865.78        86.64502
866.18        87.40929
866.58        88.30327
866.99        88.94567
867.39        89.26795
867.79        89.38266
868.19        89.24174
868.60        88.76563
869.00        88.03007
869.40         87.0507
869.80        86.32307
870.21        86.59949
870.61        88.08839
871.01        90.56826
871.41        93.25878
871.81        94.80938
872.22        94.84637
872.62        93.73394
873.02        92.27573
873.42        91.82758
873.82        92.62427
874.22         94.2104
874.63        96.01159
875.03         96.7823
875.43        96.00344
875.83        94.53655
876.23        92.75814
876.63        92.40677
877.03        93.83028
877.44        97.38216
877.84        99.05531
878.24        105.6128
878.64        104.4795
879.04        101.2033
879.44        98.26938
879.84        96.59013
880.24        97.87035
880.64        99.56988
881.04        101.7557
881.44        103.1666
881.84        102.7197
882.24        100.9945
882.65        99.14674
883.05        98.53784
883.45        99.41306
883.85        101.4443
884.25        103.7884
884.65        104.8971
885.05        104.3173
885.45        102.6404
885.85        100.8248
886.25        100.1608
886.65        100.9037
887.05        102.6053
887.45        104.6797
887.85        106.0785
888.25         106.398
888.65        105.9813
889.04        105.1051
889.44        104.2485
889.84         103.591
890.24        102.9717
890.64        102.4548
891.04        102.1655
891.44        102.0935
891.84        102.2583
892.24        102.5024
892.64        102.4817
893.04        102.1676
893.44        101.7427
893.83        101.3665
894.23        101.3085
894.63        101.6059
895.03        102.0891
895.43        102.8704
895.83        104.1289
896.23        105.7733
896.63         107.723
897.02        109.2986
897.42        109.4028
897.82        107.9228
898.22        105.2816
898.62         102.496
899.01        101.0638
899.41         101.317
899.81        102.7212
900.21         104.607
900.61        105.8647
901.00         106.135
901.40        105.8207
901.80        105.1242
902.20        104.3437
902.59         103.651
902.99        102.9013
903.39        102.3077
903.79        102.2749
904.18        102.8521
904.58        103.9586
904.98        105.2197
905.38        106.0257
905.77        106.1923
906.17        105.8787
906.57        105.3055
906.96        104.8699
907.36        104.6389
907.76         104.528
908.15        104.4138
908.55         103.991
908.95        103.2678
909.34        102.3337
909.74        101.5211
910.14        101.1401
910.53        101.2955
910.93        101.9462
911.33        102.8356
911.72        103.5129
912.12        103.7658
912.52        103.6589
912.91        103.5411
913.31        103.9205
913.70        104.9373
914.10        106.5035
914.49        108.1117
914.89        108.3288
915.29        106.7709
915.68         103.957
916.08        101.3013
916.47        100.1152
916.87        100.5434
917.26        102.1738
917.66        104.0243
918.05        104.5103
918.45        103.2512
918.84         100.826
919.24        98.33933
919.64        97.40102
920.03        98.40352
920.42        100.8219
920.82        103.7462
921.21        105.7084
921.61        106.0415
922.00        105.2813
922.40        103.9161
922.79        102.5556
923.19        101.4556
923.58        100.4448
923.98        99.57767
924.37         98.9847
924.77        98.83953
925.16        98.89414
925.55        99.63256
925.95        100.7786
926.34        102.3523
926.74        104.0583
927.13        105.5176
927.52        105.9237
927.92        105.2531
928.31        103.7565
928.70        101.8929
929.10        100.4497
929.49        99.63638
929.89        99.29115
930.28        99.48067
930.67        100.2936
931.07        101.5209
931.46         103.175
931.85         104.656
932.24        105.0858
932.64        104.3303
933.03         102.535
933.42        100.1379
933.82          98.247
934.21         97.2327
934.60        96.90073
934.99        96.99287
935.39        97.13264
935.78         97.2685
936.17        97.57151
936.56        97.85198
936.96        97.98004
937.35        97.26192
937.74        96.32153
938.13        95.72728
938.53        96.28257
938.92        97.99915
939.31        100.8167
939.70        103.8443
940.09        104.7652
940.49        102.8475
940.88        99.10085
941.27         95.2455
941.66        93.26313
942.05        93.40865
942.44        95.06661
942.84        97.47694
943.23        99.38293
943.62        100.1843
944.01         100.206
944.40        99.81533
944.79        99.59199
945.18        99.70757
945.57        99.92854
945.97        99.86099
946.36        98.91838
946.75        97.19057
947.14         95.2976
947.53         93.8468
947.92        93.27224
948.31        93.54696
948.70        94.52142
949.09        96.01669
949.48        97.52418
949.87        98.66084
950.26        99.40067
950.65        99.77097
951.04        99.92075
951.43        99.90015
951.82        99.62635
952.21        98.97522
952.60        97.83627
952.99        96.28742
953.38        94.47368
953.77        92.79895
954.16        91.77654
954.55        91.51278
954.94        91.96413
955.33        92.65427
955.72        92.75654
956.11        92.08656
956.50         90.8091
956.89        89.67789
957.28         90.0737
957.66        92.35465
958.05        95.79194
958.44        99.25468
958.83        101.0877
959.22        100.9184
959.61          99.214
960.00        96.81107
960.39        95.08789
960.78        94.49353
961.16        94.69867
961.55        95.16242
961.94        94.98132
962.33        93.93359
962.72        92.43047
963.11        90.99052
963.49        90.23309
963.88        90.24892
964.27        90.85155
964.66        91.63364
965.04        91.82169
965.43        91.09116
965.82        89.83697
966.21        88.63847
966.60        88.21793
966.98         88.6973
967.37        89.76883
967.76        91.08407
968.15         91.9449
968.53        92.06421
968.92        91.63213
969.31        90.87858
969.69        90.06849
970.08        89.32993
970.47        88.61532
970.86         87.9226
971.24         87.2936
971.63        86.75275
972.02        86.33632
972.40        86.25534
972.79        86.76929
973.17         88.0106
973.56        89.75191
973.95        91.52116
974.33        92.37929
974.72        91.98531
975.11        90.61997
975.49         89.0009
975.88        88.19566
976.26        88.37333
976.65        89.32492
977.04        90.46581
977.42        90.36296
977.81        88.56749
978.19        85.71661
978.58         83.3941
978.96        83.14005
979.35        85.16026
979.74        89.11726
980.12        94.21516
980.51        97.40822
980.89        97.75692
981.28        96.02171
981.66        93.43024
982.05        91.59592
982.43        90.83488
982.82        90.65938
983.20        91.02229
983.59        91.99192
983.97        93.57971
984.35        95.90535
984.74        98.31966
985.12        99.66468
985.51        99.09581
985.89        96.83459
986.28        93.56157
986.66        90.46513
987.04        88.34296
987.43         87.1226
987.81        86.55731
988.20        86.30701
988.58        86.22854
988.96        86.40025
989.35        87.19424
989.73        89.55446
990.12        92.88203
990.50        96.26746
990.88         98.0986
991.27        97.74829
991.65        95.64134
992.03        91.99133
992.42        88.02126
992.80        85.91839
993.18        86.41913
993.56        88.36217
993.95        90.56465
994.33        92.01212
994.71        92.41708
995.10        92.40881
995.48        91.87088
995.86        90.45235
996.24        88.12933
996.63        84.58387
997.01        80.88277
997.39        80.08476
997.77          83.354
998.15        89.92648
998.54        96.47897
998.92        98.59476
999.30        95.03841
999.68        86.83839
1000.06        76.40816
1000.45        69.61333
1000.83        68.66034
1001.21        71.52981
1001.59        75.93272
1001.97        79.40784
1002.35        81.41608
1002.73        83.03807
1003.12        83.60093
1003.50        81.61082
1003.88        77.05097
1004.26        71.10908
1004.64        66.21503
1005.02        64.36775
1005.40        65.71506
1005.78         70.5547
1006.16        79.72357
1006.54        89.34299
1006.92        93.66819
1007.30        93.56167
1007.69        91.99427
1008.07        91.30325
1008.45        91.90537
1008.83        93.49702
1009.21        96.54419
1009.59        99.51176
1009.97        91.42876
1010.35        60.97192
1010.73        45.11144
1011.11        50.93034
1011.49           59.48
1011.86        67.85101
1012.24         73.0111
1012.62        75.19655
1013.00        75.52872
1013.38         74.3317
1013.76         73.2915
1014.14        77.74057
1014.52        91.96833
1014.90        117.5203
1015.28        147.5831
1015.66        163.2097
1016.04        152.8266
1016.41        119.0804
1016.79        81.35701
1017.17        60.85891
1017.55        57.12687
1017.93        60.48064
1018.31        65.46847
1018.69        69.25395
1019.06        71.98824
1019.44        74.39513
1019.82        78.17169
1020.20        86.60133
1020.58          104.19
1020.95        139.1162
1021.33        209.5317
1021.71        -625.012
1022.09        63.09015
1022.46        106.4411
1022.84        123.7167
1023.22        135.5677
1023.60         153.482
1023.97        302.5638
1024.35        56.79714
1024.73        89.80598
