SpectraSmart Spectrum 2.9.0.0
--------- Device Information -----------
Spectrum Name :  反射率_0
Saving Time :  2024/04/26 00:40:43
Spectro-Module Model Name : SE2030-DUVN
Spectro-Module Serial Number : OS361AC55029948
Wavelength Start : 200
Wavelength End : 1025
Wavelength Unit : Wavelength(nm)
Spectrum Unit : Reflectance(%)
-----------Spectrum Setting ------------
Integration Time : 20ms
Average : 10
Boxcar : 0
Background removal :  enabled
linearity correction :  enabled
SC :  disabled
Intensity correction :  disabled
DWT denoise :  enabled
savitzky-golay :  disabled
FFT :  disabled
Running average :  disabled
Kalman :  disabled
High pass :  disabled
---------------BEGIN--------------------
Wavelength(nm)             Reflectance(%)
200.29               0
200.75        76.35969
201.21        70.61117
201.67        64.16426
202.13        60.54924
202.58        60.09827
203.04        62.20847
203.50        65.14352
203.96         65.9093
204.42        64.04282
204.88        60.87089
205.34        57.91004
205.80        56.53603
206.26         57.0406
206.72        59.90149
207.18        66.18471
207.64         71.1036
208.10        65.99889
208.55        57.65973
209.01         52.7585
209.47        51.67788
209.93        52.96489
210.39        56.08587
210.85        59.57695
211.31        60.27519
211.77        57.24848
212.23        51.57412
212.69        46.37776
213.14        46.57234
213.60        52.68688
214.06        63.42568
214.52        74.61676
214.98        79.91187
215.44        78.05473
215.90        71.23412
216.36         63.3408
216.81        59.82091
217.27        61.66729
217.73        66.61555
218.19        71.44856
218.65        72.09756
219.11        67.26718
219.57        56.60404
220.02        41.46877
220.48        30.92489
220.94        30.76347
221.40        39.17089
221.86        48.33047
222.32        49.71818
222.77        43.96367
223.23        35.49867
223.69        28.79569
224.15        28.40937
224.61        33.72065
225.06        42.30544
225.52        50.65182
225.98        54.30893
226.44         52.5416
226.90        47.35236
227.36        41.29322
227.81        37.79645
228.27        37.93023
228.73        40.30166
229.19        43.74041
229.65        46.50708
230.10        48.02921
230.56        48.95552
231.02        49.56625
231.48        50.13517
231.93         50.7373
232.39        51.19787
232.85        51.56227
233.31        52.02409
233.77        52.56262
234.22         53.1433
234.68        53.48048
235.14        52.98166
235.60        51.57204
236.05        49.56352
236.51        47.39535
236.97         45.5211
237.43        44.04414
237.88        42.91441
238.34         42.1578
238.80        42.04427
239.26        42.63688
239.71        43.85636
240.17        45.39388
240.63        47.11192
241.08        48.85738
241.54        50.54543
242.00        51.48358
242.46        50.50988
242.91        46.65371
243.37         36.2972
243.83        9.989508
244.28       -38.46149
244.74       -25.25661
245.20         51.4483
245.66         81.8157
246.11        90.59486
246.57        92.71254
247.03        89.76045
247.48        62.20125
247.94        24.01888
248.40        41.55457
248.85         52.4146
249.31        58.36507
249.77        63.15422
250.22        68.61136
250.68        76.71848
251.14        87.28861
251.59        92.62588
252.05          86.133
252.51        71.81747
252.96        57.13303
253.42        48.59472
253.88        45.52021
254.33        45.56454
254.79         48.5363
255.25        53.46773
255.70        58.96004
256.16        64.78011
256.62        68.50877
257.07        67.70839
257.53         63.4489
257.99        56.85925
258.44        50.76434
258.90        49.13491
259.35         50.8783
259.81        54.01394
260.27        55.87789
260.72        53.96488
261.18        49.16821
261.63        42.87383
262.09        37.13087
262.55        33.69049
263.00        32.49744
263.46        32.66083
263.91        33.07679
264.37        32.78743
264.83        31.64628
265.28        29.94329
265.74        28.31104
266.19        27.44973
266.65         27.5109
267.11        28.06725
267.56        28.57364
268.02        28.38411
268.47        27.42665
268.93         25.9522
269.38        24.31571
269.84         23.3325
270.30        23.20698
270.75        23.69411
271.21        24.37482
271.66        24.63324
272.12        24.29969
272.57        23.58304
273.03        22.76227
273.48        22.18116
273.94        21.95596
274.39        21.92375
274.85        21.95177
275.31        21.85535
275.76        21.57562
276.22        21.21076
276.67        20.80496
277.13        20.48696
277.58        20.24786
278.04        20.06858
278.49        19.87842
278.95        19.62472
279.40        19.27552
279.86        18.89886
280.31        18.50578
280.77        18.20623
281.22        17.98532
281.68        17.83303
282.13        17.71276
282.59        17.59416
283.04        17.46308
283.50         17.3486
283.95        17.22607
284.41        17.07112
284.86        16.87498
285.32        16.64487
285.77        16.43693
286.22        16.38741
286.68        16.48979
287.13        16.69182
287.59        16.84462
288.04        16.72853
288.50        16.33556
288.95        15.73372
289.41        15.11812
289.86        14.68995
290.32        14.53937
290.77        14.58341
291.22        14.74271
291.68        14.86141
292.13        14.90217
292.59        14.90639
293.04        14.93783
293.50        15.09572
293.95        15.38688
294.40        15.74823
294.86        16.08684
295.31        16.27691
295.77         16.2976
296.22        16.20018
296.68        16.06163
297.13        15.97668
297.58        15.99972
298.04        16.11944
298.49        16.32793
298.95        16.64003
299.40         17.0343
299.85         17.4965
300.31        17.97755
300.76        18.41606
301.21        18.77083
301.67        19.06262
302.12        19.26119
302.58        19.36298
303.03        19.37116
303.48        19.30528
303.94        19.25836
304.39        19.34635
304.84        19.59151
305.30        19.94765
305.75        20.30488
306.20        20.49429
306.66        20.49771
307.11        20.36859
307.57        20.20011
308.02        20.07493
308.47         20.0448
308.93        20.07319
309.38        20.16648
309.83        20.36069
310.29        20.62923
310.74        20.94933
311.19        21.23113
311.65         21.3364
312.10        21.24196
312.55        20.99303
313.00        20.65841
313.46        20.36435
313.91        20.15252
314.36        20.00791
314.82        19.94636
315.27        19.98158
315.72        20.10618
316.18        20.31375
316.63        20.54753
317.08        20.68967
317.53        20.70525
317.99        20.60752
318.44        20.46388
318.89        20.39044
319.35        20.41158
319.80        20.50172
320.25        20.58002
320.70        20.51344
321.16        20.27943
321.61        19.92691
322.06        19.56514
322.51        19.35595
322.97         19.3276
323.42        19.43812
323.87        19.58096
324.32        19.57693
324.78        19.37893
325.23        19.04497
325.68        18.67271
326.13        18.42292
326.59         18.3382
327.04        18.38357
327.49        18.48864
327.94        18.53743
328.39        18.49619
328.85        18.39767
329.30        18.31096
329.75        18.32409
330.20        18.45939
330.66        18.66118
331.11        18.89242
331.56        19.05898
332.01        19.12758
332.46        19.11143
332.92        19.03346
333.37        18.95023
333.82        18.88258
334.27        18.83536
334.72        18.77561
335.17          18.649
335.63        18.45399
336.08        18.21423
336.53          18.036
336.98        18.08523
337.43        18.38305
337.88        18.87892
338.34        19.37926
338.79        19.60928
339.24         19.4797
339.69        19.06331
340.14         18.5699
340.59        18.37082
341.05        18.54789
341.50        18.98256
341.95        19.46766
342.40        19.69901
342.85        19.61099
343.30        19.32004
343.75        18.93816
344.20        18.65808
344.66        18.54677
345.11        18.50184
345.56        18.52456
346.01        18.61741
346.46        18.75197
346.91        18.95151
347.36        19.07035
347.81        18.86895
348.26        18.34014
348.72        17.59485
349.17        16.86765
349.62        16.62897
350.07        16.97671
350.52        17.74571
350.97        18.66719
351.42        19.32799
351.87        19.60449
352.32        19.61041
352.77        19.43645
353.22        19.23369
353.67         19.0649
354.13        18.88425
354.58        18.69578
355.03        18.54981
355.48        18.45695
355.93        18.43519
356.38        18.44745
356.83        18.41437
357.28         18.3168
357.73        18.16772
358.18        18.01562
358.63        17.94004
359.08        17.95559
359.53        18.03918
359.98        18.11994
360.43        18.09055
360.88        17.93255
361.33        17.67694
361.78        17.41868
362.23         17.3115
362.68        17.38021
363.13        17.56552
363.58         17.7532
364.03        17.76599
364.48         17.5672
364.93         17.2257
365.38        16.82862
365.83         16.5135
366.28         16.3302
366.73        16.23817
367.18        16.22477
367.63         16.2692
368.08        16.34588
368.53        16.45428
368.98        16.55448
369.43        16.57934
369.88        16.51837
370.33        16.39412
370.78        16.22873
371.23        16.06876
371.68        15.93709
372.13        15.81646
372.58        15.74987
373.03        15.80509
373.48        15.97865
373.93        16.24585
374.38        16.49516
374.83        16.55344
375.28        16.39202
375.72        16.05519
376.17        15.68345
376.62        15.46798
377.07        15.46335
377.52        15.60548
377.97        15.81809
378.42        15.97545
378.87         16.0325
379.32        16.03108
379.77         15.9845
380.22         15.9082
380.67        15.81497
381.11        15.69598
381.56        15.56899
382.01        15.47876
382.46        15.43254
382.91        15.41688
383.36        15.41194
383.81        15.37891
384.26        15.30986
384.71        15.22869
385.15        15.12505
385.60        14.99062
386.05         14.8262
386.50        14.62615
386.95        14.45601
387.40        14.42824
387.85        14.55248
388.29        14.78073
388.74        14.99871
389.19        15.04318
389.64        14.89649
390.09        14.60312
390.54        14.28385
390.98        14.14393
391.43        14.23981
391.88        14.49374
392.33        14.76819
392.78        14.86135
393.23         14.7418
393.67        14.47773
394.12        14.20487
394.57        14.05827
395.02        14.06754
395.47        14.18176
395.91         14.3329
396.36        14.38454
396.81        14.30103
397.26        14.11815
397.71        13.90624
398.15        13.75133
398.60        13.69468
399.05        13.71087
399.50        13.73097
399.95        13.62004
400.39        13.42301
400.84        13.13003
401.29        12.85714
401.74        12.78746
402.18        12.97098
402.63         13.3261
403.08        13.71636
403.53        13.92479
403.97        13.89508
404.42         13.6923
404.87         13.4084
405.32        13.20556
405.76          13.137
406.21         13.1543
406.66        13.21343
407.11        13.25737
407.55        13.27058
408.00        13.27191
408.45        13.26412
408.90        13.23821
409.34        13.19538
409.79        13.13418
410.24        13.07374
410.68        13.04426
411.13        13.05369
411.58         13.0977
412.03        13.15494
412.47        13.18879
412.92        13.17949
413.37        13.13605
413.81        13.08649
414.26        13.08917
414.71         13.1446
415.15        13.23727
415.60        13.30728
416.05        13.27803
416.49        13.13562
416.94        12.92177
417.39        12.69009
417.83        12.53263
418.28        12.48633
418.73        12.51313
419.17        12.59763
419.62        12.70667
420.07        12.82228
420.51        12.95074
420.96        13.04633
421.41        13.02811
421.85         12.8853
422.30        12.66649
422.74        12.43656
423.19        12.31871
423.64        12.32296
424.08        12.41924
424.53         12.5535
424.98         12.6543
425.42        12.69785
425.87        12.70249
426.31        12.66423
426.76        12.61641
427.21        12.54821
427.65        12.36334
428.10        12.17074
428.54          12.222
428.99        12.53746
429.44        13.01419
429.88        13.45023
430.33        13.57164
430.77        13.33576
431.22        12.83825
431.66        12.29718
432.11         12.0855
432.56        12.24662
433.00        12.60727
433.45        12.99258
433.89        13.25907
434.34         13.2939
434.78        13.02753
435.23        12.67437
435.67        12.65649
436.12        12.93793
436.57        13.06152
437.01        12.96525
437.46        12.87659
437.90        12.81905
438.35         12.7342
438.79        12.63779
439.24        12.58927
439.68        12.60253
440.13        12.60544
440.57        12.61088
441.02        12.80889
441.46        13.09127
441.91        13.00214
442.35        12.61042
442.80        12.40422
443.24        12.36752
443.69        12.31681
444.13        12.21895
444.58        12.02977
445.02        11.80704
445.47         11.8049
445.91        11.96867
446.36        11.99322
446.80        11.85217
447.24        11.71391
447.69        11.61927
448.13        11.55058
448.58        11.52502
449.02        11.54543
449.47        11.58034
449.91         11.5776
450.36        11.53042
450.80        11.45031
451.25        11.38583
451.69        11.40191
452.13        11.50946
452.58         11.6705
453.02        11.83501
453.47        11.92127
453.91        11.91407
454.36        11.84395
454.80        11.73566
455.24        11.63326
455.69        11.56326
456.13        11.50476
456.58        11.48685
457.02        11.53421
457.46        11.64873
457.91        11.81769
458.35        11.98445
458.79        12.04792
459.24         11.9992
459.68        11.85631
460.13        11.70315
460.57        11.63672
461.01        11.69385
461.46        11.83609
461.90        12.00643
462.34        12.10251
462.79        12.09791
463.23        12.01686
463.68        11.92491
464.12        11.93012
464.56        12.05722
465.01        12.27036
465.45        12.46459
465.89        12.53264
466.34        12.46737
466.78        12.24191
467.22        11.97814
467.67        11.99125
468.11        12.25438
468.55        12.39171
468.99        12.36208
469.44         12.3501
469.88        12.39472
470.32        12.54078
470.77        12.73081
471.21        12.77935
471.65        12.66586
472.10         12.5268
472.54        12.42027
472.98        12.40309
473.42        12.49684
473.87        12.68622
474.31        12.90487
474.75        13.04138
475.20        13.07286
475.64        13.02328
476.08        12.95154
476.52        12.94926
476.97        13.03761
477.41        13.19107
477.85        13.34893
478.29        13.43975
478.74         13.4482
479.18        13.33438
479.62        13.16828
480.06        13.27832
480.50        13.40787
480.95        13.56915
481.39         13.6252
481.83        13.64864
482.27        13.63179
482.72        13.47427
483.16        13.25918
483.60        13.30859
484.04        13.64334
484.48         13.8306
484.93        14.01496
485.37        14.41966
485.81        14.94777
486.25        14.97163
486.69        19.56177
487.14        15.60464
487.58        10.40622
488.02        12.60782
488.46        14.15704
488.90        14.20773
489.34        14.44388
489.79        14.41314
490.23        15.07434
490.67        15.50485
491.11        15.49834
491.55        15.39101
491.99        15.17316
492.43        14.99175
492.88        14.92401
493.32         14.9939
493.76        15.09772
494.20        15.33496
494.64        15.64937
495.08        16.01067
495.52        16.37525
495.96        16.69612
496.41        16.91184
496.85        17.01358
497.29        17.01909
497.73        16.79598
498.17         16.5595
498.61         16.7149
499.05        17.26304
499.49        17.39572
499.93        17.52563
500.37        17.67831
500.82        17.78978
501.26        18.01412
501.70        18.25533
502.14        18.36814
502.58        18.34442
503.02        18.34952
503.46        18.39521
503.90         18.3817
504.34        18.32872
504.78        18.31351
505.22        18.34719
505.66         18.4184
506.10         18.5006
506.54        18.54541
506.98        18.54481
507.42         18.5163
507.86        18.50639
508.30        18.58655
508.74        18.76541
509.18         19.0119
509.62         19.2697
510.06        19.44678
510.50        19.51938
510.94        19.52212
511.38        19.48604
511.82        19.46136
512.26        19.46794
512.70        19.48384
513.14        19.52697
513.58        19.62696
514.02        19.77139
514.46        19.94883
514.90        20.09843
515.34        20.08571
515.78        19.86624
516.22        19.64001
516.66        19.50324
517.10         19.1554
517.54        18.62364
517.98        19.52155
518.42        19.41713
518.86        19.81302
519.30        19.96364
519.74        20.11511
520.18        20.23006
520.62        20.21868
521.06        20.10694
521.50        19.89877
521.93        19.67143
522.37        19.56405
522.81        19.60552
523.25        19.75611
523.69        19.94965
524.13        20.07995
524.57        20.11493
525.01        20.08489
525.45        20.01338
525.89        19.93996
526.32        19.87867
526.76        19.81565
527.20        19.74923
527.64         19.6876
528.08        19.63443
528.52        19.57371
528.96        19.49847
529.40        19.44711
529.83         19.4311
530.27        19.24592
530.71        19.26626
531.15        19.17604
531.59        19.09267
532.03        19.00642
532.46        18.96021
532.90        19.02379
533.34        19.19078
533.78        19.42855
534.22        19.65396
534.66        19.74638
535.09        19.67762
535.53        19.49357
535.97        19.25495
536.41        19.06427
536.85         18.9593
537.28        18.91949
537.72        18.92518
538.16        18.94271
538.60        18.96092
539.04        18.97759
539.47         19.0095
539.91        19.12675
540.35        19.30881
540.79        19.46159
541.22         19.5608
541.66        19.64951
542.10        19.72173
542.54        19.73605
542.97        19.73087
543.41        19.80125
543.85        19.95836
544.29        20.18707
544.72        20.42034
545.16        20.55995
545.60        20.58802
546.04        20.53303
546.47        20.49106
546.91        20.62359
547.35        20.94666
547.79        21.40548
548.22        21.86698
548.66        22.10526
549.10        22.08749
549.53        21.92022
549.97        21.72807
550.41        21.64558
550.84         21.7232
551.28         21.9323
551.72        22.22696
552.15        22.51975
552.59        22.76832
553.03        22.99209
553.46        23.18281
553.90         23.3459
554.34        23.48994
554.77        23.58471
555.21        23.63119
555.65        23.70633
556.08        23.83023
556.52          23.698
556.96        23.87995
557.39        23.95188
557.83        24.08643
558.27         24.2508
558.70        24.43343
559.14        24.59833
559.57        24.72332
560.01        24.83121
560.45        24.89911
560.88        24.89196
561.32         24.8342
561.75        24.72527
562.19        24.63705
562.63        24.64511
563.06        24.75791
563.50        24.95486
563.93        25.17862
564.37        25.34813
564.80        25.43185
565.24        25.46462
565.68        25.46693
566.11         25.4733
566.55        25.51623
566.98        25.57814
567.42        25.67999
567.85        25.83695
568.29        26.04572
568.72        26.27865
569.16        26.56651
569.60        26.85084
570.03        26.97475
570.47        27.36362
570.90        27.02494
571.34        26.61447
571.77        27.14817
572.21         27.2099
572.64        27.21608
573.08        27.03884
573.51        26.11094
573.95        27.29583
574.38        29.03399
574.82        28.34735
575.25        28.11119
575.69         27.1391
576.12        26.73379
576.56        26.64047
576.99        27.18724
577.42        28.59009
577.86        28.45396
578.29        28.60176
578.73        29.87971
579.16        27.40663
579.60        24.89194
580.03         25.9435
580.47        27.78026
580.90        28.18624
581.33        27.93317
581.77        27.49126
582.20        29.91469
582.64        29.37429
583.07        25.15673
583.51         24.6099
583.94        24.06674
584.37        25.11493
584.81        26.24103
585.24        27.51113
585.68        28.06267
586.11        27.43316
586.54        25.57543
586.98        24.83774
587.41        24.90686
587.85        25.96368
588.28        26.96301
588.71        25.73182
589.15        24.80486
589.58        25.44595
590.01        25.75071
590.45        26.10802
590.88        26.18481
591.31        25.82269
591.75        25.69718
592.18        25.85535
592.61         26.5986
593.05        26.66046
593.48         27.7099
593.91        27.93837
594.35         25.6801
594.78        25.34695
595.21        25.47513
595.65        26.71579
596.08        27.66605
596.51        26.73095
596.94        26.27611
597.38        26.76356
597.81         27.9556
598.24        28.72159
598.68        28.49041
599.11        28.19356
599.54        29.22359
599.97          30.264
600.41        28.83406
600.84        29.32875
601.27        30.08371
601.70         29.9339
602.14        30.11818
602.57        30.05783
603.00          30.769
603.43        31.80494
603.87        32.73013
604.30        32.88303
604.73        32.42297
605.16        31.99278
605.60        33.14956
606.03         34.1011
606.46        34.93568
606.89        35.08248
607.32        34.30399
607.76        34.87302
608.19        36.03385
608.62        35.86972
609.05         35.5506
609.48        36.10329
609.92        36.35315
610.35        36.45675
610.78         38.0606
611.21        38.80836
611.64        37.38731
612.07        38.08055
612.50        38.61574
612.94        39.17038
613.37        39.14812
613.80        39.63488
614.23        40.14283
614.66        40.40676
615.09        40.84189
615.52        41.04798
615.96        41.10454
616.39        41.51698
616.82        41.04731
617.25        41.31993
617.68        41.90103
618.11        42.61215
618.54        43.20741
618.97        43.10368
619.40        42.56541
619.84        42.73068
620.27        43.57267
620.70        44.15887
621.13        44.37099
621.56        44.16011
621.99        43.70167
622.42        44.30511
622.85        45.70596
623.28        45.13597
623.71        45.15078
624.14        44.93916
624.57        45.11203
625.00        44.71066
625.43        44.98998
625.86        44.57906
626.29        44.69858
626.72        44.78185
627.15        44.59377
627.58        44.51088
628.01        44.38337
628.44        44.31403
628.87        44.22824
629.30        44.07566
629.73        44.12112
630.16        43.89453
630.59        43.48817
631.02        42.98715
631.45        42.47443
631.88        42.04126
632.31        41.71143
632.74        41.45789
633.17        41.23427
633.60         40.9636
634.03        40.62197
634.46        40.23734
634.89         39.8212
635.32        39.39157
635.75        38.96178
636.18        38.52507
636.61        38.10007
637.04         37.7156
637.47        37.37172
637.89        37.06537
638.32        36.76084
638.75         36.4201
639.18        36.04054
639.61        35.64445
640.04         35.2575
640.47        34.91498
640.90        34.62772
641.33        34.37997
641.76        34.16185
642.18         34.0085
642.61        33.91514
643.04         33.7962
643.47        33.61345
643.90        33.73916
644.33        33.47313
644.76        33.39205
645.18        33.30533
645.61        33.25795
646.04        33.25241
646.47        33.27629
646.90        33.36629
647.33        33.55336
647.75        33.84635
648.18        34.25504
648.61        34.66843
649.04        34.90781
649.47        34.95173
649.89        34.79302
650.32        34.65534
650.75        34.95891
651.18        35.70129
651.61        36.53422
652.03        37.22131
652.46        37.63488
652.89        37.94832
653.32        37.95173
653.74        37.89729
654.17        39.26642
654.60        39.81958
655.03        39.07681
655.46        40.54687
655.88        42.66621
656.31         46.1138
656.74        104.0412
657.16        68.04523
657.59        24.04325
658.02        18.26805
658.45        32.11152
658.87        41.85549
659.30        44.13124
659.73        44.04612
660.15        42.39825
660.58        44.74952
661.01        46.26896
661.44        45.15663
661.86        44.95304
662.29        45.18344
662.72        45.97028
663.14        47.12648
663.57        47.26548
664.00        46.57803
664.42        46.58136
664.85        47.35303
665.27        47.95639
665.70        48.21851
666.13         48.3951
666.55        48.46152
666.98        48.34445
667.41        48.18378
667.83        48.24475
668.26        48.58166
668.69        49.08447
669.11        49.57449
669.54        50.00633
669.96         49.8665
670.39        49.62848
670.82        49.31754
671.24         49.2742
671.67        49.59306
672.09        49.99604
672.52        50.34083
672.94        51.10908
673.37        51.27159
673.80           51.27
674.22        50.96815
674.65         50.9396
675.07        51.22158
675.50        51.39377
675.92         51.4493
676.35        51.59673
676.77        51.83717
677.20        52.06316
677.62        52.26495
678.05        52.43012
678.47        52.54501
678.90        52.63075
679.32        52.71685
679.75        52.75049
680.17        52.94854
680.60        53.13057
681.02        53.30751
681.45        53.37658
681.87         53.3336
682.30        53.20303
682.72         53.0658
683.15        53.08449
683.57        53.30035
684.00        53.53255
684.42        53.92623
684.85        54.15224
685.27        54.23584
685.70        54.24278
686.12        54.20655
686.54        54.19447
686.97        54.24775
687.39        54.38596
687.82        54.57132
688.24        54.82701
688.66        55.06101
689.09        55.05487
689.51        54.88021
689.94        54.87545
690.36        55.08139
690.78        55.27321
691.21         55.4143
691.63        55.61446
692.06        55.82304
692.48        55.85836
692.90        55.78232
693.33        55.84556
693.75        56.07116
694.17        56.32823
694.60        56.58998
695.02        56.83776
695.44        57.01884
695.87        57.30915
696.29        57.67374
696.71        57.52968
697.14        57.06763
697.56        57.47065
697.98        58.53608
698.41        58.49191
698.83        57.94354
699.25        57.69496
699.68        57.95843
700.10        58.06848
700.52        58.02716
700.94        58.17474
701.37         58.4902
701.79        58.86573
702.21        59.25281
702.64        59.62997
703.06        59.88696
703.48        59.99429
703.90        59.97781
704.33        59.29304
704.75        59.10985
705.17        58.87526
705.59        58.97652
706.01        59.21666
706.44        59.50401
706.86         60.1606
707.28        60.31222
707.70        60.67109
708.12        60.95686
708.55         60.9985
708.97        60.83839
709.39        60.77043
709.81        60.84544
710.23        60.88659
710.66        60.90814
711.08        61.08511
711.50        61.31891
711.92         61.3804
712.34        61.24224
712.76        60.96408
713.19        60.69955
713.61        60.72036
714.03        61.06492
714.45        61.64198
714.87        62.23305
715.29        62.49499
715.71        62.35395
716.13        61.92138
716.56        61.40147
716.98         61.1526
717.40        61.26653
717.82        61.63609
718.24        62.11325
718.66        62.44461
719.08        62.55054
719.50        62.51404
719.92        62.40616
720.34         62.3548
720.76        62.40333
721.19        62.39777
721.61        62.52638
722.03        62.66416
722.45        62.85283
722.87        63.09067
723.29        63.32772
723.71        63.46786
724.13        63.48827
724.55        63.41856
724.97        63.32779
725.39        63.28651
725.81        63.31262
726.23        63.46769
726.65        63.73818
727.07        63.62484
727.49        63.86893
727.91        63.89231
728.33        63.92293
728.75        63.94456
729.17        63.96494
729.59        63.96096
730.01        63.96849
730.43        64.05935
730.85        64.24659
731.27        64.54533
731.69        64.84579
732.10        64.94789
732.52        64.80853
732.94        64.51115
733.36        64.26221
733.78         64.2426
734.20        64.49794
734.62        65.33739
735.04        66.41976
735.46           66.34
735.88        65.38137
736.30         65.4795
736.72        66.66113
737.13        67.27464
737.55        67.03444
737.97        67.12521
738.39        67.51273
738.81        66.82153
739.23         65.5161
739.65        66.14899
740.06        68.28487
740.48        68.53802
740.90        66.99336
741.32        66.40107
741.74        66.98421
742.16        67.31973
742.57        67.41877
742.99        68.09907
743.41         69.1347
743.83        69.59573
744.25        69.42685
744.67        69.16532
745.08        69.00208
745.50        68.94612
745.92        69.08737
746.34        69.49996
746.75        70.05116
747.17        70.40483
747.59        70.50556
748.01        70.49625
748.42        70.50083
748.84        70.60413
749.26        70.90507
749.68        71.51163
750.09        72.25698
750.51        72.75069
750.93        72.88448
751.35        72.61609
751.76        72.12189
752.18        71.96101
752.60        72.12027
753.01        72.12309
753.43        72.02525
753.85        72.13664
754.27        72.43635
754.68        73.32476
755.10        73.94761
755.52        73.98697
755.93        74.56548
756.35        74.52363
756.77        74.42139
757.18        74.37942
757.60        74.46873
758.02        74.91103
758.43        75.35697
758.85        75.00844
759.26        73.62186
759.68        73.35193
760.10        74.31667
760.51        75.08191
760.93        75.53281
761.34        73.40079
761.76        73.57096
762.18        72.76317
762.59        72.57926
763.01        73.08163
763.42        74.16524
763.84        74.92655
764.26        75.17522
764.67        75.20792
765.09        75.08167
765.50        75.07371
765.92        75.07307
766.33         74.1024
766.75        72.59762
767.16        72.22649
767.58        73.13204
768.00        74.42561
768.41        75.81941
768.83        77.18549
769.24        77.93329
769.66        77.31093
770.07        75.81896
770.49        74.21173
770.90         73.0377
771.32        74.11721
771.73        76.66674
772.15         76.3923
772.56        73.69825
772.97        72.85098
773.39        73.80743
773.80        74.88995
774.22        73.81527
774.63        74.10065
775.05        74.95753
775.46        75.41973
775.88        75.32188
776.29         74.9844
776.70        74.58035
777.12        74.35887
777.53        74.41309
777.95        74.59396
778.36        74.78323
778.77        74.78405
779.19        74.59282
779.60        74.29302
780.02          74.007
780.43        74.03531
780.84         74.4881
781.26        74.73257
781.67        74.82165
782.09        76.02029
782.50        77.72816
782.91        76.88667
783.33        74.37855
783.74         73.5228
784.15        74.54678
784.57        75.20216
784.98        75.20781
785.39        75.19918
785.81        75.13242
786.22        74.82204
786.63         74.5005
787.04        74.49229
787.46        74.86616
787.87        75.66889
788.28        76.62084
788.70        77.04823
789.11        76.82829
789.52        76.32272
789.93        75.75041
790.35        75.17924
790.76         74.7906
791.17        74.96227
791.58        75.57014
792.00        75.90795
792.41        75.84988
792.82        75.92889
793.23        76.20536
793.65        75.93349
794.06        75.53042
794.47        76.74421
794.88        78.61601
795.29         79.1722
795.71         75.9482
796.12        73.59538
796.53        72.12673
796.94        71.73914
797.35        72.54568
797.76        74.07824
798.18         75.6363
798.59        76.72813
799.00        76.99708
799.41        75.60275
799.82         74.2983
800.23        73.31689
800.64        73.27689
801.06        73.72037
801.47         74.4437
801.88        74.98547
802.29          75.161
802.70        75.16377
803.11        75.09731
803.52        75.09262
803.93         75.2084
804.34        75.34503
804.75        75.47722
805.17        75.67249
805.58        75.96229
805.99        76.06827
806.40        75.94075
806.81        76.18109
807.22        76.45803
807.63        75.26994
808.04        73.17178
808.45        72.33338
808.86        72.94717
809.27        73.96567
809.68        74.93917
810.09        75.48403
810.50        75.37016
810.91        74.71818
811.32        73.87862
811.73        73.42666
812.14         73.5148
812.55        73.94038
812.96        74.52556
813.37        74.94038
813.78         75.0587
814.19        75.05186
814.60        74.88332
815.01        74.47102
815.42        73.84868
815.83        72.99265
816.24        72.23417
816.65        72.16263
817.05        72.92974
817.46        74.34277
817.87        75.85282
818.28        76.46532
818.69          75.925
819.10         74.4691
819.51        72.78102
819.92         72.0312
820.33        72.52048
820.74        73.90243
821.14         75.5141
821.55        76.16835
821.96        75.60603
822.37        74.24016
822.78        72.66772
823.19        71.76645
823.60        71.77393
824.00         72.4547
824.41        73.41485
824.82        74.08506
825.23        74.21669
825.64        74.01624
826.04        73.65587
826.45        73.37299
826.86        73.24226
827.27        73.13689
827.68        73.03902
828.08        72.97877
828.49        72.89426
828.90        72.87012
829.31        72.82956
829.72        72.60818
830.12        72.22635
830.53        71.73055
830.94        71.34772
831.35        71.38347
831.75        71.92268
832.16        72.80437
832.57          73.849
832.97        74.65574
833.38        74.99949
833.79         74.9772
834.20        74.72528
834.60        74.46544
835.01        74.29985
835.42        74.15143
835.82        73.98032
836.23        73.65234
836.64        73.20061
837.04        72.73206
837.45        72.34583
837.86        72.18405
838.26        72.28405
838.67        72.54452
839.08        72.94151
839.48         73.4142
839.89        73.86624
840.29        74.30623
840.70         74.5795
841.11        74.45119
841.51        73.91755
841.92        73.03082
842.33        72.09828
842.73        71.64014
843.14        71.74868
843.54        72.32776
843.95        73.02142
844.35        73.28224
844.76        72.95728
845.17        72.24361
845.57        71.43797
845.98        70.99558
846.38        71.02822
846.79        71.35412
847.19        71.82039
847.60        72.08267
848.00        72.06376
848.41        71.86385
848.81        71.58947
849.22        71.30695
849.62        71.11229
850.03        70.98682
850.43        71.00896
850.84         71.2569
851.24        71.76728
851.65        72.33158
852.05        73.02209
852.46        73.77715
852.86        74.53203
853.27        75.31152
853.67        75.61872
854.07        74.82543
854.48        72.99877
854.88        70.39152
855.29        67.90067
855.69        66.82137
856.10        67.41163
856.50        69.51241
856.90        72.35151
857.31        74.10588
857.71         74.1638
858.12        72.95835
858.52        71.32117
858.92         70.3644
859.33        70.33649
859.73        70.92274
860.13        71.85294
860.54        72.57946
860.94        72.93333
861.34        73.07576
861.75        73.10896
862.15         73.2623
862.55        73.56403
862.96        73.90862
863.36        74.25028
863.76        74.50002
864.17        74.62354
864.57        74.70873
864.97        74.80144
865.38        74.95499
865.78        75.22642
866.18        75.50961
866.58         75.7923
866.99        76.04997
867.39        76.31482
867.79        76.63382
868.19        76.81548
868.60        76.49992
869.00        75.65662
869.40        74.41224
869.80        73.39789
870.21        73.57819
870.61        75.21152
871.01        77.99233
871.41        81.05155
871.81        82.89727
872.22        83.11639
872.62        82.10853
873.02        80.65879
873.42        80.21798
873.82        80.91068
874.22          81.911
874.63        82.86894
875.03        83.12614
875.43        82.37426
875.83        81.99577
876.23        80.09661
876.63        79.06973
877.03        78.71268
877.44        79.14753
877.84        105.8082
878.24        86.12356
878.64        87.25771
879.04        88.49677
879.44        84.27015
879.84        82.16309
880.24        86.78173
880.64        88.72943
881.04        88.93652
881.44        88.69804
881.84        87.77972
882.24        86.31519
882.65        85.10785
883.05        84.77704
883.45        85.42229
883.85        87.15835
884.25        89.35498
884.65        90.58006
885.05        90.40532
885.45        89.28926
885.85        87.92746
886.25        87.28597
886.65         87.5855
887.05        88.51343
887.45        89.70591
887.85        90.52193
888.25        90.72307
888.65        90.53838
889.04        90.17626
889.44        89.98998
889.84        90.05741
890.24        90.20924
890.64         90.3719
891.04        90.47127
891.44        90.46434
891.84        90.41679
892.24         90.2653
892.64        89.86798
893.04         89.2919
893.44        88.68418
893.83        88.22746
894.23        88.19193
894.63        88.59599
895.03        89.26382
895.43        90.21623
895.83        91.45454
896.23        92.83611
896.63        94.33238
897.02        95.33676
897.42        94.89986
897.82         92.9819
898.22         89.9961
898.62        87.00615
899.01        85.56631
899.41        85.98711
899.81        87.72108
900.21        90.00076
900.61        91.55395
901.00         91.9726
901.40        91.67224
901.80        90.92768
902.20        90.16721
902.59        89.57921
902.99        88.97231
903.39        88.48093
903.79        88.37704
904.18        88.70197
904.58        89.48291
904.98        90.40888
905.38         90.9604
905.77        90.99586
906.17        90.60016
906.57        90.09486
906.96        90.03531
907.36        90.44285
907.76        91.16388
908.15        91.75835
908.55         91.3965
908.95         90.0032
909.34        87.87592
909.74        85.72874
910.14        84.48311
910.53         84.4173
910.93        85.30476
911.33        86.79108
911.72        88.21022
912.12        89.15306
912.52        89.70982
912.91        90.02117
913.31        90.28481
913.70        90.61718
914.10        90.95164
914.49         91.0423
914.89        90.38011
915.29        88.97794
915.68        87.11069
916.08        85.66092
916.47        85.38295
916.87        86.29111
917.26        88.13345
917.66         90.0688
918.05        90.72385
918.45        89.76599
918.84         87.6884
919.24        85.41944
919.64        84.32366
920.03        84.76588
920.42          86.321
920.82        88.39249
921.21        90.04691
921.61         90.7339
922.00        90.76089
922.40        90.24986
922.79        89.38527
923.19        88.36871
923.58        87.00909
923.98        85.35039
924.37        84.20758
924.77        84.10341
925.16        81.67546
925.55        83.16909
925.95        84.07104
926.34        86.14381
926.74        88.83889
927.13         91.4398
927.52        92.49339
927.92        91.79785
928.31        89.82714
928.70        87.26807
929.10        85.31837
929.49        84.31289
929.89        83.94021
930.28        84.21387
930.67        85.14458
931.07        86.47803
931.46        88.30937
931.85        89.89687
932.24        90.10999
932.64        88.79137
933.03        86.07685
933.42        82.76086
933.82        80.65452
934.21        80.27193
934.60        81.13161
934.99        82.32191
935.39        82.93139
935.78        82.82584
936.17        81.76842
936.56        79.56979
936.96        80.59162
937.35        79.09648
937.74        79.68044
938.13        80.37361
938.53        81.43867
938.92        82.91312
939.31        84.94731
939.70        87.06335
940.09         87.7515
940.49        86.57952
940.88        84.20222
941.27        81.74541
941.66        80.54649
942.05        80.77735
942.44         81.9843
942.84        83.77451
943.23        85.50351
943.62        86.74873
944.01        87.66811
944.40        88.12098
944.79         87.8933
945.18        86.95137
945.57        85.18973
945.97        82.91225
946.36        81.10093
946.75        80.33337
947.14        80.43326
947.53        80.93584
947.92        81.25027
948.31        81.27331
948.70        81.19318
949.09        81.08371
949.48        81.09486
949.87        81.27199
950.26        81.43713
950.65        81.62154
951.04         81.9447
951.43        82.37788
951.82        82.89404
952.21        83.16682
952.60        82.67266
952.99        81.37482
953.38        79.49995
953.77        77.58556
954.16        76.40057
954.55        76.11565
954.94        76.56902
955.33        77.31775
955.72        77.58936
956.11        77.19382
956.50        76.35676
956.89        75.57921
957.28        75.76464
957.66         77.2066
958.05        79.32764
958.44         81.5485
958.83        83.05324
959.22        83.58452
959.61        83.32382
960.00        82.48688
960.39        81.42233
960.78        80.30246
961.16        79.11196
961.55        77.79985
961.94        76.33641
962.33        74.85237
962.72        73.51864
963.11        72.61658
963.49        72.44794
963.88        72.99816
964.27        74.19419
964.66         75.6652
965.04        76.59167
965.43        76.55312
965.82        75.81664
966.21        74.85059
966.60        74.30179
966.98        74.32876
967.37        74.69573
967.76        75.23544
968.15        75.61042
968.53        75.67221
968.92        75.48586
969.31        75.18201
969.69        74.88216
970.08        74.63215
970.47        74.43348
970.86        74.13949
971.24        73.51013
971.63        72.54482
972.02        71.34097
972.40        70.35869
972.79        70.39722
973.17        71.73751
973.56        74.04031
973.95        76.67906
974.33        78.38596
974.72        78.60477
975.11        77.67614
975.49        76.19489
975.88        75.03767
976.26        74.35401
976.65        73.89706
977.04        73.32828
977.42        72.01537
977.81        69.96172
978.19        67.63506
978.58        66.03087
978.96        65.90269
979.35        67.30068
979.74        70.06788
980.12        73.74676
980.51        76.25996
980.89        76.98804
981.28        76.27651
981.66        74.89691
982.05        73.88125
982.43         73.4613
982.82        73.31236
983.20        73.48298
983.59        74.09159
983.97        75.19362
984.35        76.87012
984.74        78.60194
985.12        79.44021
985.51        78.74035
985.89        76.58376
986.28        73.70903
986.66        71.24269
987.04        69.83293
987.43        69.32728
987.81        69.09071
988.20        68.19994
988.58        66.24146
988.96        62.78654
989.35        58.39475
989.73        56.49099
990.12        59.46445
990.50        65.93198
990.88        71.45198
991.27        72.47281
991.65        69.53659
992.03        63.71362
992.42        57.56561
992.80         55.6642
993.18        59.06201
993.56        65.04467
993.95        71.16998
994.33        75.34776
994.71        77.10397
995.10        77.55882
995.48        76.74379
995.86        74.39874
996.24        70.58823
996.63        64.89291
997.01        58.57019
997.39        55.65898
997.77        57.95862
998.15        64.76356
998.54         72.4073
998.92        75.69548
999.30        73.13119
999.68        65.96808
1000.06        56.45176
1000.45        50.05544
1000.83        48.89201
1001.21        51.00629
1001.59        54.63497
1001.97        58.01912
1002.35        60.71914
1002.73        63.74786
1003.12        66.15769
1003.50        64.99578
1003.88        59.62486
1004.26        51.91735
1004.64        45.02966
1005.02        41.38327
1005.40        40.97529
1005.78        43.49704
1006.16        50.12566
1006.54        59.40995
1006.92        66.11493
1007.30        69.09167
1007.69        69.40092
1008.07        68.48798
1008.45        66.29413
1008.83        60.95465
1009.21        46.31257
1009.59        4.115973
1009.97       -95.13896
1010.35        -207.909
1010.73       -160.4552
1011.11       -72.53236
1011.49       -15.71607
1011.86        21.93548
1012.24        42.39202
1012.62        50.50684
1013.00         51.0325
1013.38        45.69928
1013.76        36.27141
1014.14        30.59693
1014.52        35.84891
1014.90        54.08295
1015.28        79.61506
1015.66        92.18599
1016.04        80.07214
1016.41        48.99619
1016.79        18.37854
1017.17        6.704855
1017.55        10.41717
1017.93        18.88215
1018.31        26.73266
1018.69        31.49446
1019.06        33.48664
1019.44        32.96981
1019.82        30.65481
1020.20        28.91385
1020.58        30.46166
1020.95        39.52022
1021.33        45.01245
1021.71        411.1493
1022.09        151.2669
1022.46        149.4689
1022.84        155.9734
1023.22        169.3211
1023.60        203.9919
1023.97        544.0473
1024.35       -32.31192
1024.73        30.53966
