SpectraSmart Spectrum 2.9.0.0
--------- Device Information -----------
Spectrum Name :  反射率_0
Saving Time :  2024/04/25 22:55:11
Spectro-Module Model Name : SE2030-DUVN
Spectro-Module Serial Number : OS361AC55029948
Wavelength Start : 200
Wavelength End : 1025
Wavelength Unit : Wavelength(nm)
Spectrum Unit : Reflectance(%)
-----------Spectrum Setting ------------
Integration Time : 20ms
Average : 10
Boxcar : 0
Background removal :  enabled
linearity correction :  enabled
SC :  disabled
Intensity correction :  disabled
DWT denoise :  enabled
savitzky-golay :  disabled
FFT :  disabled
Running average :  disabled
Kalman :  disabled
High pass :  disabled
---------------BEGIN--------------------
Wavelength(nm)             Reflectance(%)
200.29               0
200.75        79.24799
201.21         73.3123
201.67        66.52547
202.13        61.77959
202.58        59.43238
203.04        59.07075
203.50        60.04231
203.96        61.19523
204.42        61.95139
204.88        62.46255
205.34        62.93946
205.80        63.71038
206.26        65.14739
206.72        68.10143
207.18        73.12236
207.64        75.45054
208.10        68.90245
208.55        60.24808
209.01        56.03077
209.47        56.57252
209.93        60.22766
210.39        66.65558
210.85        73.26798
211.31        74.01009
211.77        67.23683
212.23        55.36503
212.69        43.67099
213.14        40.26948
213.60        46.54938
214.06         60.2749
214.52         76.2839
214.98        86.53902
215.44        88.75088
215.90        85.25957
216.36        79.32402
216.81         75.4287
217.27        74.91341
217.73        76.25829
218.19        77.08971
218.65        74.18581
219.11        66.35262
219.57        52.90518
220.02         36.0006
220.48        26.91062
220.94        31.91027
221.40        47.42923
221.86        62.68556
222.32        66.68987
222.77        60.40324
223.23        49.74325
223.69        40.01793
224.15        36.52841
224.61         38.9526
225.06        44.72071
225.52        50.81305
225.98         53.6017
226.44        52.39014
226.90        48.84779
227.36        44.81754
227.81        42.64994
228.27        43.17217
228.73        45.31357
229.19        48.15705
229.65        50.40484
230.10        51.61641
230.56        52.23598
231.02         52.6314
231.48        53.21429
231.93        54.00724
232.39        54.83392
232.85        55.43264
233.31        55.48606
233.77        54.91034
234.22         53.8204
234.68        52.40059
235.14         51.0212
235.60        49.92607
236.05         49.1362
236.51        48.58092
236.97        48.00925
237.43        47.35526
237.88        46.77876
238.34        46.42122
238.80        46.80795
239.26        48.13083
239.71        50.20846
240.17        52.62513
240.63        55.17965
241.08        57.71037
241.54        60.09392
242.00        62.01558
242.46        63.16912
242.91        63.71171
243.37        63.08496
243.83        62.02765
244.28        72.83727
244.74        111.8047
245.20        123.1452
245.66         117.375
246.11        114.4525
246.57        114.0129
247.03        114.7057
247.48        105.5519
247.94        64.74924
248.40        63.32366
248.85        67.99094
249.31        71.57919
249.77        74.58376
250.22        77.97614
250.68        83.02751
251.14        89.59612
251.59        92.81824
252.05        88.64467
252.51        79.63259
252.96        70.47035
253.42        65.64091
253.88        64.62654
254.33        65.85406
254.79        69.16595
255.25        73.65012
255.70        78.16633
256.16        82.60142
256.62        85.43974
257.07        85.14513
257.53        82.54113
257.99        78.18801
258.44        73.59275
258.90        71.42604
259.35        70.91874
259.81        71.23493
260.27        70.81107
260.72        68.13612
261.18        63.92199
261.63        58.80322
262.09        54.19655
262.55        51.05326
263.00        49.30326
263.46        48.53904
263.91        47.97393
264.37        47.07157
264.83        45.64734
265.28        43.81853
265.74        42.04614
266.19         40.7541
266.65        40.15364
267.11        39.97041
267.56         39.8132
268.02        39.22606
268.47        38.09729
268.93        36.59458
269.38        34.97249
269.84        33.88612
270.30        33.49773
270.75         33.6273
271.21        33.90087
271.66        33.75505
272.12        33.05955
272.57         32.0109
273.03        30.94052
273.48        30.25808
273.94        30.08326
274.39        30.21107
274.85        30.43681
275.31        30.45557
275.76        30.16837
276.22         29.7021
276.67        29.13004
277.13        28.65105
277.58        28.26851
278.04        27.96789
278.49        27.64446
278.95        27.22108
279.40        26.66161
279.86        26.06432
280.31        25.49039
280.77        25.14104
281.22        24.99298
281.68        24.99426
282.13        25.02681
282.59        24.96534
283.04        24.77054
283.50        24.52529
283.95        24.22834
284.41        23.90356
284.86        23.56756
285.32        23.22461
285.77        22.96715
286.22        22.99759
286.68        23.30207
287.13        23.78165
287.59        24.21972
288.04        24.27972
288.50        23.93355
288.95        23.28515
289.41        22.55563
289.86        21.97212
290.32         21.6607
290.77        21.53479
291.22        21.57964
291.68        21.73323
292.13        21.96626
292.59        22.29799
293.04        22.70842
293.50        23.16112
293.95        23.62525
294.40        24.07309
294.86        24.48006
295.31        24.82829
295.77        25.12687
296.22        25.39216
296.68        25.64851
297.13        25.90496
297.58         26.1922
298.04        26.53056
298.49        26.95846
298.95        27.56901
299.40        28.35447
299.85        29.27108
300.31        30.22287
300.76        31.06812
301.21         31.7431
301.67        32.30252
302.12        32.73361
302.58        33.08838
303.03        33.37254
303.48        33.58835
303.94        33.83747
304.39        34.23583
304.84        34.80378
305.30        35.50201
305.75        36.16577
306.20        36.55125
306.66        36.63913
307.11         36.4968
307.57        36.31173
308.02        36.28262
308.47        36.48818
308.93        36.85312
309.38        37.28864
309.83        37.69066
310.29        38.00417
310.74        38.24874
311.19        38.41557
311.65        38.48735
312.10        38.46682
312.55        38.36052
313.00        38.18473
313.46        37.98447
313.91        37.77391
314.36        37.56616
314.82        37.40988
315.27        37.35075
315.72        37.40201
316.18        37.54833
316.63         37.7238
317.08        37.79488
317.53        37.72513
317.99        37.53402
318.44         37.3161
318.89        37.22921
319.35        37.29449
319.80        37.47249
320.25        37.62273
320.70        37.51744
321.16        37.11417
321.61          36.492
322.06         35.8199
322.51        35.35347
322.97         35.1407
323.42        35.11913
323.87        35.14842
324.32        34.99285
324.78        34.59084
325.23        34.03507
325.68        33.44138
326.13        32.99929
326.59        32.75854
327.04        32.67699
327.49        32.68553
327.94        32.67731
328.39        32.61365
328.85        32.51856
329.30        32.44127
329.75        32.41188
330.20        32.44176
330.66          32.489
331.11        32.55663
331.56        32.60866
332.01         32.6284
332.46        32.60983
332.92        32.54409
333.37          32.464
333.82        32.36103
334.27        32.24524
334.72        32.08508
335.17        31.83015
335.63        31.48466
336.08         31.0832
336.53        30.72853
336.98        30.58526
337.43        30.68117
337.88          30.971
338.34         31.2947
338.79        31.43788
339.24        31.31877
339.69        30.99601
340.14        30.61981
340.59        30.45838
341.05        30.56836
341.50        30.85505
341.95        31.17312
342.40        31.31371
342.85         31.2284
343.30        30.99935
343.75        30.68493
344.20        30.38968
344.66         30.1626
345.11        29.93932
345.56        29.76511
346.01        29.70437
346.46        29.74826
346.91        29.89904
347.36        30.00402
347.81        29.81366
348.26        29.30997
348.72        28.60422
349.17         27.9117
349.62        27.66683
350.07        27.96035
350.52        28.63611
350.97        29.44766
351.42        30.01911
351.87        30.23685
352.32        30.20387
352.77        30.00212
353.22         29.7684
353.67        29.55882
354.13        29.33212
354.58        29.08834
355.03        28.87347
355.48        28.69861
355.93        28.58442
356.38        28.49799
356.83        28.36708
357.28        28.17772
357.73        27.94414
358.18        27.72031
358.63        27.59369
359.08        27.57712
359.53        27.64039
359.98        27.70384
360.43        27.64638
360.88        27.44361
361.33        27.12996
361.78        26.79437
362.23        26.58325
362.68        26.52544
363.13        26.56684
363.58        26.61555
364.03         26.5279
364.48        26.27319
364.93        25.91113
365.38        25.50502
365.83        25.15263
366.28        24.89241
366.73        24.69378
367.18        24.56368
367.63        24.51418
368.08        24.53155
368.53         24.6094
368.98        24.69017
369.43         24.6794
369.88        24.55979
370.33        24.35846
370.78         24.1239
371.23        23.94574
371.68        23.85303
372.13         23.8142
372.58        23.82395
373.03        23.87045
373.48        23.93534
373.93        24.02324
374.38        24.08257
374.83        24.03023
375.28        23.85847
375.72        23.58368
376.17        23.30204
376.62        23.13428
377.07        23.11039
377.52        23.18299
377.97        23.29868
378.42        23.36969
378.87        23.36132
379.32        23.30253
379.77        23.18697
380.22        23.00071
380.67        22.75546
381.11        22.46262
381.56        22.16865
382.01        21.96199
382.46         21.8672
382.91        21.86048
383.36        21.90865
383.81        21.95148
384.26        21.96248
384.71         21.9537
385.15        21.90842
385.60         21.8205
386.05        21.68328
386.50        21.49266
386.95        21.28248
387.40         21.1193
387.85        21.03078
388.29        21.00548
388.74        21.01479
389.19        20.97827
389.64        20.88275
390.09        20.73526
390.54        20.60789
390.98        20.61796
391.43        20.78636
391.88        21.05993
392.33        21.30066
392.78        21.30891
393.23         21.0722
393.67         20.6627
394.12        20.26744
394.57        20.07692
395.02        20.12904
395.47        20.35623
395.91        20.66092
396.36        20.83684
396.81        20.82318
397.26         20.6713
397.71        20.45862
398.15        20.28035
398.60        20.19554
399.05        20.17537
399.50        20.16854
399.95        20.04976
400.39        19.89624
400.84        19.67306
401.29        19.48684
401.74        19.48373
402.18         19.7017
402.63        20.06357
403.08        20.45017
403.53         20.6729
403.97        20.68297
404.42        20.53382
404.87        20.30145
405.32        20.12096
405.76        20.03763
406.21        20.01801
406.66        20.03466
407.11         20.0558
407.55        20.07269
408.00        20.09267
408.45         20.1074
408.90        20.08456
409.34        20.01933
409.79         19.9236
410.24         19.8271
410.68        19.77141
411.13        19.77189
411.58        19.82029
412.03        19.90228
412.47        19.99438
412.92        20.06982
413.37         20.1307
413.81        20.18604
414.26        20.27119
414.71        20.37716
415.15        20.49018
415.60        20.55632
416.05        20.51062
416.49        20.34642
416.94        20.10522
417.39        19.83931
417.83         19.6371
418.28        19.53903
418.73        19.51267
419.17        19.55993
419.62        19.67594
420.07        19.84264
420.51        20.05837
420.96        20.24593
421.41        20.27292
421.85        20.11379
422.30        19.83811
422.74        19.54021
423.19        19.39922
423.64        19.43258
424.08        19.60081
424.53        19.82038
424.98        19.97704
425.42        20.03704
425.87        20.02412
426.31        19.96664
426.76        19.96536
427.21        20.01016
427.65        19.93491
428.10        19.83198
428.54        19.97995
428.99        20.39039
429.44        20.94131
429.88        21.40518
430.33        21.49916
430.77        21.18324
431.22         20.5562
431.66        19.89032
432.11        19.69541
432.56        20.02144
433.00        20.56226
433.45        21.07242
433.89        21.52781
434.34        21.71262
434.78        21.18456
435.23        20.35641
435.67        20.24147
436.12        20.78848
436.57        21.09736
437.01         21.0345
437.46        20.98815
437.90        20.98091
438.35        20.90563
438.79        20.79418
439.24        20.75214
439.68        20.80905
440.13        20.84881
440.57        20.89211
441.02        21.25938
441.46        21.77354
441.91        21.66903
442.35        21.07428
442.80        20.81433
443.24        20.87088
443.69        20.93026
444.13        20.90139
444.58        20.63604
445.02        20.22754
445.47        20.13481
445.91        20.32501
446.36        20.37679
446.80        20.26646
447.24        20.24529
447.69        20.32207
448.13        20.37641
448.58        20.40622
449.02        20.43976
449.47        20.45777
449.91        20.42865
450.36        20.35682
450.80         20.2477
451.25        20.15112
451.69        20.13207
452.13        20.20547
452.58        20.33877
453.02        20.49045
453.47        20.59632
453.91        20.63923
454.36        20.64244
454.80        20.60999
455.24        20.54635
455.69        20.47296
456.13        20.38092
456.58        20.32376
457.02        20.35063
457.46        20.47549
457.91        20.67346
458.35        20.88585
458.79        21.01466
459.24        21.04667
459.68        20.99385
460.13        20.91758
460.57        20.86798
461.01        20.88073
461.46        20.93215
461.90        21.00002
462.34        21.04662
462.79        21.05402
463.23        21.02756
463.68        21.00073
464.12        21.03383
464.56        21.13801
465.01        21.31458
465.45        21.45338
465.89        21.47031
466.34        21.37107
466.78         21.0661
467.22        20.73237
467.67        20.86689
468.11        21.40667
468.55         21.7134
468.99        21.69799
469.44        21.66253
469.88        21.67642
470.32        21.81825
470.77        22.03346
471.21        22.07361
471.65        21.92185
472.10          21.789
472.54        21.72364
472.98        21.72475
473.42        21.80756
473.87        21.97922
474.31        22.17849
474.75        22.30484
475.20        22.34065
475.64        22.30275
476.08        22.24269
476.52        22.23986
476.97         22.3166
477.41        22.45261
477.85        22.60106
478.29        22.73074
478.74        22.83161
479.18        22.80242
479.62        22.69505
480.06        22.96998
480.50        23.16008
480.95        23.34317
481.39        23.34079
481.83        23.31239
482.27        23.24743
482.72        23.15115
483.16        22.77824
483.60        22.93211
484.04         23.5129
484.48         23.8745
484.93        24.22917
485.37        24.68758
485.81        25.11431
486.25         25.0784
486.69        33.06556
487.14        26.26919
487.58        17.11884
488.02        21.45766
488.46        24.35094
488.90         24.3356
489.34        24.74859
489.79        24.55354
490.23        25.77085
490.67        26.40545
491.11        26.22637
491.55        26.24464
491.99        26.35485
492.43        26.30374
492.88        26.15361
493.32        26.21089
493.76        26.32099
494.20        26.60991
494.64         27.0036
495.08        27.46475
495.52        27.94425
495.96        28.40494
496.41        28.75097
496.85        28.95224
497.29        29.02656
497.73        28.71972
498.17        28.38172
498.61        28.71035
499.05        29.68965
499.49        29.89805
499.93        30.04179
500.37        30.17391
500.82        30.22737
501.26        30.52257
501.70        30.91307
502.14        31.14093
502.58        31.16164
503.02        31.20121
503.46        31.26784
503.90         31.2118
504.34        31.09183
504.78        31.07912
505.22        31.19974
505.66         31.4115
506.10        31.65269
506.54        31.81576
506.98        31.87188
507.42        31.85746
507.86        31.83666
508.30        31.90802
508.74        32.09118
509.18        32.34569
509.62        32.61662
510.06        32.81589
510.50        32.91896
510.94        32.96252
511.38        32.97012
511.82        32.97649
512.26        32.99928
512.70        33.02181
513.14        33.06845
513.58        33.18179
514.02        33.35222
514.46        33.55883
514.90        33.74089
515.34        33.77149
515.78        33.60764
516.22        33.42198
516.66        33.28637
517.10        32.93827
517.54        32.40665
517.98        33.04538
518.42        32.86484
518.86        33.16385
519.30        33.32831
519.74        33.54042
520.18        33.74679
520.62        33.83598
521.06        33.81153
521.50        33.68678
521.93        33.50425
522.37         33.3452
522.81        33.24078
523.25        33.17606
523.69         33.1551
524.13         33.1807
524.57        33.24314
525.01        33.33745
525.45        33.43393
525.89         33.4826
526.32        33.46334
526.76         33.3848
527.20        33.25646
527.64        33.10822
528.08        32.96135
528.52        32.78572
528.96        32.58167
529.40        32.43911
529.83        32.38295
530.27        32.06656
530.71        32.12407
531.15        32.04085
531.59        32.00429
532.03        31.99026
532.46        32.01982
532.90        32.11998
533.34        32.27161
533.78         32.4538
534.22        32.59943
534.66        32.61473
535.09        32.48048
535.53        32.24361
535.97        31.96194
536.41        31.73683
536.85        31.60612
537.28        31.55084
537.72        31.55596
538.16        31.59552
538.60        31.65733
539.04        31.72604
539.47        31.79972
539.91        31.95775
540.35        32.16192
540.79        32.26999
541.22        32.29427
541.66        32.38799
542.10         32.5553
542.54        32.70675
542.97        32.83855
543.41        32.99938
543.85        33.18616
544.29        33.40231
544.72          33.613
545.16        33.77749
545.60        33.88928
546.04        33.95416
546.47        34.04667
546.91        34.30728
547.35        34.74054
547.79        35.28005
548.22        35.78811
548.66        36.09046
549.10        36.13161
549.53        35.89804
549.97        35.57954
550.41        35.51036
550.84        35.75931
551.28        36.19762
551.72        36.72662
552.15        37.19642
552.59        37.53747
553.03        37.79074
553.46        37.96203
553.90        38.09954
554.34        38.22756
554.77        38.28848
555.21        38.30759
555.65        38.44946
556.08         38.7448
556.52        38.67935
556.96        39.11617
557.39        39.25681
557.83        39.36963
558.27          39.439
558.70        39.51613
559.14        39.66624
559.57        39.88146
560.01        40.14697
560.45        40.38701
560.88        40.49219
561.32        40.46424
561.75        40.31276
562.19        40.14498
562.63        40.05411
563.06        40.08287
563.50        40.27749
563.93        40.56404
564.37        40.78099
564.80        40.88362
565.24        40.96016
565.68        41.03279
566.11        41.11532
566.55        41.24701
566.98        41.41093
567.42         41.6058
567.85         41.8225
568.29        42.08106
568.72        42.26427
569.16        42.45662
569.60        42.87862
570.03        43.33674
570.47        43.43609
570.90        43.32533
571.34        42.62752
571.77        43.20216
572.21        43.30319
572.64        43.44576
573.08        43.06344
573.51        41.29655
573.95        42.94492
574.38        45.61638
574.82        44.64729
575.25         44.3333
575.69          42.984
576.12        42.40688
576.56        42.14408
576.99         43.1214
577.42        45.13792
577.86        44.61458
578.29        44.22529
578.73        46.43174
579.16        43.01315
579.60        39.37998
580.03        41.03599
580.47        43.81072
580.90        44.68883
581.33        43.48324
581.77         43.1552
582.20        46.97503
582.64        46.34953
583.07        39.46806
583.51        38.64733
583.94        38.02872
584.37        39.71339
584.81        41.55954
585.24        43.57877
585.68        44.49037
586.11        43.50101
586.54        40.44905
586.98        39.36103
587.41        39.64613
587.85        41.52005
588.28        42.90385
588.71        40.73667
589.15        39.51313
589.58        40.34195
590.01        40.70374
590.45        41.36818
590.88        41.74978
591.31        41.20875
591.75        40.80865
592.18        40.96282
592.61        42.18547
593.05        42.39426
593.48        44.20404
593.91        44.50319
594.35        40.94697
594.78         40.3275
595.21        40.40844
595.65        42.40742
596.08        44.11015
596.51        42.30244
596.94        41.65733
597.38        42.33061
597.81        44.28713
598.24        45.62281
598.68         45.0417
599.11        44.74436
599.54        47.02851
599.97        47.84097
600.41        45.25221
600.84        45.65201
601.27        46.93488
601.70        46.72411
602.14        47.15636
602.57        46.96393
603.00          47.812
603.43        49.37227
603.87        50.83805
604.30        51.08146
604.73        50.00989
605.16        49.48084
605.60        50.72548
606.03        52.02238
606.46        53.20948
606.89        53.29683
607.32        52.33174
607.76         52.7716
608.19         54.8422
608.62        54.57097
609.05         54.0699
609.48        54.80125
609.92        55.01804
610.35        54.72454
610.78        57.22322
611.21        57.91972
611.64        55.61242
612.07        56.40379
612.50        57.06266
612.94        57.73856
613.37        57.53792
613.80        58.20925
614.23        58.95378
614.66        59.15368
615.09        59.49463
615.52        59.80526
615.96         60.1566
616.39        60.53899
616.82        59.94448
617.25        59.67386
617.68        60.56966
618.11        61.30165
618.54        61.93213
618.97        61.72183
619.40          61.032
619.84        61.25732
620.27         62.3041
620.70        63.12404
621.13        63.57262
621.56        62.72355
621.99        62.40305
622.42        63.07888
622.85        64.71973
623.28         64.5797
623.71        64.04057
624.14        63.75599
624.57        63.71349
625.00         63.4971
625.43        63.53113
625.86        62.90829
626.29        63.00636
626.72        63.27181
627.15        63.03701
627.58        63.11584
628.01        63.14153
628.44        63.14588
628.87        63.18741
629.30        62.69385
629.73         63.0565
630.16        62.79277
630.59        62.22375
631.02        61.60338
631.45        60.99402
631.88        60.43345
632.31        59.94034
632.74        59.52021
633.17        59.16013
633.60        58.83289
634.03        58.52373
634.46        58.24275
634.89         57.9487
635.32        57.57324
635.75        57.10743
636.18        56.56765
636.61        56.01527
637.04         55.5508
637.47        55.19096
637.89         54.9086
638.32        54.63675
638.75        54.29505
639.18        53.86529
639.61        53.41194
640.04        52.95797
640.47         52.4767
640.90         52.0124
641.33         51.6741
641.76        51.44879
642.18        51.28253
642.61        51.16859
643.04        51.04854
643.47        50.87078
643.90        51.17551
644.33        50.89561
644.76        50.90267
645.18        50.89553
645.61        50.91651
646.04        50.96453
646.47        51.02713
646.90        51.15393
647.33        51.38937
647.75        51.75749
648.18        52.26796
648.61        52.78976
649.04        53.15537
649.47        53.32399
649.89        53.15322
650.32        52.96006
650.75        53.47437
651.18        54.63093
651.61        55.74419
652.03        56.52277
652.46        56.82356
652.89        56.97511
653.32        57.09784
653.74        57.49784
654.17        58.89991
654.60        60.12835
655.03        58.69425
655.46        60.21404
655.88        63.77848
656.31        68.36045
656.74        150.1703
657.16        96.55458
657.59        33.93347
658.02        26.60765
658.45        47.50077
658.87        60.68482
659.30        64.56889
659.73        64.30264
660.15        62.60894
660.58        65.05751
661.01        66.97256
661.44        65.27924
661.86        64.81831
662.29        64.94433
662.72         66.0181
663.14        67.75964
663.57        67.97272
664.00         66.8962
664.42         66.7896
664.85        67.74801
665.27        68.35504
665.70        68.42265
666.13        68.44169
666.55        68.40292
666.98        68.17207
667.41        67.90232
667.83        67.88934
668.26         68.1951
668.69        68.70351
669.11        69.20748
669.54        69.71219
669.96        69.50193
670.39        69.19172
670.82        68.79533
671.24        68.69676
671.67        68.99064
672.09        69.49842
672.52        69.95977
672.94        70.50308
673.37        69.92524
673.80        69.83267
674.22          69.936
674.65        69.99501
675.07        69.99208
675.50        69.96276
675.92        69.98812
676.35         70.1566
676.77         70.4649
677.20        71.08518
677.62        71.40997
678.05        71.70502
678.47        71.76294
678.90        71.65215
679.32        71.47964
679.75        71.27649
680.17        71.37121
680.60        71.54633
681.02        71.76835
681.45        71.69189
681.87         71.3502
682.30         71.1125
682.72        71.09136
683.15        71.16187
683.57        71.39613
684.00        71.95851
684.42        72.79946
684.85         73.2141
685.27        73.14366
685.70        72.87438
686.12        72.53568
686.54        72.23073
686.97         72.0722
687.39        72.24455
687.82        72.63263
688.24        72.89105
688.66        72.94402
689.09        72.97591
689.51        73.04703
689.94        73.17026
690.36         73.3729
690.78        73.57477
691.21         73.7373
691.63        73.94966
692.06        74.13624
692.48        74.02012
692.90        73.71903
693.33        73.65688
693.75        73.87646
694.17         74.1973
694.60        74.52079
695.02        74.69449
695.44        74.66754
695.87        74.75885
696.29        75.00214
696.71        74.81013
697.14        74.38155
697.56        74.91837
697.98         76.1292
698.41        76.07864
698.83        75.28049
699.25         74.8505
699.68        75.02974
700.10        75.02505
700.52        74.83215
700.94        75.27699
701.37        75.55565
701.79        76.02099
702.21         76.3609
702.64        76.66215
703.06        76.85483
703.48        76.83782
703.90        76.62759
704.33        76.24534
704.75        75.81351
705.17        75.62501
705.59        75.75495
706.01        76.00912
706.44        76.24321
706.86        76.87675
707.28        76.82799
707.70        76.94163
708.12        76.95388
708.55        76.93195
708.97        76.87735
709.39         76.7905
709.81        76.72517
710.23         76.7495
710.66        76.87926
711.08        77.13538
711.50        77.39611
711.92        77.47845
712.34        77.34868
712.76        77.04572
713.19        76.73141
713.61        76.70287
714.03        77.00426
714.45        77.54871
714.87        78.10706
715.29        78.31436
715.71        78.09518
716.13         77.5702
716.56        76.97649
716.98        76.70953
717.40        76.86082
717.82        77.34512
718.24         77.9756
718.66        78.22137
719.08        78.31976
719.50        78.11256
719.92        77.81686
720.34         77.6293
720.76        77.61934
721.19        77.58404
721.61        77.74178
722.03        77.91551
722.45        78.14688
722.87         78.4389
723.29        78.73148
723.71        78.90989
724.13        78.94545
724.55        78.86105
724.97        78.72382
725.39        78.65569
725.81        78.69004
726.23        78.79365
726.65         78.9215
727.07        78.99734
727.49        79.00548
727.91        78.98403
728.33        78.95754
728.75        78.96313
729.17        79.01089
729.59        79.07408
730.01         79.1682
730.43        79.31157
730.85        79.50336
731.27        79.76778
731.69        80.01683
732.10        80.08184
732.52        79.93122
732.94         79.6599
733.36        79.43969
733.78        79.37829
734.20        79.51204
734.62        80.19269
735.04        81.14921
735.46        81.02795
735.88        80.13551
736.30        80.51091
736.72        82.06995
737.13        82.69296
737.55        82.06497
737.97        81.93759
738.39        82.32146
738.81        81.28159
739.23         79.4558
739.65        80.34039
740.06        83.31376
740.48        83.76185
740.90        81.73595
741.32        80.81987
741.74        81.33266
742.16        81.58041
742.57        81.62144
742.99        82.35784
743.41        83.53595
743.83         84.2515
744.25         84.3493
744.67        84.05666
745.08        83.63332
745.50        83.50569
745.92        83.79333
746.34        84.33186
746.75        84.95887
747.17        85.28991
747.59        85.24756
748.01        85.20151
748.42        85.33308
748.84        84.85534
749.26        85.43173
749.68        85.91768
750.09        86.63149
750.51         87.5043
750.93          88.215
751.35        87.78357
751.76        86.53448
752.18        86.11542
752.60        86.56602
753.01        86.75479
753.43        86.63391
753.85        86.74466
754.27        87.31626
754.68         87.8978
755.10        88.44794
755.52        88.96142
755.93        89.36677
756.35        89.58405
756.77        89.72646
757.18        89.83542
757.60         89.9243
758.02        90.44359
758.43        91.00323
758.85        90.24715
759.26        88.30387
759.68        88.10727
760.10         89.2464
760.51         90.4663
760.93        89.99593
761.34        88.18338
761.76        88.34837
762.18        87.69106
762.59        87.49715
763.01        88.16792
763.42        89.56033
763.84        90.42234
764.26        90.53327
764.67        90.30749
765.09         89.8698
765.50        89.57252
765.92        89.36388
766.33        88.25218
766.75        86.61617
767.16           86.43
767.58        86.92701
768.00        88.57504
768.41        90.73745
768.83        92.79342
769.24        93.87055
769.66        92.97418
770.07        90.80865
770.49        88.72414
770.90        87.33972
771.32        88.33796
771.73        90.91612
772.15        90.43328
772.56        87.38073
772.97        86.86364
773.39        88.79442
773.80        89.51111
774.22        88.76476
774.63        88.76971
775.05        89.44793
775.46        89.75256
775.88        89.56958
776.29        89.19094
776.70        88.80803
777.12        88.76527
777.53        89.14523
777.95        89.77003
778.36        90.36229
778.77        90.44683
779.19         89.9736
779.60        89.10765
780.02        88.19984
780.43         87.8969
780.84        88.39507
781.26        88.95369
781.67        89.46529
782.09         90.9109
782.50        92.57067
782.91        91.47296
783.33        88.48424
783.74        87.49182
784.15        88.70319
784.57        89.71997
784.98        90.09364
785.39        90.08193
785.81        89.69382
786.22        89.24084
786.63        89.01772
787.04         89.1087
787.46        89.56396
787.87        90.49612
788.28        91.59634
788.70        92.11965
789.11        91.90947
789.52        91.37859
789.93        90.75895
790.35        89.97613
790.76        89.32545
791.17        89.61861
791.58        90.61465
792.00        91.05832
792.41        90.78746
792.82        90.46691
793.23        90.37888
793.65        90.26918
794.06        90.32996
794.47        91.60569
794.88        93.31019
795.29        92.80299
795.71        90.35686
796.12        88.28188
796.53        87.20721
796.94        86.67577
797.35        86.86753
797.76        88.23576
798.18         90.1101
798.59        91.17128
799.00        91.00262
799.41        89.92184
799.82        88.48795
800.23        87.65366
800.64        87.66052
801.06         88.1194
801.47        88.85689
801.88        89.46509
802.29        89.77597
802.70        89.95773
803.11        90.00551
803.52        89.88108
803.93        89.62708
804.34        89.20183
804.75        88.80481
805.17        88.86401
805.58        89.49252
805.99        90.30225
806.40        90.98758
806.81         91.6925
807.22        91.95657
807.63         90.4327
808.04        87.86343
808.45        86.69411
808.86        87.20061
809.27         88.2457
809.68        89.32391
810.09        89.94994
810.50        89.85427
810.91        89.22575
811.32        88.39078
811.73        87.86649
812.14        87.80465
812.55        87.99071
812.96        88.36333
813.37        88.81335
813.78        89.24754
814.19        89.75961
814.60        90.10153
815.01        89.87271
815.42        89.04732
815.83        87.69998
816.24         86.3518
816.65        85.92799
817.05        86.69626
817.46        88.36048
817.87        90.24726
818.28        91.13941
818.69        90.69653
819.10        89.21523
819.51        87.43331
819.92        86.60673
820.33        87.06902
820.74        88.44465
821.14        90.02785
821.55         90.5697
821.96        89.81178
822.37        88.19663
822.78        86.41493
823.19        85.47727
823.60        85.64384
824.00        86.65878
824.41        87.98506
824.82         88.8223
825.23        88.85242
825.64        88.36064
826.04        87.67104
826.45        87.26025
826.86        87.25986
827.27        87.46722
827.68        87.77768
828.08        88.08041
828.49        88.23655
828.90        88.37854
829.31        88.42988
829.72        88.22762
830.12        87.79974
830.53        87.17702
830.94        86.63043
831.35        86.53409
831.75        86.99223
832.16        87.83451
832.57        88.84523
832.97        89.55208
833.38        89.70602
833.79         89.4427
834.20        88.96893
834.60        88.60104
835.01        88.46496
835.42        88.46426
835.82        88.48574
836.23        88.25882
836.64         87.7803
837.04        87.17267
837.45        86.64067
837.86         86.5007
838.26        86.82106
838.67        87.44231
839.08        88.16422
839.48        88.61999
839.89        88.64944
840.29        88.38726
840.70        87.93238
841.11        87.41776
841.51        86.92068
841.92        86.37495
842.33        85.91663
842.73        85.78157
843.14        85.96629
843.54        86.47388
843.95        87.00692
844.35        87.12809
844.76        86.73103
845.17        85.96121
845.57         85.1415
845.98        84.78819
846.38        85.01215
846.79        85.62591
847.19        86.39373
847.60        86.78585
848.00        86.68778
848.41        86.24795
848.81        85.69064
849.22        85.27048
849.62        85.12979
850.03        85.18727
850.43        85.44553
850.84        85.79784
851.24         86.2405
851.65         86.6064
852.05        87.05172
852.46        87.62801
852.86        88.31674
853.27        89.10998
853.67         89.4747
854.07        88.74146
854.48        86.96428
854.88        84.39867
855.29        81.95715
855.69        80.94958
856.10         81.6245
856.50         83.8297
856.90        86.74718
857.31        88.47733
857.71         88.4171
858.12        87.03823
858.52          85.213
858.92        84.11661
859.33        84.00405
859.73        84.56022
860.13        85.53747
860.54        86.41753
860.94        87.04951
861.34        87.55054
861.75        87.93658
862.15        88.31557
862.55        88.67598
862.96        88.92116
863.36        89.06561
863.76        89.11375
864.17        89.07743
864.57        89.02858
864.97        89.00127
865.38        89.02311
865.78        89.14537
866.18        89.28773
866.58        89.45546
866.99        89.63425
867.39        89.87909
867.79        90.22979
868.19        90.48345
868.60        90.25401
869.00        89.51671
869.40         88.3809
869.80        87.48758
870.21         87.8221
870.61        89.64326
871.01        92.62026
871.41        95.83436
871.81        97.71825
872.22         97.8232
872.62        96.59583
873.02        94.91621
873.42        94.22135
873.82        94.81402
874.22        96.25698
874.63        97.96444
875.03        98.69991
875.43        97.93575
875.83        96.42867
876.23        94.77245
876.63        94.43592
877.03        95.77181
877.44        99.09597
877.84        98.67377
878.24        106.1654
878.64        104.7072
879.04         101.281
879.44        98.38049
879.84        96.87589
880.24        98.29966
880.64        100.2612
881.04        102.8242
881.44        104.3243
881.84        103.5185
882.24        101.1572
882.65        98.68641
883.05        97.80238
883.45        98.79002
883.85        101.2217
884.25          104.18
884.65        105.9309
885.05        105.8789
885.45        104.6498
885.85        103.0485
886.25        102.1517
886.65        102.2308
887.05        102.9019
887.45        103.9031
887.85        104.7893
888.25        105.3451
888.65        105.7666
889.04        105.9884
889.44        105.9325
889.84        105.6022
890.24        104.9474
890.64        104.2548
891.04        104.0014
891.44        104.2547
891.84        104.9328
892.24        105.6029
892.64        105.4673
893.04        104.4497
893.44        102.9587
893.83        101.5924
894.23        101.2118
894.63        101.9588
895.03        103.4866
895.43         105.559
895.83        107.7039
896.23        109.5745
896.63        111.2317
897.02        112.2293
897.42        111.8893
897.82        110.2392
898.22        107.5741
898.62        104.7765
899.01        103.1424
899.41        102.9977
899.81        103.9564
900.21        105.4853
900.61        106.6687
901.00        107.1745
901.40        107.2603
901.80        107.0938
902.20        106.9416
902.59        106.9101
902.99        106.8671
903.39         106.749
903.79        106.4956
904.18        106.1236
904.58        105.7465
904.98        105.5303
905.38        105.7009
905.77         106.238
906.17        107.0108
906.57        107.7934
906.96        108.3113
907.36        108.4253
907.76        108.2216
908.15        107.7221
908.55        106.8638
908.95        105.7595
909.34        104.4366
909.74        103.1814
910.14        102.2438
910.53        101.7462
910.93        101.7203
911.33        102.1152
911.72        102.7985
912.12        103.5773
912.52        104.3323
912.91        105.1007
913.31        106.0484
913.70        107.2585
914.10         108.707
914.49        109.9727
914.89        109.8637
915.29        108.1484
915.68        105.2936
916.08        102.6395
916.47        101.3962
916.87        101.6807
917.26           103.1
917.66        104.7646
918.05        105.2245
918.45        104.1311
918.84        102.0576
919.24        99.89698
919.64        98.92586
920.03        99.50599
920.42        101.2048
920.82        103.5211
921.21        105.7232
921.61        107.2349
922.00        108.2111
922.40        108.5909
922.79        108.2748
923.19        107.3524
923.58        105.9533
923.98        104.2794
924.37        102.5953
924.77        101.3553
925.16        100.7106
925.55        100.6069
925.95        101.5151
926.34        103.3118
926.74        105.6502
927.13        107.9016
927.52        108.8405
927.92        108.3363
928.31        106.7368
928.70        104.5699
929.10        102.7588
929.49        101.5978
929.89        100.8858
930.28        100.8098
930.67        101.6712
931.07        103.2745
931.46        105.5478
931.85        107.7085
932.24        108.5823
932.64        107.9523
933.03         106.067
933.42        103.3561
933.82        100.9679
934.21        99.38338
934.60        98.43538
934.99        98.07878
935.39        98.17484
935.78        98.67155
936.17        99.76084
936.56        101.1213
936.96         101.243
937.35        100.1731
937.74        98.16438
938.13        96.50041
938.53        96.20145
938.92        97.25137
939.31        99.44766
939.70        102.0739
940.09        103.2326
940.49        102.2417
940.88        99.87373
941.27        97.35685
941.66        96.13679
942.05        96.42092
942.44        97.72144
942.84        99.50263
943.23        100.9544
943.62        101.6359
944.01        101.7633
944.40        101.5495
944.79        101.3127
945.18        101.1579
945.57        100.9573
945.97        100.4707
946.36         99.4416
946.75        98.02329
947.14        96.59394
947.53        95.60665
947.92        95.39205
948.31        95.92126
948.70        97.13924
949.09        98.72097
949.48        99.85644
949.87        100.1381
950.26        99.64741
950.65        98.92432
951.04        98.86618
951.43        99.65111
951.82        101.0148
952.21        102.2256
952.60        102.1164
952.99        100.4989
953.38        97.84298
953.77        95.11802
954.16        93.70657
954.55        93.89117
954.94        95.29491
955.33        97.05518
955.72        97.72037
956.11        96.89687
956.50        94.98248
956.89        92.86478
957.28        92.17326
957.66        93.47702
958.05        96.02746
958.44        98.87917
958.83        100.6465
959.22        100.9383
959.61         100.098
960.00        98.70404
960.39         97.6842
960.78        97.32646
961.16        97.42365
961.55        97.41235
961.94        96.41254
962.33        94.36107
962.72        91.76608
963.11        89.48255
963.49        88.57208
963.88        89.19501
964.27        91.08098
964.66        93.58637
965.04        95.27311
965.43        95.38966
965.82        94.38238
966.21        92.95702
966.60        92.06473
966.98        91.92937
967.37        92.20881
967.76        92.56693
968.15        92.42087
968.53        91.62769
968.92        90.43349
969.31        89.27037
969.69        88.62064
970.08        88.59109
970.47        89.08362
970.86        89.69108
971.24        89.72195
971.63          88.965
972.02         87.5594
972.40        86.23316
972.79        86.24945
973.17        88.06236
973.56        91.21297
973.95        94.60166
974.33        96.11024
974.72        95.10833
975.11        92.36553
975.49         89.2748
975.88        87.69375
976.26        87.93539
976.65        89.56455
977.04         91.7362
977.42         92.3642
977.81         90.6391
978.19        87.39598
978.58        84.49816
978.96        83.80373
979.35        85.57743
979.74        89.37358
980.12        94.25462
980.51        96.96249
980.89        96.58672
981.28         94.0797
981.66        90.94816
982.05        89.09264
982.43        88.80827
982.82        89.43952
983.20        90.70106
983.59        92.33331
983.97        94.25268
984.35         96.6345
984.74        98.87827
985.12        99.98413
985.51        99.19012
985.89         96.6787
986.28        93.09528
986.66        89.57565
987.04        86.97683
987.43         85.3513
987.81        84.51345
988.20        84.14944
988.58        84.09502
988.96        84.35555
989.35         85.3903
989.73        88.24342
990.12        92.16998
990.50        96.08047
990.88        97.94479
991.27        96.77454
991.65        93.07066
992.03        87.19917
992.42        81.00648
992.80        77.97932
993.18        79.16884
993.56        82.74475
993.95         86.8332
994.33        89.72899
994.71        91.00025
995.10        91.48759
995.48        91.19118
995.86        89.90047
996.24        87.68983
996.63        84.26144
997.01         80.5918
997.39        79.62363
997.77        82.48849
998.15        88.35078
998.54         94.5026
998.92        97.41974
999.30        96.01595
999.68        91.34309
1000.06        84.37599
1000.45         77.9215
1000.83        73.66529
1001.21        71.02663
1001.59        70.37997
1001.97        72.20894
1002.35        76.42344
1002.73        83.77565
1003.12        92.54664
1003.50        96.50423
1003.88        92.37335
1004.26        82.71004
1004.64        72.96735
1005.02        68.05352
1005.40        68.45361
1005.78        73.79877
1006.16        84.38655
1006.54        94.16232
1006.92        96.58733
1007.30        94.22233
1007.69        91.32726
1008.07        90.82794
1008.45        93.27934
1008.83        99.38548
1009.21        112.1116
1009.59        130.6873
1009.97        129.5395
1010.35        61.46849
1010.73        4.314942
1011.11        10.91335
1011.49        31.62905
1011.86        51.73763
1012.24        64.67844
1012.62        70.61515
1013.00        72.22743
1013.38        71.22386
1013.76         70.2327
1014.14        76.96179
1014.52        97.45049
1014.90        132.6125
1015.28         173.713
1015.66        197.3289
1016.04        188.0918
1016.41        148.9496
1016.79        99.53145
1017.17         64.0471
1017.55        47.52607
1017.93        41.38359
1018.31        40.93764
1018.69        44.09162
1019.06        50.36146
1019.44        61.02886
1019.82         79.1038
1020.20        105.5211
1020.58         140.816
1020.95        189.5082
1021.33        274.3845
1021.71       -970.5011
1022.09        27.45151
1022.46        83.07859
1022.84        102.9685
1023.22        116.3135
1023.60        137.0199
1023.97        304.3634
1024.35        27.83892
1024.73        63.51637
