SpectraSmart Spectrum 2.9.0.0
--------- Device Information -----------
Spectrum Name :  反射率_0
Saving Time :  2024/04/25 22:48:32
Spectro-Module Model Name : SE2030-DUVN
Spectro-Module Serial Number : OS361AC55029948
Wavelength Start : 200
Wavelength End : 1025
Wavelength Unit : Wavelength(nm)
Spectrum Unit : Reflectance(%)
-----------Spectrum Setting ------------
Integration Time : 20ms
Average : 10
Boxcar : 0
Background removal :  enabled
linearity correction :  enabled
SC :  disabled
Intensity correction :  disabled
DWT denoise :  enabled
savitzky-golay :  disabled
FFT :  disabled
Running average :  disabled
Kalman :  disabled
High pass :  disabled
---------------BEGIN--------------------
Wavelength(nm)             Reflectance(%)
200.29               0
200.75        86.95235
201.21        82.21912
201.67        77.26839
202.13        75.03769
202.58        75.80994
203.04        78.97733
203.50        82.96358
203.96        85.04228
204.42        84.63164
204.88        82.85979
205.34        81.22562
205.80        81.36563
206.26        84.07737
206.72        90.90321
207.18        104.9155
207.64        118.9348
208.10        113.6766
208.55        98.24928
209.01        87.69711
209.47        83.41335
209.93        82.60614
210.39        83.88289
210.85        85.05745
211.31         82.1191
211.77        74.49858
212.23        64.04762
212.69        54.93732
213.14        53.51519
213.60        60.54498
214.06        74.14032
214.52        89.56142
214.98        99.43337
215.44        101.7443
215.90        98.77724
216.36        93.33541
216.81        89.30227
217.27        88.16497
217.73        88.65279
218.19        89.43475
218.65        88.87962
219.11        86.35244
219.57        81.53477
220.02        75.75359
220.48        74.54576
220.94        79.97245
221.40        89.93236
221.86        97.26682
222.32         95.1503
222.77        85.36725
223.23        72.84023
223.69        62.74967
224.15        60.46352
224.61        65.23795
225.06        74.24527
225.52        83.65031
225.98        88.39191
226.44        87.47762
226.90        82.93586
227.36        77.28564
227.81        73.92214
228.27        73.94179
228.73        75.93794
229.19        78.65359
229.65        80.29307
230.10        80.44881
230.56        80.09234
231.02        79.78091
231.48         80.1385
231.93        81.15212
232.39        82.46457
232.85        83.84892
233.31         85.1254
233.77        86.14546
234.22        87.03487
234.68        87.35534
235.14        86.35188
235.60        84.00845
236.05        80.68707
236.51        77.28965
236.97        74.93713
237.43        73.81813
237.88        73.82982
238.34        74.44938
238.80         74.6804
239.26        73.95725
239.71        72.74612
240.17        71.09579
240.63        69.76837
241.08        69.16599
241.54        68.99001
242.00        69.24207
242.46        69.92159
242.91        71.42036
243.37        74.67533
243.83         84.7793
244.28        119.6733
244.74        162.2076
245.20        141.6606
245.66        121.5158
246.11        116.2884
246.57        120.3163
247.03        138.4968
247.48        191.4991
247.94        158.7426
248.40        100.6945
248.85        83.37465
249.31        79.08407
249.77        80.55545
250.22        85.99709
250.68        96.17302
251.14        110.8332
251.59         120.435
252.05        115.4855
252.51        100.3605
252.96        84.25081
253.42        75.72614
253.88        74.22838
254.33        76.69012
254.79        81.74404
255.25        86.87261
255.70        90.79877
256.16         94.4112
256.62        96.64812
257.07        96.33488
257.53        94.29079
257.99        90.65537
258.44        86.82776
258.90        85.49197
259.35        85.63984
259.81        86.46248
260.27        86.18956
260.72        83.10237
261.18        78.13914
261.63        72.08353
262.09        66.60848
262.55        62.86678
263.00        60.77959
263.46        59.86469
263.91        59.24003
264.37        58.37329
264.83        57.01152
265.28        55.26143
265.74        53.51653
266.19        52.04287
266.65        51.11395
267.11        50.54819
267.56        50.03878
268.02        49.26396
268.47        48.09876
268.93         46.6636
269.38        45.23057
269.84        44.47218
270.30        44.51706
270.75        45.16153
271.21        45.87885
271.66        45.87824
272.12        45.00781
272.57        43.51819
273.03        41.94816
273.48        41.01595
273.94        40.90897
274.39        41.31459
274.85        41.85158
275.31        41.92806
275.76        41.39293
276.22        40.49778
276.67        39.45663
277.13        38.69798
277.58        38.25039
278.04        38.01302
278.49        37.77208
278.95        37.33819
279.40        36.62991
279.86        35.81064
280.31        34.95296
280.77        34.29385
281.22        33.83117
281.68        33.52807
282.13        33.29138
282.59        33.05594
283.04        32.77401
283.50        32.50995
283.95        32.22617
284.41         31.9056
284.86        31.53261
285.32        31.11551
285.77        30.72227
286.22        30.53278
286.68        30.54325
287.13        30.67282
287.59        30.73978
288.04        30.44738
288.50        29.79291
288.95        28.86587
289.41        27.91304
289.86        27.18376
290.32        26.79728
290.77        26.64653
291.22        26.65339
291.68        26.65713
292.13        26.60901
292.59        26.55975
293.04        26.55038
293.50        26.65203
293.95        26.85956
294.40        27.10798
294.86        27.33538
295.31        27.46094
295.77         27.4723
296.22        27.41027
296.68        27.29652
297.13        27.13688
297.58        26.97434
298.04        26.83168
298.49        26.78835
298.95          26.999
299.40         27.4628
299.85        28.11864
300.31        28.81959
300.76        29.34482
301.21         29.6151
301.67        29.70861
302.12         29.6629
302.58        29.59478
303.03        29.52497
303.48         29.4371
303.94        29.38441
304.39        29.41521
304.84        29.54047
305.30        29.74418
305.75        29.93481
306.20        29.97787
306.66         29.8675
307.11        29.63328
307.57        29.37134
308.02        29.15393
308.47        29.03152
308.93        28.97547
309.38        28.96951
309.83        29.01928
310.29        29.10341
310.74        29.21196
311.19        29.29996
311.65        29.29622
312.10         29.1843
312.55         28.9823
313.00        28.71913
313.46        28.45615
313.91        28.21145
314.36        27.98978
314.82        27.81205
315.27         27.6939
315.72        27.64074
316.18        27.64557
316.63        27.68583
317.08        27.70116
317.53         27.6694
317.99           27.59
318.44         27.4924
318.89        27.42877
319.35        27.40189
319.80         27.4027
320.25        27.36911
320.70        27.20434
321.16        26.90026
321.61        26.49488
322.06        26.08528
322.51        25.81648
322.97        25.70939
323.42        25.72891
323.87        25.78173
324.32        25.71042
324.78        25.47219
325.23        25.12191
325.68         24.7326
326.13        24.42611
326.59        24.23845
327.04        24.15365
327.49        24.13236
327.94         24.1129
328.39        24.07434
328.85        24.02424
329.30        24.01548
329.75        24.09798
330.20        24.27464
330.66        24.49989
331.11        24.71872
331.56        24.80449
332.01        24.72612
332.46        24.50591
332.92        24.21721
333.37        24.02523
333.82        23.97888
334.27        24.05667
334.72        24.17416
335.17        24.18128
335.63        24.03709
336.08        23.78902
336.53        23.54943
336.98        23.49992
337.43        23.67584
337.88        24.02322
338.34         24.3734
338.79        24.49913
339.24        24.32655
339.69        23.92859
340.14        23.49819
340.59        23.36899
341.05         23.6052
341.50        24.08426
341.95        24.60948
342.40        24.89834
342.85        24.88455
343.30        24.67376
343.75        24.33731
344.20         24.0039
344.66        23.73731
345.11        23.46699
345.56        23.26219
346.01        23.22487
346.46        23.34726
346.91        23.62024
347.36        23.85215
347.81        23.72901
348.26        23.21899
348.72        22.45471
349.17        21.68079
349.62         21.3834
350.07        21.67213
350.52        22.37681
350.97         23.2428
351.42        23.88121
351.87        24.17187
352.32        24.22253
352.77        24.10942
353.22        23.95818
353.67        23.82047
354.13        23.65217
354.58        23.45736
355.03        23.28998
355.48        23.16271
355.93        23.09392
356.38        23.04453
356.83        22.93316
357.28        22.74481
357.73        22.49733
358.18         22.2563
358.63        22.12598
359.08        22.12396
359.53        22.21831
359.98        22.31543
360.43        22.27202
360.88        22.06015
361.33        21.72021
361.78        21.36408
362.23        21.17404
362.68        21.18517
363.13        21.33237
363.58         21.4907
364.03        21.46589
364.48        21.21684
364.93        20.81657
365.38        20.36574
365.83        20.02312
366.28        19.83958
366.73        19.76411
367.18        19.76038
367.63        19.76997
368.08        19.76257
368.53        19.75689
368.98        19.73592
369.43        19.66632
369.88        19.54843
370.33        19.39248
370.78        19.22277
371.23        19.08934
371.68        19.00756
372.13        18.95585
372.58        18.94702
373.03        18.99811
373.48        19.09657
373.93        19.23563
374.38        19.33734
374.83          19.281
375.28        19.05379
375.72         18.6866
376.17        18.31227
376.62        18.10786
377.07        18.11945
377.52        18.28754
377.97        18.52428
378.42         18.6842
378.87        18.71904
379.32        18.67366
379.77        18.57558
380.22        18.46412
380.67        18.35532
381.11        18.23171
381.56        18.10193
382.01        17.99397
382.46        17.91395
382.91         17.8629
383.36        17.82158
383.81        17.75136
384.26        17.64787
384.71         17.5286
385.15        17.40792
385.60        17.31899
386.05        17.25893
386.50        17.20521
386.95        17.16093
387.40         17.1329
387.85        17.11965
388.29        17.12462
388.74        17.11133
389.19        17.00326
389.64        16.79708
390.09        16.50511
390.54        16.23028
390.98        16.14664
391.43         16.2925
391.88        16.60013
392.33        16.91117
392.78        16.99139
393.23        16.81272
393.67        16.45568
394.12        16.09533
394.57        15.91811
395.02        15.96345
395.47        16.16541
395.91        16.43394
396.36        16.58567
396.81        16.56501
397.26        16.41672
397.71        16.21742
398.15        16.06334
398.60        16.00335
399.05        16.00713
399.50        16.00881
399.95        15.87238
400.39        15.65549
400.84        15.34512
401.29        15.06008
401.74         14.9817
402.18         15.1609
402.63        15.51371
403.08        15.91272
403.53        16.15428
403.97        16.18225
404.42        16.05723
404.87        15.84584
405.32        15.66774
405.76        15.56855
406.21        15.51557
406.66        15.50141
407.11        15.52353
407.55        15.57701
408.00        15.66392
408.45        15.75537
408.90        15.77975
409.34        15.71813
409.79        15.59246
410.24         15.4514
410.68        15.36466
411.13        15.35262
411.58        15.39907
412.03        15.47723
412.47        15.54218
412.92         15.5659
413.37        15.55921
413.81        15.54731
414.26        15.58448
414.71        15.66867
415.15        15.78344
415.60        15.86235
416.05        15.82082
416.49        15.64573
416.94        15.38088
417.39        15.09696
417.83        14.91411
418.28        14.87533
418.73        14.93526
419.17        15.05751
419.62        15.17785
420.07        15.27242
420.51        15.35986
420.96        15.41091
421.41        15.37381
421.85        15.24352
422.30        15.05532
422.74        14.86477
423.19        14.78866
423.64        14.83219
424.08        14.97232
424.53        15.13911
424.98        15.23652
425.42        15.23813
425.87        15.16391
426.31        15.04615
426.76        14.98075
427.21        14.96495
427.65        14.87269
428.10        14.77129
428.54         14.8607
428.99         15.1463
429.44        15.53776
429.88        15.87114
430.33        15.93976
430.77        15.71496
431.22        15.26701
431.66        14.78449
432.11        14.63413
432.56        14.85107
433.00        15.19135
433.45        15.49308
433.89        15.83288
434.34        16.03864
434.78        15.65741
435.23        14.99607
435.67        14.88883
436.12        15.29603
436.57        15.49982
437.01        15.40264
437.46         15.3232
437.90        15.27983
438.35        15.18267
438.79        15.05623
439.24        14.98164
439.68        14.97769
440.13        14.96058
440.57        14.93646
441.02        15.11485
441.46        15.36924
441.91        15.17707
442.35          14.651
442.80        14.39032
443.24         14.3801
443.69        14.39523
444.13          14.377
444.58        14.23391
445.02        14.02031
445.47        14.04678
445.91        14.25882
446.36        14.30907
446.80        14.17092
447.24        14.03753
447.69        13.95525
448.13        13.90285
448.58        13.89793
449.02        13.94409
449.47          14.001
449.91          14.001
450.36        13.93459
450.80        13.81871
451.25         13.7106
451.69        13.68774
452.13         13.7666
452.58        13.90754
453.02        14.05909
453.47        14.13863
453.91        14.12947
454.36        14.06301
454.80        13.96419
455.24        13.87492
455.69         13.8218
456.13        13.78404
456.58        13.78933
457.02        13.85773
457.46        13.99264
457.91        14.18169
458.35        14.37423
458.79        14.48066
459.24         14.4914
459.68        14.41559
460.13        14.32481
460.57        14.29494
461.01        14.35842
461.46        14.48244
461.90        14.61757
462.34        14.67558
462.79        14.63457
463.23        14.51848
463.68        14.39128
464.12        14.36173
464.56        14.45666
465.01        14.64548
465.45        14.82583
465.89        14.90069
466.34        14.86292
466.78        14.66762
467.22        14.42957
467.67        14.48032
468.11        14.77688
468.55        14.87892
468.99        14.76955
469.44        14.72391
469.88        14.79936
470.32        15.02916
470.77        15.32271
471.21        15.41942
471.65        15.28212
472.10        15.08775
472.54        14.91038
472.98         14.8206
473.42        14.85158
473.87        14.98657
474.31        15.16291
474.75        15.27598
475.20        15.30344
475.64        15.26822
476.08         15.2196
476.52        15.23234
476.97        15.32259
477.41        15.46525
477.85        15.60622
478.29        15.69162
478.74         15.7088
479.18        15.60013
479.62        15.42341
480.06        15.52837
480.50        15.60829
480.95        15.69003
481.39        15.64524
481.83        15.60234
482.27        15.56364
482.72        15.40147
483.16         15.1854
483.60         15.2602
484.04        15.64155
484.48        15.79016
484.93        15.92225
485.37        16.41364
485.81        17.05638
486.25         17.0184
486.69        22.16425
487.14        17.29534
487.58        11.57411
488.02        14.30886
488.46          16.093
488.90        16.14381
489.34        16.15791
489.79        16.02925
490.23        16.84192
490.67        17.29955
491.11        17.18429
491.55        17.05376
491.99        16.87503
492.43        16.66687
492.88        16.50177
493.32        16.45996
493.76        16.45663
494.20        16.64192
494.64        16.96761
495.08        17.38392
495.52        17.82152
495.96        18.19751
496.41        18.43248
496.85        18.52268
497.29        18.49527
497.73        18.21967
498.17        17.93384
498.61         18.0712
499.05         18.6242
499.49        18.71175
499.93        18.78231
500.37        18.87188
500.82        18.92657
501.26         19.1282
501.70        19.37721
502.14        19.51197
502.58        19.51228
503.02        19.53507
503.46        19.58607
503.90        19.56391
504.34           19.49
504.78        19.44783
505.22        19.45211
505.66        19.49064
506.10        19.54391
506.54        19.57604
506.98        19.58153
507.42        19.57355
507.86        19.59178
508.30        19.69659
508.74         19.8908
509.18        20.14369
509.62        20.39589
510.06        20.55089
510.50         20.5871
510.94        20.54485
511.38        20.46019
511.82        20.39098
512.26        20.36146
512.70        20.34723
513.14        20.37645
513.58        20.49501
514.02        20.68704
514.46        20.92993
514.90         21.1349
515.34          21.125
515.78        20.84754
516.22        20.51655
516.66        20.24962
517.10        19.78624
517.54        19.17137
517.98        20.00453
518.42        19.87493
518.86        20.28236
519.30        20.48008
519.74         20.7045
520.18        20.90372
520.62        20.96421
521.06        20.90003
521.50        20.71795
521.93        20.48289
522.37        20.31804
522.81        20.25829
523.25        20.27571
523.69        20.34039
524.13        20.40079
524.57        20.43575
525.01        20.45905
525.45        20.46769
525.89        20.45476
526.32        20.41785
526.76        20.35635
527.20        20.27161
527.64        20.17766
528.08         20.0851
528.52        19.97527
528.96        19.85611
529.40        19.79263
529.83         19.7996
530.27        19.65957
530.71        19.73792
531.15        19.68386
531.59        19.60898
532.03        19.51117
532.46        19.43804
532.90        19.46786
533.34        19.60076
533.78         19.8035
534.22         19.9997
534.66        20.07912
535.09        20.01454
535.53         19.8489
535.97        19.63693
536.41        19.47031
536.85        19.38255
537.28        19.35536
537.72         19.3665
538.16        19.37936
538.60        19.38358
539.04        19.37692
539.47        19.38505
539.91        19.49275
540.35        19.68152
540.79        19.85311
541.22        19.97285
541.66        20.06786
542.10        20.12941
542.54         20.1214
542.97        20.09292
543.41        20.15757
543.85        20.32755
544.29        20.57537
544.72        20.82568
545.16        20.96836
545.60        20.98055
546.04        20.89811
546.47        20.80769
546.91        20.85546
547.35        21.06267
547.79        21.38443
548.22        21.72306
548.66        21.90752
549.10        21.91437
549.53        21.83169
549.97        21.74615
550.41        21.73255
550.84         21.8242
551.28        22.00742
551.72        22.25748
552.15        22.52393
552.59        22.77645
553.03        23.02209
553.46        23.23828
553.90        23.41186
554.34        23.54602
554.77        23.61503
555.21        23.63372
555.65         23.6997
556.08        23.83597
556.52        23.73141
556.96        23.93232
557.39        23.97613
557.83        24.03365
558.27         24.0894
558.70        24.16762
559.14        24.28922
559.57        24.44348
560.01        24.62918
560.45        24.79513
560.88        24.86261
561.32        24.83875
561.75        24.73425
562.19        24.62024
562.63        24.57096
563.06        24.60241
563.50        24.69935
563.93        24.82366
564.37        24.92618
564.80        24.98542
565.24        25.02879
565.68        25.07054
566.11        25.13254
566.55        25.23864
566.98        25.37062
567.42        25.53243
567.85        25.72423
568.29        25.95616
568.72         26.1509
569.16        26.33671
569.60        26.64877
570.03        26.97236
570.47        27.01172
570.90        26.87907
571.34        26.58121
571.77        26.98418
572.21        27.06865
572.64        27.13096
573.08        26.84466
573.51         26.0049
573.95        27.14161
574.38        28.83191
574.82        28.16283
575.25        27.96726
575.69        27.04955
576.12        26.69703
576.56        26.52948
576.99        27.36329
577.42        28.38908
577.86        28.28607
578.29        28.17168
578.73        29.52161
579.16        27.22288
579.60        24.95201
580.03        26.11896
580.47        27.88953
580.90        28.09359
581.33        27.57207
581.77        27.19042
582.20        29.64375
582.64        29.00794
583.07        24.88833
583.51        24.37402
583.94          23.929
584.37        24.95641
584.81        26.12844
585.24        27.25996
585.68        27.56452
586.11        27.24521
586.54         25.2178
586.98        24.63762
587.41        24.86008
587.85        25.89812
588.28        26.67233
588.71        25.43479
589.15        24.44964
589.58        25.21078
590.01        25.21948
590.45        25.82428
590.88         25.8958
591.31        25.58787
591.75        25.42642
592.18        25.46425
592.61        26.02003
593.05        26.56673
593.48        27.74273
593.91        27.91993
594.35        25.51852
594.78        25.11502
595.21        25.32438
595.65        26.55516
596.08         27.4179
596.51        26.40985
596.94         25.8705
597.38        26.37266
597.81        27.72505
598.24        28.35449
598.68        28.09235
599.11        28.21919
599.54        29.37244
599.97        30.32545
600.41        28.82973
600.84         29.2512
601.27        30.05421
601.70        29.88614
602.14        30.02703
602.57         30.0657
603.00        30.97401
603.43        32.20049
603.87        33.28339
604.30        33.40446
604.73        32.79396
605.16        32.69684
605.60        33.64682
606.03        34.69183
606.46        35.60213
606.89        35.69979
607.32        35.27893
607.76        35.57338
608.19        37.07339
608.62         36.9157
609.05        36.67784
609.48        37.31268
609.92        37.53379
610.35        38.01252
610.78        39.50928
611.21        40.00644
611.64        38.80852
612.07        39.52837
612.50         40.0824
612.94        40.66161
613.37        40.65844
613.80        41.24926
614.23        41.82401
614.66        42.11431
615.09        42.52919
615.52        42.82184
615.96        43.08033
616.39        43.37962
616.82        42.98183
617.25         43.2557
617.68        43.91062
618.11        44.56516
618.54        45.03305
618.97        45.03131
619.40        44.78306
619.84        45.11459
620.27        45.96651
620.70        46.58322
621.13        46.85081
621.56        46.63543
621.99        46.16683
622.42        46.88199
622.85         48.4135
623.28        48.21062
623.71        47.89737
624.14        47.77682
624.57        47.52889
625.00         47.4407
625.43        47.32328
625.86        46.82953
626.29        46.87421
626.72        46.91454
627.15        46.70245
627.58        46.65376
628.01        46.59582
628.44        46.46961
628.87        46.26883
629.30        46.04262
629.73        45.85557
630.16         45.4798
630.59        44.95037
631.02        44.34905
631.45        43.74598
631.88        43.21641
632.31        42.77939
632.74        42.41336
633.17        42.07373
633.60        41.68426
634.03        41.22374
634.46        40.72008
634.89        40.18933
635.32        39.65777
635.75        39.14209
636.18        38.63594
636.61        38.15513
637.04        37.72235
637.47        37.33414
637.89        36.98542
638.32        36.64276
638.75        36.27345
639.18        35.87395
639.61        35.46325
640.04        35.05582
640.47         34.6698
640.90        34.31477
641.33        33.98347
641.76        33.68216
642.18        33.47189
642.61        33.35638
643.04        33.24423
643.47        33.09131
643.90         33.2522
644.33        33.03196
644.76        33.00282
645.18        32.96928
645.61         32.9667
646.04        32.99276
646.47        33.02799
646.90        33.12989
647.33        33.36512
647.75        33.75816
648.18        34.32154
648.61        34.89463
649.04        35.25891
649.47        35.38882
649.89        35.16185
650.32        34.91314
650.75        35.52501
651.18        36.88986
651.61        37.95213
652.03         38.4494
652.46        38.87739
652.89        39.46866
653.32        39.59831
653.74        39.51208
654.17        41.44684
654.60        42.03844
655.03        41.77319
655.46        42.86871
655.88        46.00134
656.31         49.8353
656.74        113.2131
657.16        72.88049
657.59        25.60385
658.02         19.8876
658.45        35.37958
658.87        45.96052
659.30        48.65236
659.73        48.38771
660.15         47.0544
660.58        49.43502
661.01         51.2077
661.44        50.04937
661.86        49.88268
662.29        50.21296
662.72        51.28581
663.14        52.87025
663.57        53.17425
664.00        52.41418
664.42        52.50542
664.85        53.54155
665.27        54.34549
665.70         54.6913
666.13        54.87762
666.55        54.87734
666.98        54.61733
667.41        54.29791
667.83         54.2779
668.26         54.6403
668.69        55.25911
669.11         55.9039
669.54        56.46991
669.96        56.35061
670.39        56.08562
670.82        55.73093
671.24        55.68772
671.67        56.05481
672.09        56.64358
672.52        57.20373
672.94        57.82419
673.37        57.48385
673.80        57.43782
674.22        57.49112
674.65        57.58408
675.07        57.72158
675.50        57.85347
675.92        58.00454
676.35        58.19783
676.77        58.41922
677.20        58.72043
677.62        59.11983
678.05        58.97136
678.47        59.33536
678.90        59.36539
679.32        59.41793
679.75        59.41626
680.17        59.61457
680.60        59.79973
681.02        59.97314
681.45        60.03112
681.87         59.9686
682.30        59.81662
682.72        59.67594
683.15        59.73412
683.57        60.03712
684.00        60.40727
684.42        60.93299
684.85        61.26928
685.27        61.41441
685.70         61.4274
686.12        61.35552
686.54        61.32629
686.97        61.37796
687.39        61.45808
687.82         61.5337
688.24        61.70394
688.66        61.96901
689.09        61.91385
689.51        62.26904
689.94        62.42977
690.36        62.61444
690.78        62.77158
691.21        62.90161
691.63        63.06533
692.06        63.22848
692.48        63.26097
692.90        63.21362
693.33        63.28246
693.75        63.48959
694.17        63.74336
694.60        64.00338
695.02         64.2337
695.44        64.38078
695.87        64.57469
696.29        64.83447
696.71        64.75953
697.14        64.49921
697.56        64.99895
697.98        66.02758
698.41        65.90033
698.83        65.30486
699.25        64.94931
699.68        65.11127
700.10        65.20918
700.52        65.25859
700.94        65.59345
701.37         66.1185
701.79        66.57772
702.21        66.87634
702.64        67.09404
703.06        67.20042
703.48         67.1417
703.90        66.94541
704.33        66.63227
704.75        66.31393
705.17        66.25498
705.59        66.51781
706.01        66.92554
706.44        67.33061
706.86        68.06812
707.28        68.16316
707.70        68.36356
708.12        68.43409
708.55        68.44417
708.97        68.40109
709.39        68.29568
709.81        68.19926
710.23         68.2229
710.66        68.39016
711.08        68.70311
711.50        69.03099
711.92        69.17413
712.34        69.09344
712.76        68.83945
713.19        68.56269
713.61        68.53898
714.03        68.81434
714.45         69.3019
714.87        69.81959
715.29        70.07863
715.71        70.01395
716.13        69.72459
716.56        69.36568
716.98        69.20953
717.40        69.32423
717.82        69.63499
718.24        70.04097
718.66        70.31081
719.08        70.47981
719.50        70.53236
719.92        70.52977
720.34        70.53658
720.76        70.58643
721.19        70.54626
721.61        70.65055
722.03        70.77876
722.45         70.9889
722.87         71.2726
723.29        71.56839
723.71         71.7552
724.13        71.79807
724.55        71.75131
724.97        71.67857
725.39         71.6258
725.81        71.60874
726.23        71.85162
726.65        71.88637
727.07        72.03048
727.49        72.13964
727.91        72.24928
728.33        72.34032
728.75        72.38673
729.17        72.38976
729.59        72.34073
730.01        72.29958
730.43        72.37316
730.85        72.58764
731.27        72.91155
731.69        73.22093
732.10        73.47797
732.52        73.35807
732.94        73.15675
733.36        72.95955
733.78        73.01503
734.20        73.38149
734.62        73.88495
735.04        75.03912
735.46         74.9196
735.88        74.02406
736.30         74.1777
736.72        75.35684
737.13        75.74683
737.55        75.10283
737.97        75.02514
738.39        75.49462
738.81        74.64644
739.23        73.05547
739.65        74.01865
740.06        76.93511
740.48        77.45039
740.90        75.59994
741.32        74.72678
741.74        75.16945
742.16        75.43303
742.57        75.58977
742.99        76.45026
743.41        77.73378
743.83        78.52474
744.25        78.65131
744.67        78.33968
745.08         77.8632
745.50        77.67393
745.92        77.90903
746.34        78.40452
746.75        78.95791
747.17        79.23588
747.59        79.18482
748.01        78.93247
748.42        78.68327
748.84        78.79076
749.26        79.34525
749.68        80.02988
750.09        80.70348
750.51        81.55158
750.93        82.29802
751.35        82.02868
751.76        81.00439
752.18        80.61957
752.60        80.90871
753.01        80.88172
753.43        80.56503
753.85        80.65916
754.27        81.20338
754.68        81.93834
755.10        82.67146
755.52        83.24608
755.93        83.55269
756.35        83.55351
756.77        83.47147
757.18        83.50387
757.60        83.69762
758.02        84.49649
758.43        85.37232
758.85        84.67457
759.26        82.45987
759.68        82.05649
760.10        83.14125
760.51        84.24857
760.93        83.75233
761.34        82.30025
761.76        82.42792
762.18        81.56478
762.59        80.91566
763.01        81.59706
763.42        83.46026
763.84        84.62396
764.26        84.81612
764.67        84.75681
765.09        84.56264
765.50        84.55296
765.92         84.5719
766.33        83.30499
766.75         81.3172
767.16        80.78948
767.58        81.89868
768.00        83.51788
768.41        85.23842
768.83        86.71477
769.24        87.33119
769.66        86.55549
770.07        84.95168
770.49         83.2158
770.90        81.89767
771.32        82.91813
771.73         85.5081
772.15        85.11759
772.56        82.20238
772.97         81.5715
773.39        83.19807
773.80        83.87052
774.22        83.33996
774.63        83.39317
775.05        83.96101
775.46        84.28236
775.88         84.2495
776.29        84.01416
776.70        83.69514
777.12        83.57979
777.53        83.74389
777.95        84.03918
778.36         84.3307
778.77        84.36452
779.19        84.11559
779.60        83.71561
780.02        83.35224
780.43        83.22835
780.84        83.51864
781.26        84.08337
781.67        84.79484
782.09        85.79173
782.50        86.63142
782.91        85.75559
783.33        83.82816
783.74        83.26127
784.15        84.16883
784.57        85.03276
784.98        85.49756
785.39        85.23017
785.81        84.76714
786.22        84.25021
786.63        83.79431
787.04        83.84719
787.46        84.36655
787.87        85.43685
788.28        86.67965
788.70        87.31107
789.11        87.16801
789.52        86.53813
789.93        85.74083
790.35        85.17569
790.76        84.99338
791.17        85.18834
791.58        85.62686
792.00        85.90194
792.41        85.89873
792.82        85.94521
793.23        86.13882
793.65        85.80345
794.06        85.27213
794.47        86.39234
794.88        88.36581
795.29        87.92774
795.71        85.33885
796.12        83.14941
796.53        82.02873
796.94        81.72312
797.35        82.33485
797.76        83.64704
798.18        85.03554
798.59        86.10915
799.00        86.56664
799.41        85.24292
799.82        84.41873
800.23         83.5605
800.64        83.43271
801.06        83.62263
801.47        84.05086
801.88        84.44189
802.29        84.65587
802.70        84.83778
803.11        84.99659
803.52        85.02554
803.93        84.92999
804.34        84.85715
804.75        84.91538
805.17        84.58808
805.58         85.2006
805.99        85.46082
806.40        85.62656
806.81        86.27528
807.22        86.91983
807.63        85.65826
808.04        83.10696
808.45        81.96024
808.86         82.4611
809.27        83.25782
809.68        83.97725
810.09        84.52715
810.50        84.71278
810.91         84.5809
811.32        84.30186
811.73         84.1585
812.14        84.22583
812.55        84.36172
812.96         84.5537
813.37        84.78323
813.78         85.0155
814.19        85.32479
814.60        85.50171
815.01        85.20275
815.42        84.40638
815.83        83.18436
816.24        82.00596
816.65        81.69137
817.05        82.47137
817.46        84.07172
817.87        85.85194
818.28        86.66136
818.69        86.18479
819.10        84.70378
819.51        82.93771
819.92        82.11358
820.33        82.55754
820.74        83.90398
821.14        85.47699
821.55        86.07359
821.96        85.43546
822.37        83.98302
822.78        82.34927
823.19        81.45932
823.60        81.55714
824.00        82.40962
824.41        83.53871
824.82        84.24728
825.23        84.25901
825.64        83.82903
826.04        83.24852
826.45        82.94041
826.86        83.01541
827.27        83.28586
827.68        83.63933
828.08        83.94681
828.49        84.07372
828.90        84.15285
829.31        84.12513
829.72        83.86699
830.12        83.42181
830.53        82.81043
830.94        82.30434
831.35        82.27649
831.75        82.82541
832.16        83.78907
832.57        84.91916
832.97        85.67802
833.38        85.80701
833.79        85.45871
834.20        84.89732
834.60        84.53298
835.01         84.5038
835.42        84.67243
835.82        84.87918
836.23        84.77292
836.64        84.32262
837.04         83.6925
837.45        83.07621
837.86         82.7704
838.26        82.85625
838.67        83.17339
839.08        83.63674
839.48        84.08235
839.89        84.38212
840.29        84.60083
840.70        84.63733
841.11        84.31831
841.51        83.66324
841.92         82.7056
842.33        81.75068
842.73        81.31913
843.14        81.49168
843.54         82.1722
843.95        82.97884
844.35        83.32788
844.76         83.0496
845.17        82.34222
845.57        81.51169
845.98        81.03679
846.38        81.04193
846.79        81.34953
847.19        81.80988
847.60        82.06548
848.00        82.04765
848.41        81.85769
848.81        81.63609
849.22        81.50667
849.62        81.56725
850.03        81.76308
850.43         82.1036
850.84        82.50903
851.24        82.97737
851.65        83.32626
852.05        83.69983
852.46        84.14659
852.86        84.66304
853.27        85.26806
853.67        85.46775
854.07        84.63898
854.48        82.84016
854.88        80.30609
855.29        77.92675
855.69         76.9799
856.10        77.70235
856.50        79.94953
856.90        82.87459
857.31        84.52283
857.71         84.2891
858.12        82.67727
858.52        80.65285
858.92        79.50374
859.33        79.50214
859.73        80.29952
860.13        81.58148
860.54        82.67957
860.94        83.36081
861.34        83.77498
861.75        83.98439
862.15        84.17797
862.55        84.38104
862.96        84.48826
863.36        84.50701
863.76         84.4374
864.17        84.30344
864.57         84.2003
864.97        84.19849
865.38        84.37299
865.78        84.76933
866.18        85.26587
866.58        85.80837
866.99        86.29041
867.39        86.71937
867.79        87.14527
868.19        87.34325
868.60        86.91277
869.00        85.83459
869.40        84.22582
869.80        82.82181
870.21        82.74677
870.61        84.30937
871.01        87.20197
871.41        90.41593
871.81         92.2114
872.22        92.12159
872.62        90.62844
873.02        88.77964
873.42        88.33482
873.82         89.5502
874.22        91.75636
874.63        94.22218
875.03         95.2847
875.43        94.25877
875.83        92.33273
876.23        89.77998
876.63         88.6591
877.03        89.22561
877.44        91.66514
877.84        101.1523
878.24         99.7767
878.64         99.5974
879.04        97.88403
879.44         94.9445
879.84        93.37413
880.24        95.41592
880.64        97.06566
881.04        98.56469
881.44        99.26377
881.84        98.38698
882.24        96.45587
882.65        94.60702
883.05        94.04972
883.45        94.98125
883.85        97.18318
884.25        99.84583
884.65        101.3655
885.05        101.2279
885.45        99.99951
885.85        98.45785
886.25        97.66734
886.65        97.87587
887.05        98.68967
887.45        99.82935
887.85        100.8078
888.25        101.3821
888.65        101.7571
889.04        101.8243
889.44        101.4384
889.84        100.6382
890.24        99.45094
890.64        98.29444
891.04        97.83243
891.44        98.17223
891.84        99.15598
892.24        100.3115
892.64        100.7488
893.04        100.2892
893.44        99.31658
893.83        98.28921
894.23        97.88525
894.63        98.23263
895.03        99.01907
895.43        100.1895
895.83        101.6285
896.23         103.139
896.63        104.7525
897.02        105.8795
897.42        105.5669
897.82        103.7706
898.22        100.8705
898.62        97.91754
899.01         96.4565
899.41         96.8181
899.81        98.48576
900.21        100.6897
900.61         102.154
901.00        102.4752
901.40        102.0525
901.80        101.2513
902.20         100.641
902.59        100.4219
902.99        100.3718
903.39        100.3898
903.79        100.3472
904.18        100.2029
904.58        100.0929
904.98        100.0861
905.38        100.2507
905.77        100.5572
906.17         100.926
906.57        101.2693
906.96        101.5237
907.36        101.6072
907.76        101.5669
908.15        101.3579
908.55        100.7983
908.95        99.95647
909.34        98.87878
909.74        97.89527
910.14        97.33353
910.53        97.30904
910.93         97.7954
911.33        98.61121
911.72        99.40941
912.12        99.96191
912.52         100.264
912.91        100.4978
913.31        100.9667
913.70        101.7671
914.10        102.8173
914.49         103.723
914.89        103.4281
915.29        101.7507
915.68        99.16933
916.08        96.82643
916.47        95.70013
916.87        95.89828
917.26        97.10266
917.66        98.62436
918.05        99.36976
918.45        99.02232
918.84        97.94871
919.24        96.79967
919.64        96.50973
920.03        97.32078
920.42        98.90096
920.82        100.7079
921.21        101.9811
921.61        102.2997
922.00        101.9655
922.40        101.2233
922.79        100.3733
923.19        99.58094
923.58        98.76648
923.98        97.96994
924.37         97.3309
924.77        97.06239
925.16        96.52213
925.55        97.02494
925.95        97.84305
926.34        99.29291
926.74        101.0217
927.13        102.6071
927.52        103.1337
927.92        102.5303
928.31        101.0859
928.70        99.22973
929.10        97.70666
929.49        96.71965
929.89        96.09987
930.28        95.98521
930.67        96.59235
931.07        97.75435
931.46        99.48498
931.85        101.0746
932.24        101.4611
932.64        100.4768
933.03         98.2877
933.42        95.53828
933.82        93.72333
934.21        93.25913
934.60        93.75265
934.99        94.57495
935.39        94.97147
935.78        94.81536
936.17        94.21761
936.56        93.01777
936.96        92.71667
937.35        91.44592
937.74        90.96101
938.13        90.82767
938.53        91.42394
938.92         92.7291
939.31        94.80433
939.70        97.03633
940.09        97.72669
940.49        96.37033
940.88        93.68652
941.27        90.94874
941.66          89.665
942.05        90.02251
942.44        91.52699
942.84        93.62289
943.23        95.40171
943.62        96.37572
944.01        96.78278
944.40        96.74612
944.79        96.46616
945.18         96.0173
945.57        95.22787
945.97        94.08942
946.36        92.85703
946.75         91.8392
947.14        91.21765
947.53        90.95559
947.92        90.88099
948.31         90.9325
948.70         91.1278
949.09        91.53018
949.48         92.2237
949.87        93.12314
950.26        94.06236
950.65        94.81146
951.04        95.10152
951.43        94.88889
951.82        94.26953
952.21        93.33026
952.60        92.27448
952.99         91.2358
953.38        90.17426
953.77        89.32031
954.16        88.97479
954.55        89.15209
954.94        89.84151
955.33        90.55399
955.72        90.44389
956.11        89.33722
956.50        87.41251
956.89        85.46989
957.28        85.00388
957.66        86.49451
958.05        89.28915
958.44        92.35031
958.83        94.11102
959.22        94.17779
959.61        92.93969
960.00         91.1356
960.39        89.98869
960.78        89.85062
961.16        90.39245
961.55        90.94803
961.94        90.42369
962.33        88.64062
962.72        86.16284
963.11        83.78734
963.49        82.47659
963.88        82.40606
964.27        83.33532
964.66        84.83862
965.04        85.98948
965.43        86.26814
965.82        85.96773
966.21        85.54009
966.60        85.62914
966.98        86.36845
967.37        87.45824
967.76        88.51559
968.15        88.84338
968.53         88.2338
968.92        86.94391
969.31        85.42051
969.69        84.18115
970.08        83.37698
970.47        82.93293
970.86        82.61658
971.24        82.02831
971.63        81.08434
972.02        79.92307
972.40        79.06973
972.79        79.38925
973.17        81.19581
973.56         84.1155
973.95        87.30674
974.33        89.14745
974.72        89.02219
975.11        87.36653
975.49        85.22329
975.88        84.06355
976.26        84.13886
976.65         85.1683
977.04        86.30273
977.42        85.59936
977.81         82.5872
978.19        78.24144
978.58        74.69981
978.96        74.09313
979.35         76.6989
979.74        82.06706
980.12        89.01524
980.51        93.51207
980.89        94.11206
981.28        91.85125
981.66        88.41766
982.05         86.0323
982.43        85.15125
982.82        85.06188
983.20        85.59106
983.59        86.62559
983.97        88.12457
984.35        90.31067
984.74        92.59046
985.12        93.84789
985.51        93.28255
985.89        91.00628
986.28        87.75861
986.66        84.81911
987.04        82.96876
987.43        82.12481
987.81         81.7923
988.20          81.279
988.58        80.32107
988.96        78.76736
989.35        77.27541
989.73        78.51502
990.12        83.25406
990.50        89.76887
990.88        94.44258
991.27        95.03349
991.65        92.11826
992.03         86.4539
992.42        80.11477
992.80        76.96354
993.18        78.18672
993.56        81.79147
993.95        85.87002
994.33        88.70485
994.71         89.8606
995.10        90.23083
995.48        89.79456
995.86        88.28189
996.24        85.72587
996.63        81.77087
997.01        77.44676
997.39        75.89938
997.77        78.44025
998.15        84.39841
998.54        90.74857
998.92        93.41365
999.30        91.19141
999.68        85.07918
1000.06        76.95165
1000.45         71.3965
1000.83        70.19552
1001.21        71.79062
1001.59         74.6966
1001.97        77.37694
1002.35        79.44852
1002.73        81.76954
1003.12        83.53242
1003.50        82.56589
1003.88         78.3269
1004.26        72.23506
1004.64        66.90228
1005.02        64.44563
1005.40        64.98391
1005.78        68.52631
1006.16        75.93082
1006.54         84.5352
1006.92        89.32551
1007.30        90.38188
1007.69        89.80377
1008.07        89.46317
1008.45        89.77167
1008.83        90.36974
1009.21        90.60096
1009.59        85.75798
1009.97        60.47176
1010.35        10.84613
1010.73        5.298446
1011.11        29.69194
1011.49        50.72611
1011.86        67.17832
1012.24        76.64832
1012.62        80.04559
1013.00        79.54012
1013.38        75.83513
1013.76        71.21062
1014.14        73.89838
1014.52        90.89723
1014.90        124.5089
1015.28        165.8632
1015.66        188.4696
1016.04         175.844
1016.41        132.2339
1016.79        81.94183
1017.17         52.6402
1017.55        44.98171
1017.93        46.81203
1018.31         51.5397
1018.69         55.8041
1019.06        59.59051
1019.44        64.15565
1019.82        71.76016
1020.20         85.6973
1020.58        110.5352
1020.95        154.7194
1021.33        244.3781
1021.71       -950.5536
1022.09        21.36629
1022.46        79.07306
1022.84        100.4654
1023.22        113.9329
1023.60        132.8361
1023.97        281.3148
1024.35        34.57806
1024.73        62.59097
