SpectraSmart Spectrum 2.9.0.0
--------- Device Information -----------
Spectrum Name :  反射率_0
Saving Time :  2024/04/26 00:54:12
Spectro-Module Model Name : SE2030-DUVN
Spectro-Module Serial Number : OS361AC55029948
Wavelength Start : 200
Wavelength End : 1025
Wavelength Unit : Wavelength(nm)
Spectrum Unit : Reflectance(%)
-----------Spectrum Setting ------------
Integration Time : 20ms
Average : 10
Boxcar : 0
Background removal :  enabled
linearity correction :  enabled
SC :  disabled
Intensity correction :  disabled
DWT denoise :  enabled
savitzky-golay :  disabled
FFT :  disabled
Running average :  disabled
Kalman :  disabled
High pass :  disabled
---------------BEGIN--------------------
Wavelength(nm)             Reflectance(%)
200.29               0
200.75        78.01731
201.21        75.00414
201.67        71.29275
202.13        69.18069
202.58        68.97595
203.04         70.3419
203.50        72.22914
203.96         72.9303
204.42        72.11302
204.88        70.45872
205.34        68.97972
205.80         68.6797
206.26        69.94069
206.72        73.69408
207.18        80.95981
207.64        85.26177
208.10        77.14584
208.55        65.87629
209.01        59.83704
209.47        59.04521
209.93        61.48698
210.39        66.55698
210.85        72.10945
211.31        73.24615
211.77        68.58747
212.23        60.02554
212.69        51.85219
213.14        50.77814
213.60        57.72535
214.06        70.57671
214.52        84.75755
214.98        93.25816
215.44        94.24242
215.90        90.09783
216.36        83.53477
216.81        78.26609
217.27        75.74689
217.73        74.76031
218.19        74.05019
218.65        71.91072
219.11        67.53492
219.57        60.50307
220.02        51.62957
220.48        46.45523
220.94        47.82997
221.40          54.291
221.86        60.12883
222.32        59.43771
222.77        53.02357
223.23         44.5131
223.69        37.34591
224.15        35.01738
224.61        37.12356
225.06        41.91164
225.52         46.9342
225.98        49.31511
226.44        48.52557
226.90        45.84441
227.36         42.8227
227.81        41.49764
228.27        42.54117
228.73        44.92029
229.19         47.7641
229.65        49.83068
230.10        50.73656
230.56         50.9957
231.02        50.87939
231.48        50.64603
231.93        50.38834
232.39        50.04548
232.85        49.69088
233.31        49.52064
233.77        49.55987
234.22        49.78625
234.68        50.08941
235.14        50.16234
235.60        49.94112
236.05        49.56538
236.51        49.16384
236.97        48.88785
237.43        48.79414
237.88        48.85611
238.34        49.15864
238.80        50.05296
239.26        51.55998
239.71        53.70114
240.17        55.65737
240.63        56.53378
241.08        56.23416
241.54        54.95627
242.00        53.47825
242.46         52.8134
242.91        53.50245
243.37        56.21778
243.83        65.88727
244.28        99.91102
244.74        142.4419
245.20        124.2564
245.66        104.6157
246.11        97.90149
246.57        97.90901
247.03        104.6195
247.48        122.1859
247.94        96.40854
248.40        73.18315
248.85        67.95032
249.31        67.96803
249.77        71.00667
250.22        76.86233
250.68        86.80161
251.14        100.4944
251.59        108.5339
252.05        102.1728
252.51        86.03315
252.96        69.56652
253.42        61.25731
253.88        60.40122
254.33        63.87888
254.79         70.0253
255.25        75.89831
255.70        80.10867
256.16        83.62302
256.62        85.46258
257.07        84.53916
257.53         81.7032
257.99        77.19608
258.44        72.63319
258.90        70.83099
259.35        70.88519
259.81        71.84349
260.27        71.80077
260.72        68.92043
261.18        64.04121
261.63         58.0059
262.09        52.59718
262.55        49.18585
263.00        47.65457
263.46        47.36454
263.91        47.21603
264.37        46.33517
264.83        44.55817
265.28        42.15364
265.74        39.84373
266.19        38.45678
266.65        38.21944
267.11        38.64191
267.56        39.08148
268.02        38.81482
268.47        37.70922
268.93        36.02785
269.38        34.14032
269.84        32.89837
270.30        32.53457
270.75        32.81332
271.21        33.26862
271.66        33.20467
272.12        32.46239
272.57        31.28228
273.03        30.09794
273.48        29.46501
273.94        29.51775
274.39        29.99327
274.85        30.54237
275.31        30.65315
275.76         30.2018
276.22        29.39586
276.67        28.46861
277.13         27.8516
277.58        27.58158
278.04         27.5472
278.49        27.50869
278.95         27.2015
279.40        26.55684
279.86        25.74902
280.31        24.92019
280.77        24.38684
281.22        24.16338
281.68        24.16004
282.13        24.23082
282.59         24.2126
283.04        24.05207
283.50        23.83977
283.95        23.58452
284.41        23.32054
284.86        23.05912
285.32        22.79128
285.77        22.57829
286.22        22.57904
286.68        22.78033
287.13        23.10891
287.59        23.39049
288.04        23.35231
288.50         22.9796
288.95        22.35311
289.41        21.67491
289.86        21.14462
290.32        20.87304
290.77        20.78133
291.22        20.83691
291.68        20.95016
292.13        21.09265
292.59         21.2924
293.04        21.56232
293.50        21.92105
293.95        22.34937
294.40        22.80023
294.86        23.22224
295.31        23.55437
295.77        23.79054
296.22        23.95906
296.68        24.08488
297.13         24.1816
297.58        24.28406
298.04        24.40563
298.49        24.60199
298.95        24.99165
299.40        25.57151
299.85        26.29849
300.31        27.04955
300.76        27.63918
301.21        28.00746
301.67        28.23307
302.12        28.35829
302.58        28.50362
303.03        28.68568
303.48        28.87424
303.94        29.12068
304.39        29.47021
304.84        29.92056
305.30        30.45033
305.75        30.92011
306.20        31.12495
306.66        31.05541
307.11        30.76795
307.57        30.43806
308.02        30.25571
308.47          30.296
308.93        30.49681
309.38        30.77485
309.83        31.02695
310.29        31.20384
310.74        31.32869
311.19        31.40767
311.65        31.44769
312.10        31.45172
312.55        31.41192
313.00        31.31661
313.46        31.16318
313.91        30.95272
314.36        30.71265
314.82        30.50364
315.27        30.39825
315.72        30.41558
316.18        30.52854
316.63        30.68152
317.08        30.75955
317.53        30.72719
317.99        30.60557
318.44        30.45233
318.89        30.36304
319.35        30.35323
319.80        30.40007
320.25        30.42975
320.70        30.32618
321.16        30.07081
321.61        29.70638
322.06        29.32574
322.51        29.06759
322.97        28.95254
323.42        28.94781
323.87        28.96734
324.32         28.8682
324.78         28.6141
325.23        28.26088
325.68        27.87946
326.13        27.58827
326.59        27.41843
327.04        27.35112
327.49         27.3472
327.94        27.34612
328.39        27.32506
328.85        27.29254
329.30        27.28418
329.75        27.31646
330.20        27.39233
330.66        27.47965
331.11        27.57253
331.56        27.62029
332.01        27.60819
332.46        27.53737
332.92        27.42826
333.37        27.35398
333.82         27.3251
334.27        27.34182
334.72        27.35097
335.17        27.26141
335.63        27.05734
336.08        26.77265
336.53        26.51231
336.98        26.44872
337.43        26.61093
337.88        26.94722
338.34        27.29191
338.79        27.42103
339.24        27.25595
339.69        26.86588
340.14        26.41866
340.59        26.20901
341.05        26.30473
341.50        26.60933
341.95        26.97161
342.40        27.17136
342.85        27.15541
343.30        27.00776
343.75        26.78269
344.20        26.57612
344.66        26.42844
345.11        26.26959
345.56        26.14439
346.01        26.12091
346.46        26.19183
346.91        26.36082
347.36        26.47133
347.81        26.26732
348.26        25.73397
348.72        24.98952
349.17        24.26614
349.62        24.02496
350.07        24.36164
350.52        25.11033
350.97        26.00619
351.42        26.64483
351.87        26.90471
352.32        26.89695
352.77        26.70999
353.22         26.4918
353.67        26.30291
354.13        26.09712
354.58        25.87744
355.03         25.6945
355.48        25.55866
355.93        25.48878
356.38        25.44258
356.83        25.33356
357.28         25.1421
357.73        24.88189
358.18        24.61618
358.63        24.44714
359.08        24.39365
359.53        24.42947
359.98        24.45964
360.43        24.33756
360.88        24.03986
361.33        23.61097
361.78        23.18322
362.23        22.97142
362.68        23.01238
363.13        23.22476
363.58        23.45414
364.03        23.46008
364.48        23.18904
364.93        22.72983
365.38         22.1945
365.83        21.76088
366.28        21.49374
366.73        21.34141
367.18        21.28481
367.63        21.29366
368.08        21.33826
368.53        21.42236
368.98        21.50654
369.43        21.52232
369.88        21.45586
370.33        21.32484
370.78        21.14476
371.23        20.95337
371.68        20.77282
372.13        20.59186
372.58         20.4593
373.03        20.45278
373.48        20.57602
373.93         20.8037
374.38        21.03177
374.83        21.09787
375.28        20.96878
375.72        20.67828
376.17        20.34751
376.62        20.13709
377.07        20.09325
377.52        20.16355
377.97        20.27356
378.42        20.30479
378.87         20.2222
379.32        20.06683
379.77         19.8825
380.22         19.7261
380.67        19.61245
381.11        19.52507
381.56        19.43077
382.01        19.28805
382.46        19.09224
382.91        18.86131
383.36        18.64687
383.81        18.52605
384.26        18.51256
384.71        18.58181
385.15        18.65771
385.60        18.64184
386.05        18.50512
386.50        18.26842
386.95        18.00824
387.40        17.85991
387.85        17.85748
388.29        17.95421
388.74        18.06108
389.19        18.03387
389.64        17.85527
390.09        17.56398
390.54         17.2753
390.98        17.18084
391.43        17.32573
391.88        17.62882
392.33        17.93752
392.78        18.02962
393.23        17.87564
393.67        17.55411
394.12        17.22036
394.57        17.02868
395.02          17.014
395.47         17.1158
395.91        17.27592
396.36        17.36881
396.81         17.3562
397.26        17.26979
397.71        17.14108
398.15        16.99587
398.60        16.87637
399.05        16.78005
399.50        16.69119
399.95         16.5418
400.39        16.40219
400.84        16.23114
401.29        16.10601
401.74        16.13042
402.18          16.328
402.63        16.63807
403.08        16.96161
403.53        17.14068
403.97        17.13464
404.42        16.98673
404.87        16.76354
405.32        16.58616
405.76         16.4958
406.21        16.46384
406.66        16.46423
407.11        16.46343
407.55        16.45284
408.00        16.44147
408.45        16.42765
408.90        16.39407
409.34        16.34068
409.79        16.27442
410.24        16.21479
410.68        16.19052
411.13        16.21067
411.58        16.26631
412.03        16.34602
412.47         16.4314
412.92         16.4988
413.37        16.54977
413.81        16.58229
414.26         16.6119
414.71        16.63317
415.15        16.64557
415.60        16.62405
416.05        16.54888
416.49        16.42118
416.94         16.2644
417.39        16.10775
417.83        15.99972
418.28        15.96225
418.73        15.97243
419.17        16.02404
419.62        16.09903
420.07        16.18587
420.51        16.28715
420.96        16.36194
421.41        16.34108
421.85          16.212
422.30        16.01846
422.74        15.81832
423.19        15.73026
423.64        15.76163
424.08        15.89162
424.53        16.04989
424.98        16.14262
425.42        16.14612
425.87        16.07753
426.31         15.9803
426.76        15.97048
427.21        16.04346
427.65        16.05728
428.10        16.05094
428.54        16.18645
428.99        16.46242
429.44        16.80499
429.88         17.0699
430.33        17.08502
430.77        16.82917
431.22         16.3583
431.66        15.87364
432.11        15.74899
432.56        16.01236
433.00        16.47149
433.45        16.91485
433.89        17.18549
434.34        17.16138
434.78        16.74723
435.23        16.23252
435.67        16.17916
436.12         16.5398
436.57        16.72771
437.01        16.65897
437.46        16.60952
437.90        16.60073
438.35        16.55798
438.79        16.48228
439.24        16.42211
439.68        16.39555
440.13        16.31915
440.57        16.24656
441.02        16.48313
441.46        16.90368
441.91        16.90043
442.35        16.52014
442.80        16.34282
443.24        16.34328
443.69        16.29323
444.13        16.17145
444.58        15.95098
445.02        15.71612
445.47        15.79082
445.91        16.08873
446.36        16.17626
446.80        16.01349
447.24        15.84055
447.69         15.7256
448.13        15.66742
448.58        15.69217
449.02        15.79114
449.47        15.91736
449.91        15.99482
450.36        16.00465
450.80        15.96165
451.25          15.909
451.69        15.90195
452.13        15.95551
452.58        16.03963
453.02        16.11937
453.47        16.13968
453.91        16.09336
454.36        16.00748
454.80         15.9065
455.24        15.82821
455.69        15.79553
456.13        15.78592
456.58        15.81992
457.02        15.90491
457.46        16.03966
457.91        16.20912
458.35        16.36471
458.79         16.4236
459.24        16.38104
459.68        16.25021
460.13        16.09809
460.57        15.98927
461.01        15.96156
461.46         15.9911
461.90        16.05339
462.34        16.09908
462.79         16.1092
463.23        16.09035
463.68         16.0757
464.12        16.12035
464.56        16.23272
465.01        16.40345
465.45        16.53496
465.89         16.5445
466.34         16.4354
466.78        16.14832
467.22        15.83165
467.67         15.8842
468.11        16.26307
468.55        16.47818
468.99        16.46215
469.44        16.44094
469.88        16.46427
470.32        16.59345
470.77        16.77623
471.21        16.80784
471.65        16.67068
472.10        16.52909
472.54        16.43339
472.98        16.40992
473.42         16.4767
473.87        16.63275
474.31        16.81403
474.75         16.9129
475.20        16.91179
475.64        16.83396
476.08        16.74352
476.52        16.73993
476.97        16.84462
477.41        17.02583
477.85        17.21833
478.29        17.35082
478.74        17.40278
479.18        17.31216
479.62        17.13711
480.06        17.25668
480.50        17.33178
480.95        17.39889
481.39        17.32416
481.83        17.26266
482.27        17.21599
482.72        17.03641
483.16        16.80804
483.60        16.89323
484.04        17.29965
484.48        17.52415
484.93        17.75719
485.37        18.18769
485.81        18.68594
486.25        18.79209
486.69        24.56908
487.14        19.56729
487.58        12.97942
488.02        16.03332
488.46        18.12308
488.90        18.20096
489.34        18.34349
489.79        18.21562
490.23         18.9845
490.67        19.51148
491.11        19.50306
491.55        19.39075
491.99        19.14426
492.43        18.93619
492.88        18.85036
493.32        18.90321
493.76        18.96321
494.20        19.17537
494.64         19.4767
495.08        19.82459
495.52        20.18237
495.96         20.5206
496.41        20.76888
496.85        20.90861
497.29        20.94852
497.73         20.7004
498.17         20.4197
498.61        20.61138
499.05        21.27542
499.49        21.41597
499.93        21.54368
500.37        21.68757
500.82         21.7777
501.26        22.01423
501.70        22.28262
502.14        22.40538
502.58        22.36342
503.02        22.34104
503.46        22.35113
503.90        22.28013
504.34        22.16749
504.78        22.13065
505.22        22.18733
505.66        22.31362
506.10        22.46478
506.54        22.56074
506.98        22.58235
507.42        22.55577
507.86        22.53588
508.30        22.60804
508.74         22.7858
509.18        23.03221
509.62        23.29118
510.06        23.47225
510.50        23.55116
510.94        23.56415
511.38        23.53736
511.82         23.5115
512.26         23.5052
512.70        23.49903
513.14        23.51775
513.58        23.60391
514.02        23.74653
514.46        23.92645
514.90        24.07691
515.34        24.05571
515.78        23.81721
516.22        23.56076
516.66        23.37576
517.10        22.97214
517.54         22.3816
517.98        23.14856
518.42        22.97989
518.86        23.35211
519.30        23.55665
519.74        23.81236
520.18        24.04557
520.62        24.10973
521.06        24.01175
521.50        23.77032
521.93        23.48236
522.37        23.32083
522.81        23.32861
523.25        23.45807
523.69        23.63635
524.13        23.74743
524.57        23.75642
525.01        23.69744
525.45        23.60386
525.89         23.5284
526.32        23.48515
526.76        23.45463
527.20        23.41292
527.64         23.3353
528.08        23.22199
528.52         23.0657
528.96        22.88802
529.40        22.78193
529.83        22.76998
530.27         22.5952
530.71        22.67271
531.15        22.59383
531.59        22.48471
532.03        22.34559
532.46          22.235
532.90        22.24647
533.34        22.38268
533.78        22.60558
534.22        22.82327
534.66          22.902
535.09         22.8113
535.53        22.60448
535.97        22.35215
536.41        22.17253
536.85        22.10419
537.28        22.11633
537.72        22.17611
538.16        22.23057
538.60        22.26194
539.04        22.27221
539.47         22.2797
539.91        22.36589
540.35        22.51189
540.79        22.61214
541.22        22.65898
541.66        22.73383
542.10        22.83432
542.54        22.90279
542.97        22.96027
543.41        23.07845
543.85        23.25924
544.29        23.49357
544.72        23.71733
545.16        23.83988
545.60        23.84688
546.04        23.76439
546.47          23.696
546.91        23.81597
547.35        24.14324
547.79        24.62462
548.22        25.11604
548.66        25.37104
549.10        25.35474
549.53        25.18344
549.97        24.99718
550.41        24.94891
550.84        25.09137
551.28        25.38725
551.72        25.77109
552.15        26.12073
552.59        26.38462
553.03        26.59412
553.46        26.75175
553.90        26.88402
554.34        27.00669
554.77        27.07983
555.21        27.10928
555.65         27.1919
556.08        27.34852
556.52        27.22442
556.96        27.45755
557.39        27.53297
557.83         27.6478
558.27        27.77621
558.70        27.91899
559.14        28.07148
559.57        28.21661
560.01        28.33314
560.45        28.40227
560.88        28.46775
561.32        28.51544
561.75        28.38509
562.19        28.16602
562.63        28.09019
563.06        28.17632
563.50         28.3149
563.93        28.47263
564.37         28.6511
564.80        28.82056
565.24        28.98901
565.68        29.13051
566.11        29.20804
566.55        29.24258
566.98        29.24076
567.42         29.2558
567.85        29.36632
568.29        29.60389
568.72        29.85354
569.16         30.1278
569.60        30.53567
570.03        30.93085
570.47        31.01302
570.90        30.90453
571.34        30.48631
571.77        30.91342
572.21        30.90587
572.64        30.90818
573.08        30.45582
573.51        29.68381
573.95        31.00346
574.38        32.88517
574.82        32.11405
575.25         31.7492
575.69        30.71271
576.12        30.45472
576.56        30.04683
576.99        31.02817
577.42         32.4515
577.86         32.0838
578.29        31.85367
578.73        33.39973
579.16        30.78861
579.60        28.22249
580.03        29.54067
580.47        31.54314
580.90        31.79598
581.33        31.13667
581.77        30.90363
582.20        33.75684
582.64        33.17404
583.07        28.35708
583.51        27.78574
583.94        27.36419
584.37        28.49041
584.81        29.64713
585.24        30.99435
585.68        31.63547
586.11        31.04651
586.54        28.86593
586.98        28.13563
587.41        28.36037
587.85        29.75109
588.28         30.5292
588.71        29.09791
589.15        28.13556
589.58        28.53183
590.01        28.81136
590.45        29.22753
590.88        29.41767
591.31        29.09991
591.75        28.99007
592.18        29.11098
592.61        29.77766
593.05        30.22923
593.48        31.32968
593.91        31.51192
594.35        29.16168
594.78        28.70187
595.21        28.68242
595.65         30.1134
596.08        31.41263
596.51        30.34782
596.94        29.62795
597.38        30.14613
597.81        31.70564
598.24        32.31779
598.68        31.83421
599.11        32.01136
599.54        33.32122
599.97        34.46104
600.41        32.44051
600.84        32.85848
601.27        33.84562
601.70        33.74256
602.14        33.98667
602.57        33.90558
603.00        34.64619
603.43        35.85114
603.87        37.04567
604.30        37.09834
604.73        36.25268
605.16        36.23183
605.60        37.26312
606.03        38.35845
606.46        39.15613
606.89        39.36141
607.32        38.87706
607.76        39.04958
608.19        40.67872
608.62        40.35151
609.05        39.88903
609.48        40.48847
609.92        40.84906
610.35        40.77062
610.78        42.65075
611.21        43.31808
611.64        41.68777
612.07        42.41579
612.50        43.00664
612.94        43.63286
613.37         43.6395
613.80        43.97343
614.23        44.64122
614.66        44.88784
615.09         45.3585
615.52        45.51734
615.96        45.44982
616.39        45.97159
616.82        45.62249
617.25        45.48548
617.68        46.56587
618.11        47.11553
618.54        47.41655
618.97        47.33459
619.40        47.09929
619.84         47.3071
620.27         47.9171
620.70        48.43298
621.13        48.73227
621.56         48.5098
621.99        47.98196
622.42        48.59177
622.85         49.9796
623.28        49.80384
623.71        49.60814
624.14        49.33044
624.57        49.09645
625.00        48.98111
625.43        48.93802
625.86        48.47397
626.29        48.52247
626.72        48.69018
627.15        48.43686
627.58        48.45443
628.01         48.4563
628.44        48.34901
628.87        48.17812
629.30        48.02307
629.73        47.81301
630.16        48.04671
630.59        47.58278
631.02        46.97463
631.45        46.40759
631.88        45.85759
632.31        45.48061
632.74        45.12524
633.17        44.77549
633.60        44.43477
634.03        44.08663
634.46        43.73156
634.89        43.36904
635.32        42.99852
635.75        42.62053
636.18        42.23537
636.61         41.8372
637.04        41.41588
637.47        40.96899
637.89        40.50356
638.32        40.03409
638.75        39.61059
639.18        39.25027
639.61        38.95792
640.04         38.6995
640.47        38.39491
640.90        38.04253
641.33        37.70153
641.76        37.39637
642.18        37.18712
642.61        37.08844
643.04        37.00739
643.47        36.89737
643.90        37.15232
644.33        36.99031
644.76        37.04678
645.18        37.08564
645.61         37.1125
646.04        37.12139
646.47         37.1072
646.90        37.13611
647.33        37.29749
647.75        37.62408
648.18        38.09289
648.61        38.57398
649.04        38.94118
649.47        39.13939
649.89         38.9517
650.32        38.67769
650.75        39.14567
651.18        40.29344
651.61        41.25594
652.03         41.7961
652.46        42.23498
652.89        42.80254
653.32        42.96389
653.74        42.93962
654.17        44.66541
654.60        45.56989
655.03        44.56188
655.46        45.63266
655.88        48.58348
656.31         52.4005
656.74        116.8943
657.16        76.04079
657.59        26.87362
658.02        20.73833
658.45        36.76579
658.87         47.8437
659.30        50.12979
659.73        50.11411
660.15         48.3602
660.58        50.96279
661.01        52.56055
661.44        51.05649
661.86        50.79541
662.29        51.20501
662.72        52.08598
663.14        53.24585
663.57        53.45092
664.00        52.87885
664.42        52.95153
664.85        53.74066
665.27        54.31395
665.70        54.50467
666.13         54.5934
666.55        54.56536
666.98        54.34446
667.41        54.07373
667.83        54.02441
668.26        54.25949
668.69        54.67617
669.11        55.10152
669.54        55.52092
669.96        55.36009
670.39        55.12775
670.82        54.84097
671.24        54.78918
671.67        55.06212
672.09        55.56493
672.52        56.06601
672.94        56.59055
673.37         56.1615
673.80        56.10389
674.22        56.19591
674.65        56.25109
675.07        56.26571
675.50        56.24987
675.92        56.25437
676.35        56.38444
676.77        56.64875
677.20        56.95888
677.62        57.26185
678.05        57.46239
678.47        57.52578
678.90        57.54031
679.32        57.48388
679.75        57.41978
680.17        57.57165
680.60        57.72804
681.02        57.89225
681.45        57.92398
681.87        57.80888
682.30         57.6407
682.72        57.50129
683.15        57.40978
683.57        57.47638
684.00        57.84179
684.42        58.55531
684.85        58.90697
685.27        58.88902
685.70          58.714
686.12        58.48744
686.54        58.46187
686.97        58.70335
687.39         58.6522
687.82        59.11411
688.24          59.219
688.66        59.18747
689.09        59.05209
689.51        58.92228
689.94        58.93103
690.36        59.10976
690.78        59.40953
691.21        59.74759
691.63         59.9972
692.06        60.12202
692.48        60.17484
692.90        60.19765
693.33        60.21736
693.75        60.24905
694.17        60.32533
694.60        60.47536
695.02        60.46749
695.44        60.65587
695.87        60.92892
696.29        61.33957
696.71        61.15079
697.14        60.57883
697.56        61.01735
697.98        62.21289
698.41        62.12672
698.83        61.39411
699.25        60.94194
699.68        61.04639
700.10        61.06519
700.52        61.01888
700.94        61.25137
701.37        61.67313
701.79        62.04411
702.21        62.27553
702.64        62.43769
703.06        62.50532
703.48        62.43172
703.90        62.24304
704.33        61.96212
704.75        61.67205
705.17        61.58652
705.59        61.74812
706.01        61.99312
706.44        62.23398
706.86        62.80211
707.28        62.79952
707.70        63.09106
708.12        63.35569
708.55        63.07198
708.97        62.42846
709.39        62.42172
709.81         63.0176
710.23        63.25898
710.66        63.09089
711.08        63.11817
711.50        63.30349
711.92        63.32124
712.34        63.16147
712.76        62.90835
713.19        62.67181
713.61        62.65665
714.03        62.89014
714.45        63.29781
714.87          63.723
715.29        63.92303
715.71        63.84036
716.13        63.55038
716.56        63.18158
716.98        62.97181
717.40         62.9824
717.82        63.14396
718.24        63.37416
718.66        63.53299
719.08        63.57727
719.50        63.55524
719.92        63.50115
720.34        63.48351
720.76        63.52799
721.19        63.50607
721.61        63.61435
722.03        63.73022
722.45        63.90109
722.87        64.11158
723.29        64.33543
723.71          64.522
724.13         64.6502
724.55        64.72955
724.97        64.75765
725.39        64.73786
725.81        64.67979
726.23        64.58692
726.65        64.49328
727.07        64.44875
727.49        64.47086
727.91        64.56216
728.33        64.68692
728.75        64.78004
729.17        64.81918
729.59        64.80633
730.01        64.80314
730.43        64.90199
730.85        65.11952
731.27        65.45068
731.69        65.76542
732.10        65.83607
732.52        65.62273
732.94        65.23371
733.36         64.8844
733.78        64.79482
734.20        65.02243
734.62        65.77869
735.04        66.77049
735.46        66.84487
735.88        66.19086
736.30        66.36147
736.72        67.35877
737.13        67.76682
737.55        67.37962
737.97        67.36987
738.39        67.73136
738.81        67.11891
739.23          65.951
739.65        66.66188
740.06        68.78764
740.48        69.01131
740.90        67.41692
741.32        66.68884
741.74        67.08138
742.16        67.30296
742.57        67.39951
742.99        68.09982
743.41        69.17746
743.83        69.82134
744.25        69.90424
744.67         69.6891
745.08        69.38426
745.50        69.27431
745.92        69.46046
746.34        69.84743
746.75        70.29572
747.17        70.52773
747.59        70.49638
748.01         70.3782
748.42        70.29369
748.84        70.25271
749.26        70.40009
749.68        70.97954
750.09        71.83096
750.51        72.51588
750.93        72.85222
751.35        72.64595
751.76        72.09418
752.18        71.90733
752.60        72.08409
753.01        72.08957
753.43        71.97536
753.85        71.80811
754.27        72.41574
754.68        72.93188
755.10        73.47594
755.52        73.97797
755.93         74.3689
756.35        74.59669
756.77         74.7329
757.18        74.79918
757.60        74.80265
758.02        75.08512
758.43         75.4266
758.85        74.75267
759.26        73.34695
759.68         73.2997
760.10        74.49911
760.51        74.91399
760.93        74.36525
761.34        73.16691
761.76        72.90601
762.18        72.52747
762.59        72.58532
763.01        73.22846
763.42        74.32568
763.84        75.09811
764.26        75.38266
764.67         75.3732
765.09        75.12825
765.50        74.86467
765.92        74.56522
766.33         73.5574
766.75        72.24591
767.16        71.97332
767.58        72.84721
768.00        74.15891
768.41         75.6132
768.83        76.95239
769.24        77.60227
769.66        76.91406
770.07        75.39173
770.49        73.75751
770.90        72.54382
771.32        73.53136
771.73        75.99576
772.15        75.71896
772.56        73.08939
772.97        72.45481
773.39        73.75613
773.80        74.40808
774.22        73.50133
774.63        73.45815
775.05         74.0024
775.46        74.30458
775.88        74.25628
776.29        74.10562
776.70        73.94454
777.12         73.9289
777.53        74.10791
777.95        74.36479
778.36        74.57272
778.77        74.52277
779.19        74.21719
779.60        73.73199
780.02        73.25103
780.43        73.16251
780.84        73.58875
781.26        73.92583
781.67         74.1498
782.09        75.27554
782.50        76.70971
782.91        75.75635
783.33        73.14584
783.74        72.31908
784.15        73.45683
784.57        74.36878
784.98        74.67431
785.39        74.84597
785.81        74.76965
786.22        74.19995
786.63        73.51066
787.04         73.3421
787.46        73.80621
787.87        74.80882
788.28        75.97018
788.70        76.50497
789.11        76.24787
789.52        75.57697
789.93        74.80367
790.35        74.17811
790.76        73.90049
791.17        74.21519
791.58        74.92652
792.00        75.34796
792.41        75.34108
792.82        75.24754
793.23        75.24603
793.65        75.11181
794.06           75.02
794.47        75.91737
794.88        77.18597
795.29        76.63798
795.71        74.52605
796.12        72.75754
796.53         71.8537
796.94        71.50912
797.35         71.8245
797.76         72.9534
798.18         74.3753
798.59         75.2753
799.00         75.3239
799.41         74.6256
799.82        73.56075
800.23        72.86356
800.64        72.72092
801.06        72.83578
801.47        73.16042
801.88        73.51975
802.29        73.81969
802.70        74.14407
803.11        74.42806
803.52        74.53386
803.93        74.45388
804.34        74.18638
804.75        73.86828
805.17        73.83489
805.58        74.19407
805.99        74.55341
806.40        74.76378
806.81         75.3253
807.22        75.80567
807.63        74.60228
808.04        72.33525
808.45        71.40472
808.86         72.0369
809.27        73.06092
809.68        74.01797
810.09        74.56474
810.50        74.46738
810.91         73.8455
811.32        73.03244
811.73        72.56561
812.14        72.59186
812.55        72.92196
812.96        73.40073
813.37        73.74301
813.78        73.83778
814.19        73.83889
814.60        73.70544
815.01        73.34626
815.42        72.78938
815.83        72.02312
816.24        71.34357
816.65        71.27975
817.05        71.97153
817.46        73.23034
817.87        74.58955
818.28        75.19756
818.69        74.82568
819.10        73.67303
819.51        72.28693
819.92         71.6091
820.33        71.89066
820.74        72.85931
821.14        74.00877
821.55        74.41524
821.96        73.89046
822.37        72.76279
822.78        71.50932
823.19        70.82504
823.60        70.89504
824.00         71.5423
824.41        72.41893
824.82        73.03679
825.23        73.18178
825.64         73.0199
826.04        72.71915
826.45         72.5224
826.86        72.49704
827.27        72.52239
827.68        72.55005
828.08        72.54713
828.49        72.44257
828.90        72.34377
829.31        72.20882
829.72        71.94524
830.12        71.59012
830.53        71.14416
830.94        70.83591
831.35        70.97832
831.75        71.64127
832.16        72.67391
832.57        73.79095
832.97        74.39855
833.38        74.26244
833.79        73.57627
834.20        72.69468
834.60        72.15775
835.01        72.12967
835.42        72.42873
835.82        72.87144
836.23        73.06475
836.64        72.92595
837.04        72.61887
837.45         72.2422
837.86        71.94593
838.26         71.7975
838.67        71.69133
839.08        71.68808
839.48        71.89548
839.89        72.27321
840.29        72.79605
840.70        73.25982
841.11        73.33418
841.51        72.97497
841.92        72.26018
842.33         71.4526
842.73         71.0019
843.14        70.99541
843.54        71.34592
843.95        71.79315
844.35        71.96098
844.76         71.7329
845.17        71.25424
845.57        70.71703
845.98         70.4103
846.38        70.40827
846.79        70.58649
847.19        70.85368
847.60        70.97843
848.00        70.92574
848.41        70.75071
848.81        70.54672
849.22        70.36717
849.62        70.28857
850.03        70.29573
850.43        70.41669
850.84        70.63651
851.24        70.96941
851.65        71.23746
852.05        71.57936
852.46        72.05063
852.86        72.63645
853.27        73.34618
853.67        73.67622
854.07         72.9754
854.48        71.29293
854.88        68.88373
855.29        66.61819
855.69        65.75993
856.10        66.55494
856.50        68.82973
856.90        71.81207
857.31        73.67764
857.71        73.80106
858.12        72.62078
858.52          70.939
858.92        69.82199
859.33        69.52536
859.73        69.75039
860.13        70.33342
860.54        70.94954
860.94        71.49736
861.34        72.06924
861.75        72.61426
862.15        73.11294
862.55        73.51646
862.96        73.78515
863.36        73.92033
863.76        73.92924
864.17        73.83891
864.57         73.7154
864.97        73.66463
865.38        73.83541
865.78        74.28957
866.18        74.89625
866.58        75.55155
866.99        76.06309
867.39        76.40397
867.79        76.64875
868.19        76.64466
868.60        76.12393
869.00        75.10055
869.40        73.68234
869.80        72.50639
870.21         72.5421
870.61        74.05264
871.01        76.75594
871.41        79.79204
871.81        81.66476
872.22        81.96455
872.62        81.09118
873.02         79.8174
873.42        79.59161
873.82        80.52636
874.22         81.7839
874.63        83.04378
875.03        83.64948
875.43        83.22994
875.83        83.05615
876.23        81.36395
876.63        80.46658
877.03        80.19138
877.44        80.62817
877.84        105.4168
878.24        86.75741
878.64        87.38067
879.04        88.27431
879.44        83.70568
879.84        81.30313
880.24        85.97071
880.64        87.86553
881.04        87.94018
881.44        87.74596
881.84        87.09876
882.24        86.02134
882.65        85.19083
883.05        85.11852
883.45        85.89075
883.85        87.62307
884.25        89.68361
884.65        90.67168
885.05         90.2066
885.45        88.78619
885.85        87.14185
886.25        86.26913
886.65        86.39787
887.05        87.20876
887.45        88.38776
887.85        89.36919
888.25        89.90144
888.65         90.1628
889.04        90.20993
889.44        90.17131
889.84        90.07996
890.24        89.83347
890.64        89.50251
891.04        89.23293
891.44        89.04877
891.84        88.97335
892.24        88.87518
892.64        88.49019
893.04        87.84958
893.44        87.13933
893.83        86.62142
894.23        86.66976
894.63        87.31997
895.03        88.37113
895.43         89.7202
895.83        91.14651
896.23        92.45146
896.63        93.66566
897.02        94.38114
897.42        93.98491
897.82         92.4947
898.22        90.18293
898.62        87.88915
899.01        86.84045
899.41        87.28206
899.81        88.79723
900.21        90.71942
900.61        91.94012
901.00        92.11395
901.40        91.57866
901.80        90.66653
902.20        89.89967
902.59        89.45881
902.99        89.15563
903.39        88.90947
903.79        88.61542
904.18        88.25581
904.58        87.98284
904.98        87.85638
905.38        87.92637
905.77        88.17234
906.17        88.51257
906.57        88.90621
906.96        89.36264
907.36        89.78032
907.76         90.1515
908.15        90.34541
908.55        90.04485
908.95        89.27364
909.34        88.12514
909.74        86.94028
910.14        86.07107
910.53        85.65588
910.93        85.65668
911.33        86.02888
911.72        86.67651
912.12        87.41122
912.52        88.16425
912.91        88.86364
913.31         89.4427
913.70        89.95032
914.10        90.38315
914.49        90.58515
914.89        90.19362
915.29        89.20763
915.68        87.78543
916.08        86.58527
916.47        86.12705
916.87        86.45022
917.26        87.40734
917.66        88.44244
918.05        88.68643
918.45         87.9375
918.84        86.51665
919.24        85.06589
919.64        84.50572
920.03        85.06798
920.42        86.45071
920.82        88.16341
921.21        89.48271
921.61        89.96851
922.00        89.87136
922.40        89.31016
922.79        88.48084
923.19        87.57587
923.58        86.39899
923.98        84.99773
924.37        84.15875
924.77        84.34274
925.16        82.26393
925.55        83.91944
925.95        84.82574
926.34        86.66621
926.74        88.90842
927.13        91.04126
927.52        91.93343
927.92        91.42782
928.31         89.9248
928.70        87.82118
929.10        85.82755
929.49        84.20482
929.89        82.83022
930.28        82.08624
930.67        82.60023
931.07        84.27357
931.46        86.96986
931.85        89.66415
932.24        90.80569
932.64        90.08458
933.03        87.76132
933.42        84.56922
933.82        82.22224
934.21        81.29201
934.60        81.36238
934.99         81.7891
935.39        81.96658
935.78        81.80392
936.17        81.01655
936.56        79.32178
936.96        80.66602
937.35        79.09052
937.74         79.3599
938.13        79.76575
938.53        80.80667
938.92          82.537
939.31         85.0439
939.70        87.72075
940.09        88.72475
940.49        87.46089
940.88        84.68711
941.27         81.7576
941.66        80.27634
942.05         80.4436
942.44        81.72847
942.84        83.56178
943.23        85.00319
943.62        85.57594
944.01        85.56258
944.40        85.07348
944.79         84.2394
945.18        83.13663
945.57        81.64142
945.97        79.92454
946.36        78.56833
946.75        77.97169
947.14        78.03176
947.53        78.53549
947.92        79.21733
948.31        80.01429
948.70        81.04692
949.09        82.10707
949.48        82.66774
949.87        82.49824
950.26        81.62844
950.65        80.57687
951.04        80.19215
951.43        80.64157
951.82        81.72118
952.21        82.79679
952.60        82.81055
952.99        81.56223
953.38        79.44784
953.77        77.23652
954.16        76.02981
954.55         76.0645
954.94        77.04253
955.33        78.29745
955.72        78.71972
956.11        78.00874
956.50        76.45829
956.89        74.80044
957.28        74.36636
957.66        75.61414
958.05         77.9095
958.44        80.37323
958.83        81.71565
959.22        81.60366
959.61        80.36298
960.00        78.64764
960.39        77.51112
960.78        77.27513
961.16        77.71455
961.55        78.19714
961.94        77.65438
962.33        75.93276
962.72        73.52703
963.11        71.37142
963.49        70.67053
963.88        71.61787
964.27        73.94016
964.66        76.82551
965.04        78.47795
965.43        78.11667
965.82        76.35973
966.21        74.29579
966.60        73.35349
966.98        73.81745
967.37        75.20215
967.76        76.90227
968.15        77.76524
968.53        77.40741
968.92        76.22857
969.31        74.81527
969.69        73.88656
970.08         73.6209
970.47          73.822
970.86        74.13506
971.24        73.96935
971.63        73.16703
972.02        71.90558
972.40        70.73967
972.79        70.62339
973.17        71.91145
973.56        74.24775
973.95        76.86882
974.33        78.29788
974.72        77.99921
975.11        76.43631
975.49          74.549
975.88        73.64371
976.26        73.94032
976.65        75.15791
977.04        76.58086
977.42        76.50957
977.81        74.43575
978.19         71.1303
978.58        68.30916
978.96        67.64234
979.35        69.37547
979.74        73.16187
980.12        78.20034
980.51        81.53645
980.89        82.17288
981.28        80.76147
981.66        78.55569
982.05        77.18774
982.43        76.95154
982.82        77.29605
983.20        77.94121
983.59        78.54683
983.97        79.04124
984.35        79.59657
984.74        79.94325
985.12        79.81684
985.51        78.93943
985.89         77.2643
986.28        75.21463
986.66        73.31258
987.04        71.99922
987.43        71.32912
987.81        70.82731
988.20        69.73692
988.58        67.71159
988.96        64.30587
989.35        60.09394
989.73         58.5447
990.12        61.93165
990.50        68.66696
990.88        74.48701
991.27        76.18179
991.65        74.25272
992.03        69.66196
992.42        64.32117
992.80        61.64567
993.18        62.74999
993.56        65.77716
993.95        69.19256
994.33         71.8384
994.71        73.30765
995.10        74.38069
995.48        74.81661
995.86          73.955
996.24        71.74766
996.63        67.97103
997.01        63.88033
997.39        63.21715
997.77        67.38955
998.15        75.31792
998.54         83.3725
998.92        86.77627
999.30        84.18546
999.68        76.84657
1000.06        66.73529
1000.45        58.88756
1000.83        55.64511
1001.21        55.56788
1001.59        57.56174
1001.97        60.45718
1002.35        63.88126
1002.73        68.87112
1003.12        74.25298
1003.50        75.76774
1003.88        71.59106
1004.26        63.61224
1004.64        55.91655
1005.02        52.13712
1005.40        52.52211
1005.78        56.72963
1006.16        65.25189
1006.54        73.76495
1006.92        76.72169
1007.30        75.67122
1007.69        73.23459
1008.07        71.09663
1008.45        68.90575
1008.83        64.90305
1009.21        54.93855
1009.59         27.2696
1009.97       -36.48741
1010.35       -105.8896
1010.73       -73.05491
1011.11       -17.79831
1011.49         17.1218
1011.86        40.47003
1012.24        53.04069
1012.62        57.97562
1013.00        58.28321
1013.38        54.85048
1013.76        49.58076
1014.14        49.66155
1014.52        61.18836
1014.90        85.97663
1015.28        116.7583
1015.66        131.3062
1016.04        116.5718
1016.41        78.02998
1016.79         37.3559
1017.17        16.85452
1017.55        14.93356
1017.93        20.28992
1018.31        27.06256
1018.69        32.65007
1019.06        37.32086
1019.44        42.05799
1019.82        49.04631
1020.20        61.48551
1020.58        83.24483
1020.95        122.2678
1021.33        193.0848
1021.71       -560.0494
1022.09        67.64883
1022.46        110.0933
1022.84        128.7378
1023.22        143.8996
1023.60         170.956
1023.97        410.4863
1024.35         10.6028
1024.73         59.5427
