SpectraSmart Spectrum 2.9.0.0
--------- Device Information -----------
Spectrum Name :  反射率_0
Saving Time :  2024/04/25 22:51:42
Spectro-Module Model Name : SE2030-DUVN
Spectro-Module Serial Number : OS361AC55029948
Wavelength Start : 200
Wavelength End : 1025
Wavelength Unit : Wavelength(nm)
Spectrum Unit : Reflectance(%)
-----------Spectrum Setting ------------
Integration Time : 20ms
Average : 10
Boxcar : 0
Background removal :  enabled
linearity correction :  enabled
SC :  disabled
Intensity correction :  disabled
DWT denoise :  enabled
savitzky-golay :  disabled
FFT :  disabled
Running average :  disabled
Kalman :  disabled
High pass :  disabled
---------------BEGIN--------------------
Wavelength(nm)             Reflectance(%)
200.29               0
200.75         101.054
201.21        95.09785
201.67        87.68749
202.13         82.7487
202.58        80.85468
203.04         81.3893
203.50           82.84
203.96        82.77203
204.42        80.86879
204.88        78.20352
205.34        76.14134
205.80        76.09625
206.26         78.7078
206.72        85.52677
207.18         99.2528
207.64        111.3944
208.10        103.4022
208.55        86.76405
209.01        76.14977
209.47        72.33942
209.93        72.50144
210.39        75.47266
210.85        79.22823
211.31        79.67321
211.77        75.73585
212.23        68.80048
212.69        63.13172
213.14        65.41295
213.60        76.23707
214.06        93.29169
214.52         110.323
214.98        117.9375
215.44        114.3972
215.90        103.3947
216.36        90.16525
216.81         82.0447
217.27        80.93526
217.73        84.12118
218.19        88.55219
218.65        90.50827
219.11        88.85936
219.57        83.79496
220.02        76.62005
220.48        73.36892
220.94        76.78046
221.40        84.59932
221.86        90.28047
222.32        87.51008
222.77        77.82838
223.23        65.93401
223.69        56.38988
224.15        53.81569
224.61        57.59056
225.06        65.28885
225.52        73.58604
225.98        78.22732
226.44        78.35531
226.90        75.62183
227.36        72.20275
227.81        71.05843
228.27        73.02928
228.73        76.67704
229.19        80.53459
229.65        82.52731
230.10         82.3025
230.56        81.09357
231.02        79.67659
231.48        78.88424
231.93        78.81729
232.39        79.13616
232.85        79.78564
233.31        80.85053
233.77        82.21761
234.22        83.92022
234.68        85.37897
235.14        85.46348
235.60        83.95488
236.05        81.28893
236.51        78.28984
236.97          76.042
237.43         74.7623
237.88        74.21776
238.34        74.23969
238.80         74.7767
239.26        75.65104
239.71        77.24055
240.17        78.47742
240.63        78.08142
241.08        75.98244
241.54        72.45742
242.00        68.95608
242.46        67.39095
242.91        68.77322
243.37        74.83117
243.83        94.58571
244.28        151.9398
244.74         201.689
245.20        155.9062
245.66        122.5979
246.11        113.0684
246.57         115.868
247.03        134.0021
247.48        189.6208
247.94         159.597
248.40         99.4549
248.85        81.40423
249.31        76.73146
249.77        77.77737
250.22        82.59988
250.68        91.58705
251.14        104.7379
251.59        114.1622
252.05        111.4705
252.51        100.1993
252.96          87.009
253.42        78.39714
253.88        74.17666
254.33        72.14713
254.79        73.04669
255.25        77.27917
255.70        83.35004
256.16        90.27934
256.62          95.228
257.07        95.34296
257.53        91.70926
257.99        85.59946
258.44        79.28233
258.90        76.33751
259.35        75.92599
259.81        76.72968
260.27        76.84187
260.72        74.45345
261.18        70.30882
261.63        65.17728
262.09        60.51584
262.55        57.25702
263.00        55.35698
263.46        54.43974
263.91        53.78899
264.37        53.00684
264.83        51.87919
265.28        50.46813
265.74         49.1105
266.19        47.99682
266.65        47.33228
267.11        46.93392
267.56        46.54652
268.02        45.89876
268.47         44.8867
268.93        43.63776
269.38        42.32307
269.84        41.43933
270.30        41.10801
270.75        41.20347
271.21        41.44479
271.66        41.40842
272.12        40.98124
272.57        40.26857
273.03        39.52583
273.48        39.04557
273.94        38.91927
274.39        38.99006
274.85        39.05158
275.31        38.77456
275.76        38.09662
276.22        37.18785
276.67        36.23755
277.13         35.6335
277.58        35.37868
278.04        35.37885
278.49         35.3921
278.95        35.17333
279.40        34.62981
279.86        33.92402
280.31        33.13525
280.77        32.51399
281.22        32.06832
281.68        31.75974
282.13        31.50604
282.59        31.25329
283.04        30.95927
283.50        30.68452
283.95        30.39497
284.41        30.07281
284.86        29.70076
285.32        29.28603
285.77        28.88351
286.22        28.65019
286.68        28.58244
287.13        28.61316
287.59        28.58432
288.04        28.23717
288.50        27.57676
288.95        26.68491
289.41         25.7889
289.86        25.11424
290.32        24.76773
290.77        24.64285
291.22        24.67251
291.68         24.7143
292.13        24.72109
292.59        24.73902
293.04        24.77874
293.50        24.86213
293.95        24.98635
294.40         25.1137
294.86        25.24042
295.31         25.3754
295.77        25.52249
296.22        25.68774
296.68        25.84854
297.13        25.93613
297.58        25.96338
298.04        25.97322
298.49        26.04279
298.95        26.32517
299.40         26.8347
299.85        27.51836
300.31        28.27205
300.76        28.94193
301.21         29.4622
301.67        29.89182
302.12        30.23333
302.58        30.55117
303.03        30.84918
303.48        31.12036
303.94        31.42626
304.39        31.82785
304.84        32.33633
305.30        32.92467
305.75        33.48473
306.20        33.86111
306.66        34.04339
307.11        34.06487
307.57        34.03988
308.02        34.06261
308.47         34.1934
308.93        34.39811
309.38        34.64674
309.83        34.92608
310.29        35.20612
310.74        35.47482
311.19        35.69836
311.65        35.82207
312.10        35.83385
312.55        35.75562
313.00        35.59268
313.46        35.36833
313.91        35.09957
314.36        34.80647
314.82        34.56937
315.27        34.48813
315.72        34.58292
316.18        34.81812
316.63         35.0996
317.08        35.24598
317.53        35.20311
317.99        35.00528
318.44        34.74753
318.89        34.58865
319.35        34.55921
319.80        34.62139
320.25         34.6657
320.70        34.51683
321.16        34.14603
321.61        33.62164
322.06        33.08024
322.51        32.72404
322.97        32.58612
323.42        32.61324
323.87         32.6847
324.32        32.59922
324.78        32.30225
325.23        31.87139
325.68         31.3977
326.13        31.03266
326.59        30.82031
327.04         30.7336
327.49         30.7326
327.94        30.75792
328.39        30.78261
328.85        30.81166
329.30        30.87302
329.75        30.96247
330.20        31.07298
330.66        31.17157
331.11        31.25087
331.56        31.25896
332.01         31.1848
332.46        31.03278
332.92        30.83226
333.37         30.6817
333.82        30.60007
334.27        30.58636
334.72        30.58967
335.17        30.51788
335.63        30.34894
336.08         30.1148
336.53        29.90227
336.98        29.85644
337.43        30.00132
337.88        30.29347
338.34         30.5809
338.79        30.66782
339.24        30.48453
339.69        30.09156
340.14        29.65977
340.59        29.48668
341.05        29.63575
341.50        30.00859
341.95        30.42925
342.40        30.64251
342.85        30.58951
343.30        30.35951
343.75        30.04008
344.20        29.78582
344.66        29.65527
345.11        29.56832
345.56        29.52403
346.01        29.51999
346.46        29.53647
346.91        29.59405
347.36        29.59912
347.81        29.39452
348.26        28.97799
348.72         28.4311
349.17        27.89503
349.62        27.68275
350.07        27.86088
350.52        28.31989
350.97        28.89338
351.42        29.32498
351.87        29.53191
352.32        29.58103
352.77        29.50573
353.22        29.36512
353.67        29.19164
354.13        28.96924
354.58        28.72216
355.03        28.53264
355.48        28.41971
355.93         28.3829
356.38        28.37003
356.83        28.28563
357.28        28.10479
357.73        27.84529
358.18        27.56949
358.63        27.37634
359.08        27.28591
359.53        27.27408
359.98        27.25001
360.43        27.07382
360.88        26.72463
361.33        26.24602
361.78        25.77268
362.23        25.52179
362.68        25.53134
363.13        25.72239
363.58        25.93362
364.03        25.91306
364.48        25.60502
364.93        25.09855
365.38        24.51951
365.83        24.06963
366.28        23.81467
366.73         23.6918
367.18        23.65643
367.63        23.63738
368.08        23.59818
368.53        23.56143
368.98        23.51147
369.43        23.41407
369.88        23.26878
370.33         23.0863
370.78        22.88227
371.23        22.69431
371.68        22.53882
372.13        22.39947
372.58        22.31395
373.03        22.34073
373.48         22.4737
373.93        22.68943
374.38        22.87723
374.83        22.86643
375.28        22.63061
375.72         22.2147
376.17        21.76644
376.62        21.48979
377.07        21.44242
377.52        21.55772
377.97         21.7499
378.42        21.87725
378.87        21.89112
379.32        21.83802
379.77        21.73876
380.22        21.61991
380.67        21.49479
381.11        21.34928
381.56        21.19587
382.01        21.07009
382.46        20.98125
382.91        20.92746
383.36        20.88927
383.81        20.82903
384.26        20.73879
384.71        20.63106
385.15        20.51652
385.60         20.4257
386.05        20.35453
386.50        20.28756
386.95        20.22001
387.40        20.14711
387.85        20.07448
388.29        20.01152
388.74         19.9587
389.19        19.87806
389.64         19.7669
390.09        19.62157
390.54        19.50363
390.98        19.51421
391.43        19.67066
391.88        19.92739
392.33        20.16194
392.78        20.19417
393.23        20.01205
393.67        19.67997
394.12        19.36095
394.57        19.21676
395.02        19.28342
395.47         19.5038
395.91        19.80607
396.36        20.02896
396.81        20.11815
397.26        20.10304
397.71        20.02776
398.15        19.94104
398.60        19.89026
399.05        19.86259
399.50        19.82463
399.95        19.67573
400.39        19.50128
400.84        19.26488
401.29        19.07149
401.74        19.06616
402.18        19.28628
402.63        19.65431
403.08        20.06044
403.53        20.32848
403.97        20.40919
404.42        20.35347
404.87        20.20571
405.32        20.04928
405.76        19.92274
406.21        19.81079
406.66        19.73905
407.11        19.75233
407.55        19.85778
408.00        20.04675
408.45        20.26125
408.90        20.36829
409.34        20.33022
409.79        20.18877
410.24        20.03177
410.68        19.98806
411.13        20.09029
411.58        20.29761
412.03        20.55267
412.47        20.75512
412.92        20.85018
413.37        20.86981
413.81        20.84587
414.26        20.84614
414.71        20.88032
415.15        20.92987
415.60        20.95767
416.05        20.92558
416.49        20.83112
416.94         20.7104
417.39        20.59311
417.83        20.52481
418.28        20.52529
418.73        20.56145
419.17         20.6438
419.62        20.78721
420.07        20.98027
420.51        21.22085
420.96        21.41625
421.41         21.4102
421.85        21.18163
422.30        20.81751
422.74        20.45456
423.19        20.33061
423.64        20.46884
424.08         20.8116
424.53        21.22668
424.98        21.50919
425.42        21.59366
425.87        21.52443
426.31         21.3708
426.76        21.30385
427.21        21.33389
427.65        21.26836
428.10        21.18406
428.54        21.34631
428.99        21.75556
429.44        22.28762
429.88        22.72789
430.33        22.81402
430.77        22.51308
431.22        21.92387
431.66        21.28174
432.11        21.07961
432.56        21.36581
433.00        21.73832
433.45        22.03522
433.89          22.638
434.34        23.26059
434.78          22.882
435.23        21.91306
435.67        21.78894
436.12        22.44578
436.57        22.68659
437.01        22.42914
437.46        22.32476
437.90        22.42697
438.35        22.54999
438.79        22.63756
439.24        22.66674
439.68        22.63943
440.13        22.48164
440.57        22.30103
441.02        22.55546
441.46         23.0898
441.91         23.0879
442.35        22.60904
442.80        22.37074
443.24        22.36819
443.69        22.43036
444.13        22.48219
444.58        22.26905
445.02        21.88867
445.47        21.89586
445.91        22.21355
446.36        22.27816
446.80        22.05563
447.24        21.86425
447.69         21.7714
448.13         21.7376
448.58        21.78482
449.02        21.91309
449.47        22.06968
449.91        22.16769
450.36        22.18785
450.80        22.14854
451.25        22.09701
451.69        22.09418
452.13        22.15926
452.58        22.25864
453.02        22.36661
453.47        22.44942
453.91        22.49602
454.36        22.52258
454.80        22.52357
455.24         22.4826
455.69        22.41532
456.13        22.32168
456.58        22.25484
457.02        22.25978
457.46        22.35479
457.91        22.51572
458.35         22.7005
458.79        22.83972
459.24        22.92242
459.68        22.94756
460.13        22.95282
460.57        22.94882
461.01        22.96388
461.46        22.98854
461.90        23.01602
462.34        23.03473
462.79        23.03521
463.23         23.0154
463.68         23.0085
464.12        23.07632
464.56        23.22362
465.01        23.44965
465.45        23.62973
465.89        23.66705
466.34        23.56708
466.78        23.23409
467.22        22.85551
467.67        22.96697
468.11        23.49941
468.55        23.75628
468.99        23.67048
469.44        23.61777
469.88        23.67925
470.32        23.92467
470.77        24.26248
471.21         24.3638
471.65        24.19414
472.10        24.00391
472.54        23.86432
472.98        23.80143
473.42        23.84577
473.87        23.99918
474.31         24.2015
474.75        24.35501
475.20        24.43826
475.64        24.46397
476.08        24.47207
476.52        24.52265
476.97        24.63155
477.41        24.78024
477.85        24.92058
478.29        25.02723
478.74        25.09414
479.18        25.00804
479.62        24.83054
480.06        25.07589
480.50        25.24027
480.95        25.38919
481.39        25.32297
481.83        25.26448
482.27        25.21431
482.72        24.93883
483.16        24.57629
483.60        24.69389
484.04        25.31458
484.48        25.64059
484.93        25.90822
485.37         26.4724
485.81        27.13259
486.25        26.76221
486.69        35.02009
487.14        27.76565
487.58        18.24849
488.02        22.73457
488.46        25.88411
488.90        25.91801
489.34        26.48948
489.79        26.31117
490.23        27.51115
490.67        28.07095
491.11        27.76394
491.55        27.66059
491.99        27.67005
492.43        27.54282
492.88        27.35354
493.32        27.44121
493.76        27.60812
494.20         27.9015
494.64        28.22686
495.08        28.58389
495.52        28.94748
495.96        29.29655
496.41        29.55567
496.85        29.72697
497.29        29.81537
497.73        29.49675
498.17        29.12112
498.61        29.43818
499.05        30.42269
499.49        30.59045
499.93        30.66498
500.37        30.70705
500.82        30.66998
501.26        30.91185
501.70        31.29046
502.14        31.53737
502.58        31.58384
503.02        31.62013
503.46        31.64545
503.90        31.51809
504.34        31.32483
504.78        31.28115
505.22        31.42176
505.66          31.693
506.10        32.00422
506.54        32.18138
506.98        32.17978
507.42        32.08908
507.86        32.01919
508.30         31.9651
508.74        32.23679
509.18        32.54976
509.62        32.89908
510.06        33.13722
510.50        33.22524
510.94        33.21352
511.38        33.14244
511.82        33.08012
512.26        33.05522
512.70        33.04366
513.14        33.06432
513.58         33.1512
514.02        33.29376
514.46        33.47742
514.90        33.64972
515.34         33.6941
515.78        33.56755
516.22        33.43573
516.66         33.3576
517.10        33.05157
517.54        32.54052
517.98        33.18068
518.42        32.99339
518.86        33.28629
519.30         33.4528
519.74         33.6749
520.18         33.9005
520.62        34.01996
521.06        34.03638
521.50        33.96027
521.93        33.83552
522.37        33.74516
522.81        33.71404
523.25        33.71983
523.69        33.74981
524.13        33.78327
524.57         33.8084
525.01        33.83209
525.45        33.84227
525.89        33.81669
526.32           33.75
526.76        33.65118
527.20        33.53259
527.64        33.42567
528.08         33.3479
528.52        33.26272
528.96        33.16356
529.40        33.13174
529.83        33.18218
530.27        32.95241
530.71        33.07653
531.15        33.00444
531.59        32.92749
532.03        32.83066
532.46        32.75705
532.90        32.76981
533.34        32.86705
533.78         33.0272
534.22        33.17707
534.66        33.21018
535.09        33.10097
535.53        32.89506
535.97        32.65638
536.41         32.4953
536.85        32.44571
537.28         32.4817
537.72        32.55577
538.16        32.59414
538.60        32.57849
539.04         32.5088
539.47        32.43431
539.91        32.51182
540.35        32.71846
540.79         32.8915
541.22        32.99291
541.66        33.09773
542.10        33.19225
542.54        33.20903
542.97        33.19925
543.41        33.29715
543.85        33.51572
544.29         33.8295
544.72         34.1409
545.16        34.31286
545.60        34.31837
546.04        34.19711
546.47        34.08895
546.91        34.22631
547.35        34.63694
547.79          35.252
548.22        35.87635
548.66        36.18121
549.10        36.12021
549.53        35.85042
549.97         35.5685
550.41        35.49293
550.84        35.69475
551.28        36.12001
551.72        36.65482
552.15          37.085
552.59        37.33328
553.03        37.48134
553.46        37.57817
553.90         37.6727
554.34        37.78429
554.77        38.07786
555.21        38.11549
555.65        38.31546
556.08        38.56722
556.52        38.39263
556.96        38.69754
557.39        38.77214
557.83        38.90177
558.27        39.03993
558.70        39.19419
559.14        39.35808
559.57         39.5096
560.01        39.66939
560.45        39.79771
560.88        39.83167
561.32        39.79479
561.75        39.68594
562.19        39.59039
562.63         39.5852
563.06        39.68076
563.50        39.86226
563.93        40.07187
564.37        40.23888
564.80        40.32909
565.24        40.38027
565.68         40.4124
566.11        40.46117
566.55        40.56479
566.98        40.69571
567.42        40.86044
567.85        41.06719
568.29        41.33292
568.72        41.52559
569.16        41.70041
569.60        42.07356
570.03        42.46339
570.47        42.41836
570.90        42.11766
571.34        41.50522
571.77        42.03715
572.21        42.04463
572.64        42.01809
573.08        41.48932
573.51        40.14507
573.95        41.86499
574.38        44.37439
574.82        43.63157
575.25        42.98372
575.69        41.55248
576.12        41.01664
576.56        40.82993
576.99        41.79895
577.42        43.57834
577.86        43.62278
578.29        43.28102
578.73        45.28787
579.16        41.69896
579.60        38.30283
580.03        40.10441
580.47        42.73376
580.90        43.14283
581.33        42.33164
581.77        41.89088
582.20        45.46593
582.64        44.86855
583.07        38.39962
583.51        37.75076
583.94        37.23086
584.37        39.03088
584.81        40.99472
585.24        42.84967
585.68        43.42473
586.11        42.38334
586.54        39.48125
586.98        38.51622
587.41        38.83926
587.85        40.66631
588.28        42.01257
588.71        39.83619
589.15        38.66056
589.58        39.77844
590.01        39.90699
590.45        40.82804
590.88        40.92643
591.31        40.58159
591.75        40.54822
592.18         40.7023
592.61        41.50416
593.05        41.97799
593.48        43.68337
593.91        43.71857
594.35         40.1235
594.78         39.5551
595.21        39.93546
595.65         42.0032
596.08        43.50499
596.51        41.93621
596.94        41.04904
597.38        41.71901
597.81        43.60021
598.24        44.70364
598.68        44.34472
599.11        43.71839
599.54        45.88342
599.97        47.15199
600.41        44.43388
600.84        44.91715
601.27        46.14571
601.70        45.79408
602.14        45.97866
602.57        45.88364
603.00        47.03619
603.43        48.57089
603.87        49.87302
604.30        49.84235
604.73        48.78283
605.16         48.7183
605.60        49.74457
606.03        51.15218
606.46        52.35266
606.89        52.47771
607.32        51.34032
607.76        51.52843
608.19        53.67207
608.62        53.32014
609.05        52.72656
609.48        53.61804
609.92        54.18943
610.35        53.96764
610.78        56.31897
611.21        56.69632
611.64        54.89495
612.07        55.76994
612.50        56.35148
612.94        57.11875
613.37        56.90228
613.80        57.20866
614.23        58.01751
614.66        58.03067
615.09        58.74132
615.52        59.04684
615.96        59.26662
616.39        59.66676
616.82        59.23453
617.25        59.39576
617.68        60.47802
618.11        61.12638
618.54        61.35947
618.97        61.18144
619.40        60.94652
619.84        61.03065
620.27        62.09959
620.70         62.8309
621.13        63.30375
621.56        62.61333
621.99        61.72575
622.42        62.80025
622.85        64.64883
623.28        64.48347
623.71        63.85823
624.14        63.56607
624.57        63.21296
625.00        63.09815
625.43        63.02271
625.86        62.47295
626.29        62.62659
626.72        62.93531
627.15        62.62172
627.58        62.63603
628.01        62.63755
628.44        62.58883
628.87        62.49036
629.30         62.4143
629.73        62.27275
630.16        62.15806
630.59        61.48285
631.02        60.83833
631.45         60.1623
631.88        59.59945
632.31        59.18462
632.74         58.8883
633.17        58.64787
633.60        58.33872
634.03        57.92704
634.46        57.45333
634.89        56.95109
635.32        56.47415
635.75         56.0448
636.18        55.64429
636.61        55.26664
637.04        54.90454
637.47        54.54737
637.89        54.20078
638.32        53.84669
638.75        53.49291
639.18        53.14392
639.61        52.80727
640.04        52.46894
640.47        52.10263
640.90        51.71241
641.33        51.30883
641.76        50.92577
642.18        50.69276
642.61        50.62866
643.04        50.58281
643.47           50.48
643.90        50.85459
644.33        50.63228
644.76        50.67809
645.18        50.69027
645.61        50.70728
646.04        50.72997
646.47        50.74598
646.90        50.80827
647.33        50.98252
647.75         51.3024
648.18        51.73781
648.61        52.16999
649.04        52.54821
649.47        52.78464
649.89        52.51573
650.32         52.1133
650.75         52.5593
651.18         53.8199
651.61        55.12134
652.03        56.08332
652.46         56.5092
652.89        56.74358
653.32        56.79131
653.74        56.88337
654.17        58.84513
654.60        59.83322
655.03        58.27103
655.46        59.88988
655.88        64.07921
656.31        67.82834
656.74        146.8114
657.16        93.00966
657.59        32.90075
658.02        26.43445
658.45        47.47325
658.87        61.95717
659.30        64.62034
659.73         64.7917
660.15        63.08155
660.58        65.64739
661.01        67.66435
661.44         65.8757
661.86         65.4789
662.29        65.76492
662.72        66.92579
663.14        68.66762
663.57        68.84918
664.00        67.74548
664.42        67.65406
664.85        68.68277
665.27        69.40128
665.70        69.58679
666.13        69.67545
666.55        69.64658
666.98        69.38982
667.41        69.07848
667.83        69.03803
668.26        69.34222
668.69        69.86273
669.11        70.39554
669.54        70.95743
669.96        70.81699
670.39        70.59794
670.82        70.28634
671.24         70.2263
671.67        70.50925
672.09        70.97195
672.52        71.38367
672.94        71.93266
673.37        71.40277
673.80        71.40624
674.22        71.63197
674.65        71.81007
675.07        71.91105
675.50        71.95679
675.92        71.99393
676.35        72.13194
676.77         72.3835
677.20        72.63615
677.62        72.86502
678.05        73.03306
678.47        73.11867
678.90        73.16654
679.32        73.21419
679.75        73.14972
680.17        73.26064
680.60        73.41381
681.02        73.52343
681.45         73.4866
681.87        73.28618
682.30        73.32286
682.72        73.57767
683.15         73.4405
683.57        73.07544
684.00        73.57014
684.42        74.48725
684.85        74.95569
685.27        74.78776
685.70        74.63481
686.12        74.56398
686.54        74.37561
686.97        74.19252
687.39        74.37009
687.82        74.79116
688.24        75.06751
688.66        75.14542
689.09        74.98137
689.51        75.11143
689.94        75.23231
690.36        75.48963
690.78        75.67352
691.21        75.76511
691.63        75.98862
692.06        76.26366
692.48        76.21658
692.90        75.94365
693.33        75.90785
693.75        76.14943
694.17        76.43668
694.60        76.71513
695.02        76.96839
695.44        77.12729
695.87        77.37605
696.29        77.68624
696.71        77.48742
697.14        77.01445
697.56         77.4483
697.98        78.48345
698.41        78.73137
698.83        77.65968
699.25         77.2946
699.68        77.53561
700.10        77.61592
700.52        77.53259
700.94         77.7355
701.37        78.16386
701.79         78.5594
702.21        78.83507
702.64        79.06264
703.06        79.19592
703.48        79.15818
703.90        78.96621
704.33        78.64399
704.75        78.29204
705.17        78.17012
705.59        78.34457
706.01         78.6223
706.44         78.8757
706.86        79.57716
707.28        79.61222
707.70        79.83445
708.12        79.94113
708.55        79.96716
708.97        79.90421
709.39        79.75476
709.81        79.60187
710.23        79.57455
710.66         79.7049
711.08        79.99393
711.50        80.29919
711.92        80.40738
712.34        80.27592
712.76        79.95631
713.19        79.62052
713.61        79.58225
714.03        79.89031
714.45        80.44954
714.87        81.03091
715.29        81.26859
715.71        81.08144
716.13         80.6021
716.56        80.07359
716.98        79.80388
717.40        79.87049
717.82        80.38848
718.24        81.22424
718.66        81.04179
719.08        81.45183
719.50        81.20103
719.92        80.91365
720.34          80.743
720.76        80.76337
721.19        80.75805
721.61        80.92365
722.03        81.06287
722.45         81.2161
722.87          81.393
723.29        81.57204
723.71         81.7023
724.13        81.76767
724.55        81.77081
724.97          81.736
725.39        81.71289
725.81        81.71754
726.23        81.74364
726.65        81.77386
727.07        81.77621
727.49        81.75029
727.91        81.71604
728.33         81.7032
728.75        81.75808
729.17        81.88433
729.59        82.05431
730.01         82.2454
730.43        82.41182
730.85        82.54524
731.27        82.69144
731.69        82.80862
732.10        82.81298
732.52         82.6955
732.94        82.48831
733.36        82.33031
733.78        82.34939
734.20        82.58396
734.62         83.0853
735.04         84.2248
735.46         83.9118
735.88        82.74931
736.30        83.03398
736.72         84.7095
737.13        85.60986
737.55        85.29917
737.97        85.18056
738.39        85.32709
738.81        84.37532
739.23        82.91449
739.65         83.8405
740.06        86.54829
740.48        86.87994
740.90        84.93047
741.32        84.10093
741.74        84.68652
742.16        84.99262
742.57         85.0635
742.99        85.82365
743.41        87.03259
743.83        87.78055
744.25        87.91645
744.67        87.68089
745.08        87.31297
745.50         87.1982
745.92        87.45904
746.34        87.94086
746.75        88.50979
747.17        88.90952
747.59        89.07411
748.01        89.17947
748.42         89.3023
748.84         89.2902
749.26        89.29362
749.68        89.80191
750.09        90.64005
750.51        91.02853
750.93        90.90784
751.35         90.6125
751.76        90.28985
752.18        90.23134
752.60        90.36978
753.01        90.34178
753.43        90.25726
753.85        90.36217
754.27        90.61382
754.68        92.09927
755.10        92.68393
755.52        92.87566
755.93         93.5931
756.35        93.52902
756.77        93.35353
757.18        93.24976
757.60        93.31207
758.02         93.9183
758.43        94.53345
758.85         93.9208
759.26        91.27993
759.68        91.05615
760.10        92.63187
760.51        93.60538
760.93        93.60818
761.34        91.70042
761.76        92.19905
762.18        91.17277
762.59        90.28961
763.01          90.832
763.42        92.68922
763.84        93.81909
764.26        93.92852
764.67        93.92092
765.09        93.83884
765.50        93.66879
765.92        93.34843
766.33        92.01038
766.75        90.24873
767.16         89.9118
767.58         91.1563
768.00        93.13287
768.41        95.31848
768.83        96.84393
769.24        97.08064
769.66        95.90324
770.07        94.01501
770.49           92.04
770.90        90.57661
771.32        91.75568
771.73        94.68908
772.15        94.39384
772.56        91.35801
772.97        90.72506
773.39        92.37347
773.80         93.5741
774.22        92.39691
774.63        92.46584
775.05        93.20631
775.46        93.60955
775.88        93.54118
776.29        93.32571
776.70        93.09418
777.12        93.04015
777.53        93.23019
777.95        93.51824
778.36        93.75985
778.77         93.6953
779.19        93.32191
779.60        92.76563
780.02        92.22173
780.43        92.02325
780.84        92.35242
781.26        92.70064
781.67         93.0424
782.09         94.3764
782.50        96.00925
782.91        94.92786
783.33        91.99815
783.74        91.10782
784.15        92.44099
784.57        93.61785
784.98        94.19986
785.39        94.03304
785.81        93.93877
786.22        93.33409
786.63        92.85027
787.04        92.82589
787.46        93.34908
787.87        94.42038
788.28        95.62234
788.70        96.14181
789.11         95.8175
789.52        94.95272
789.93        93.95647
790.35        93.39123
790.76        93.40536
791.17        93.86591
791.58         94.5518
792.00        94.97808
792.41        94.98316
792.82        94.89506
793.23        94.87823
793.65        94.33659
794.06        93.66684
794.47        94.82812
794.88        96.94262
795.29        96.46721
795.71        93.68045
796.12        91.34016
796.53        90.18061
796.94        89.96525
797.35        90.74838
797.76          92.238
798.18         93.7808
798.59        94.84976
799.00        95.06354
799.41        94.22981
799.82        92.85155
800.23        92.05072
800.64         92.0675
801.06        92.47483
801.47        93.11147
801.88        93.59493
802.29        93.76761
802.70        93.78497
803.11        93.70361
803.52        93.57687
803.93        93.47173
804.34        93.34226
804.75        93.22609
805.17        93.36443
805.58         93.8429
805.99        94.06631
806.40        94.00583
806.81        94.91151
807.22        96.12453
807.63        94.75412
808.04        91.56244
808.45        90.23145
808.86         91.0574
809.27        92.14879
809.68        93.02476
810.09         93.6534
810.50        93.79896
810.91        93.50311
811.32        92.99635
811.73        92.65495
812.14        92.58971
812.55        92.64161
812.96        92.81229
813.37        93.09772
813.78        93.45245
814.19        93.94397
814.60        94.30476
815.01        94.10069
815.42        93.29002
815.83        91.96323
816.24        90.62949
816.65        90.18525
817.05        90.89799
817.46        92.47879
817.87        94.27449
818.28        95.10478
818.69        94.64249
819.10        93.16985
819.51        91.43481
819.92        90.70882
820.33        91.31335
820.74        92.86013
821.14        94.58489
821.55        95.13908
821.96        94.25244
822.37         92.4106
822.78        90.36713
823.19        89.22793
823.60        89.27901
824.00        90.23229
824.41        91.55136
824.82        92.44264
825.23        92.57099
825.64        92.22623
826.04        91.64502
826.45         91.1676
826.86        90.91155
827.27        90.71388
827.68        90.60408
828.08        90.70981
828.49        90.95815
828.90        91.42155
829.31        91.90766
829.72        92.02634
830.12        91.71832
830.53        91.07878
830.94         90.4433
831.35        90.28337
831.75        90.74265
832.16         91.6184
832.57        92.69974
832.97         93.5267
833.38        93.84028
833.79        93.77442
834.20        93.51475
834.60        93.34777
835.01        93.38013
835.42        93.49708
835.82        93.57453
836.23        93.32468
836.64        92.74889
837.04        92.00078
837.45         91.2701
837.86        90.84317
838.26        90.80802
838.67        91.02279
839.08        91.42496
839.48        91.87847
839.89         92.2518
840.29        92.58284
840.70        92.76012
841.11        92.59727
841.51          92.096
841.92        91.28635
842.33        90.42284
842.73         89.9467
843.14        89.93468
843.54        90.33303
843.95        90.84349
844.35        91.03225
844.76        90.76688
845.17        90.18802
845.57        89.55354
845.98        89.27309
846.38        89.43119
846.79        89.86401
847.19        90.36146
847.60        90.45034
848.00        90.06866
848.41        89.37568
848.81        88.64246
849.22        88.18378
849.62        88.15012
850.03        88.44351
850.43        89.02815
850.84        89.70579
851.24        90.41787
851.65        90.97587
852.05        91.51559
852.46        92.06874
852.86        92.62748
853.27        93.21422
853.67        93.30543
854.07        92.24992
854.48        90.13818
854.88        87.24077
855.29        84.56629
855.69        83.56053
856.10        84.49174
856.50        87.18887
856.90        90.69526
857.31        92.78214
857.71        92.71512
858.12        91.04961
858.52        88.82944
858.92        87.47201
859.33        87.29412
859.73        87.93358
860.13        89.09213
860.54        90.14418
860.94        90.89273
861.34        91.46722
861.75        91.94923
862.15        92.55205
862.55        93.26746
862.96        93.94508
863.36        94.42812
863.76        94.43666
864.17        93.94786
864.57        93.16484
864.97        92.36742
865.38        91.94804
865.78        92.05329
866.18        92.50116
866.58        93.17081
866.99        93.82375
867.39        94.41909
867.79        95.03853
868.19        95.47228
868.60        95.32262
869.00         94.5727
869.40        93.31052
869.80        92.18482
870.21        92.21818
870.61        93.70162
871.01        96.31669
871.41        99.23148
871.81        101.0037
872.22        101.2017
872.62        100.2433
873.02        98.87865
873.42        98.30614
873.82        98.82503
874.22          100.15
874.63        101.7396
875.03        102.4745
875.43        101.8628
875.83         100.381
876.23        99.11158
876.63        99.08851
877.03         100.756
877.44        104.4399
877.84        96.96071
878.24        110.7228
878.64        108.8445
879.04        104.6941
879.44        102.6718
879.84        101.6424
880.24        101.9902
880.64        103.7317
881.04        106.7794
881.44        108.9878
881.84        108.9574
882.24          107.37
882.65         105.443
883.05        104.7985
883.45        105.7433
883.85        107.7528
884.25        110.0094
884.65        111.1202
885.05        110.6532
885.45        109.1932
885.85        107.5719
886.25        106.8844
886.65        107.3618
887.05        108.5952
887.45        110.1999
887.85        111.4865
888.25        112.1378
888.65        112.3969
889.04        112.2261
889.44        111.6174
889.84        110.6561
890.24        109.3321
890.64        108.0656
891.04        107.5178
891.44        107.7935
891.84        108.7597
892.24         109.914
892.64        110.3044
893.04         109.745
893.44        108.6303
893.83        107.4905
894.23        107.1208
894.63        107.6639
895.03        108.7928
895.43        110.3442
895.83        112.0011
896.23        113.5064
896.63        114.9274
897.02        115.8509
897.42        115.6144
897.82        114.2257
898.22         111.952
898.62        109.5985
899.01        108.3522
899.41        108.4916
899.81        109.6224
900.21        111.2035
900.61        112.3148
901.00         112.654
901.40        112.5312
901.80        112.1311
902.20        111.7468
902.59        111.5084
902.99        111.2561
903.39        111.0697
903.79        111.1156
904.18        111.4074
904.58        111.9654
904.98        112.5802
905.38         112.907
905.77        112.8457
906.17         112.478
906.57        112.0238
906.96        111.8727
907.36        112.0477
907.76        112.4607
908.15         112.814
908.55        112.5069
908.95        111.4894
909.34        109.9212
909.74         108.373
910.14        107.5526
910.53        107.6757
910.93        108.6086
911.33        109.9091
911.72        110.7679
912.12        110.8824
912.52        110.4565
912.91        110.0095
913.31         110.277
913.70         111.434
914.10        113.3047
914.49        115.3088
914.89        115.7611
915.29        114.1805
915.68        111.1999
916.08        108.3112
916.47        106.8742
916.87        107.0742
917.26         108.448
917.66        110.1407
918.05         110.795
918.45        110.0414
918.84        108.3818
919.24        106.6401
919.64        105.9845
920.03        106.7254
920.42        108.4576
920.82        110.5505
921.21        112.0973
921.61        112.5909
922.00        112.3492
922.40        111.6448
922.79        110.7679
923.19         109.862
923.58        108.9985
923.98        108.2361
924.37        107.3002
924.77        106.3501
925.16        106.6602
925.55        106.3325
925.95        107.5452
926.34        109.6106
926.74        112.1394
927.13        114.4652
927.52        115.3846
927.92        114.7942
928.31        113.0534
928.70         110.691
929.10        108.6112
929.49        107.1141
929.89        105.9996
930.28        105.5306
930.67        106.1201
931.07        107.6107
931.46        109.9465
931.85        112.2048
932.24        112.9834
932.64        112.0195
933.03        109.5867
933.42        106.3961
933.82        104.1385
934.21        103.3539
934.60        103.6094
934.99        104.3921
935.39        104.9356
935.78        105.0962
936.17        105.4081
936.56        105.8053
936.96         104.874
937.35        104.3802
937.74        103.1626
938.13        102.4745
938.53        103.0639
938.92         104.922
939.31        107.9793
939.70        111.3869
940.09        112.8826
940.49        111.6332
940.88        108.5495
941.27        105.1304
941.66        103.1328
942.05        102.8335
942.44        103.6898
942.84        105.1882
943.23        106.5679
943.62        107.3796
944.01        107.8183
944.40        108.0155
944.79        108.1624
945.18        108.3157
945.57        108.3567
945.97         107.952
946.36        106.7479
946.75        104.9188
947.14        102.9539
947.53        101.4975
947.92        101.0466
948.31        101.5605
948.70        102.9315
949.09        104.7688
949.48          106.09
949.87        106.4104
950.26        105.8792
950.65        105.0433
951.04        104.8174
951.43        105.4011
951.82        106.4933
952.21        107.5008
952.60        107.4917
952.99        106.2945
953.38        104.3094
953.77        102.2289
954.16        101.0114
954.55        100.8847
954.94        101.6108
955.33        102.6438
955.72        103.0716
956.11        102.6424
956.50        101.5811
956.89        100.5013
957.28        100.5087
957.66        101.9529
958.05        104.2296
958.44        106.5099
958.83        107.5773
959.22        107.1422
959.61        105.5301
960.00        103.4189
960.39        101.9025
960.78        101.3313
961.16         101.498
961.55         101.802
961.94        101.2658
962.33        99.71275
962.72        97.56466
963.11        95.63457
963.49        94.96196
963.88         95.7113
964.27        97.66791
964.66        100.0189
965.04        101.0489
965.43        100.0718
965.82        97.73827
966.21        95.32917
966.60        94.50629
966.98        95.53317
967.37        97.84203
967.76        100.4798
968.15        101.6205
968.53        100.6996
968.92        98.38258
969.31        95.65228
969.69        93.75401
970.08        93.01872
970.47         93.1254
970.86        93.61531
971.24        93.72688
971.63        93.19183
972.02        92.24302
972.40        91.53195
972.79        92.09093
973.17        94.30247
973.56        97.69052
973.95        101.1622
974.33        102.6879
974.72        101.6547
975.11        98.74947
975.49        95.45306
975.88        93.75359
976.26        93.95658
976.65        95.63483
977.04        97.70904
977.42        97.60284
977.81        94.52113
978.19        89.68694
978.58        85.49264
978.96        84.34408
979.35        86.56955
979.74        91.55759
980.12        98.27679
980.51        102.9797
980.89        104.2496
981.28         103.012
981.66        100.4404
982.05        98.13677
982.43        96.54269
982.82        95.20892
983.20        94.46598
983.59        94.99067
983.97        96.93629
984.35         100.379
984.74        104.3403
985.12        106.7637
985.51        106.3251
985.89        103.4587
986.28        99.25008
986.66        95.67638
987.04        93.76672
987.43        93.15098
987.81        93.36703
988.20        93.95208
988.58        94.82065
988.96        96.31313
989.35         98.8566
989.73        102.9211
990.12        106.9489
990.50        109.8794
990.88        110.6123
991.27        109.1768
991.65        105.9881
992.03        101.1527
992.42        95.85413
992.80        92.39525
993.18        91.74407
993.56        92.84876
993.95        94.57419
994.33        95.89764
994.71        96.45925
995.10          96.811
995.48        96.74931
995.86        95.79487
996.24        93.90636
996.63        90.85776
997.01         87.6426
997.39        87.08765
997.77        90.25787
998.15        96.30914
998.54         102.491
998.92        105.2971
999.30        103.7001
999.68        98.71387
1000.06        91.64808
1000.45        85.94939
1000.83        83.21789
1001.21        82.36266
1001.59        83.13155
1001.97        85.34067
1002.35        88.80418
1002.73        94.43536
1003.12        100.3081
1003.50        100.7135
1003.88        93.45005
1004.26        81.51823
1004.64        70.80639
1005.02        66.34492
1005.40        68.56218
1005.78        77.56355
1006.16         93.6786
1006.54        107.3942
1006.92         109.407
1007.30        104.2895
1007.69        98.51733
1008.07        95.96809
1008.45        96.92716
1008.83        101.1972
1009.21        111.6819
1009.59        131.7892
1009.97        152.1251
1010.35        137.3623
1010.73        95.53228
1011.11        80.43118
1011.49        79.96629
1011.86        83.87055
1012.24          86.738
1012.62        87.21088
1013.00        85.88002
1013.38        82.80751
1013.76         80.3637
1014.14        86.66285
1014.52        108.2905
1014.90        147.3015
1015.28         193.709
1015.66        219.2169
1016.04        206.1198
1016.41        158.8822
1016.79        101.8596
1017.17        64.39061
1017.55        49.96634
1017.93         46.7037
1018.31        49.15747
1018.69        55.25692
1019.06         64.9977
1019.44        81.01865
1019.82        106.8589
1020.20        140.9969
1020.58        179.9764
1020.95        221.4119
1021.33        280.9768
1021.71       -828.9292
1022.09        37.86624
1022.46        80.04436
1022.84        92.28526
1023.22        98.88011
1023.60         107.211
1023.97        158.1995
1024.35        77.10455
1024.73        88.69534
