SpectraSmart Spectrum 2.9.0.0
--------- Device Information -----------
Spectrum Name :  反射率_0
Saving Time :  2024/04/25 22:48:10
Spectro-Module Model Name : SE2030-DUVN
Spectro-Module Serial Number : OS361AC55029948
Wavelength Start : 200
Wavelength End : 1025
Wavelength Unit : Wavelength(nm)
Spectrum Unit : Reflectance(%)
-----------Spectrum Setting ------------
Integration Time : 20ms
Average : 10
Boxcar : 0
Background removal :  enabled
linearity correction :  enabled
SC :  disabled
Intensity correction :  disabled
DWT denoise :  enabled
savitzky-golay :  disabled
FFT :  disabled
Running average :  disabled
Kalman :  disabled
High pass :  disabled
---------------BEGIN--------------------
Wavelength(nm)             Reflectance(%)
200.29               0
200.75        95.19559
201.21        90.59515
201.67        84.51857
202.13         80.4306
202.58        78.90483
203.04        79.46692
203.50        80.75858
203.96        80.64194
204.42        78.86669
204.88        76.35024
205.34        74.52084
205.80        74.93216
206.26        78.40058
206.72         87.0887
207.18        104.3332
207.64        119.0134
208.10        108.2366
208.55        87.10747
209.01        74.07559
209.47        70.20741
209.93        71.76631
210.39        76.95049
210.85        83.18307
211.31        84.87046
211.77        80.28384
212.23        71.66833
212.69          63.346
213.14        61.94081
213.60        68.47944
214.06        80.91896
214.52        94.87145
214.98        103.6979
215.44        105.5535
215.90        102.5104
216.36        97.38847
216.81        93.96265
217.27        93.57881
217.73        95.04362
218.19          96.446
218.65        95.33284
219.11        90.82232
219.57        82.24919
220.02        71.72963
220.48        68.22817
220.94        75.71568
221.40        90.77433
221.86        102.8835
222.32        101.8179
222.77         89.8038
223.23        73.65764
223.69        60.11247
224.15        56.00272
224.61        60.56434
225.06        70.21949
225.52        80.65292
225.98        86.19722
226.44        85.70387
226.90         81.5164
227.36        76.20565
227.81        73.19685
228.27        73.62649
228.73        75.96835
229.19        79.13541
229.65        81.61673
230.10        82.87077
230.56        83.65765
231.02        84.19993
231.48        84.72726
231.93        85.28676
232.39        85.78989
232.85        86.25327
233.31        86.87733
233.77        87.62825
234.22         88.4651
234.68        89.05781
235.14        88.80272
235.60        87.60962
236.05        85.80625
236.51        83.74236
236.97        81.76629
237.43        79.89542
237.88        77.96425
238.34        76.10146
238.80        75.31911
239.26        76.09931
239.71        78.66997
240.17        81.48028
240.63        82.25436
241.08        80.52995
241.54        76.82601
242.00        72.94485
242.46        71.32922
242.91        73.32361
243.37        81.09272
243.83        105.3982
244.28        172.5825
244.74        224.2377
245.20        166.4677
245.66        127.8535
246.11        117.9559
246.57        123.6339
247.03        151.0343
247.48        238.3939
247.94        211.9987
248.40        122.5285
248.85        92.94096
249.31        83.52615
249.77         81.9883
250.22        84.70425
250.68        91.32236
251.14        101.1544
251.59        106.5385
252.05        100.8859
252.51        88.31654
252.96        76.21078
253.42        71.29988
253.88         72.8511
254.33        78.11442
254.79         85.4418
255.25        91.89389
255.70        96.20715
256.16        99.56657
256.62        101.3366
257.07        100.7747
257.53        98.75575
257.99        95.27002
258.44        91.58189
258.90        90.25424
259.35        90.25556
259.81        90.88828
260.27        90.42627
260.72        87.17831
261.18        82.11022
261.63        75.97929
262.09        70.44598
262.55        66.62502
263.00        64.43968
263.46        63.43891
263.91        62.76912
264.37        61.95908
264.83        60.74041
265.28        59.19205
265.74         57.6401
266.19        56.23382
266.65        55.23452
267.11        54.48511
267.56        53.76768
268.02        52.87139
268.47        51.67183
268.93        50.28572
269.38        48.86926
269.84        47.89963
270.30        47.49259
270.75        47.51843
271.21        47.70289
271.66        47.62608
272.12        47.17392
272.57        46.44743
273.03        45.66817
273.48        45.07209
273.94        44.75447
274.39        44.57158
274.85        44.39585
275.31        44.00502
275.76        43.34465
276.22        42.54843
276.67        41.70884
277.13        41.08524
277.58        40.65716
278.04        40.39336
278.49        40.12625
278.95        39.72828
279.40        39.12071
279.86        38.42863
280.31        37.67949
280.77        37.06084
281.22        36.55743
281.68        36.15889
282.13        35.79988
282.59        35.45964
283.04        35.09825
283.50        34.77065
283.95        34.42704
284.41        34.03415
284.86         33.5762
285.32        33.08065
285.77        32.61925
286.22        32.37848
286.68        32.35595
287.13        32.45687
287.59        32.51909
288.04        32.27202
288.50           31.71
288.95        30.91237
289.41         30.0663
289.86        29.32949
290.32        28.81576
290.77        28.44613
291.22        28.23422
291.68        28.15958
292.13        28.19419
292.59        28.34146
293.04        28.54374
293.50        28.71474
293.95        28.81681
294.40        28.84622
294.86        28.82454
295.31        28.79701
295.77        28.78733
296.22          28.792
296.68        28.79916
297.13        28.76205
297.58        28.69616
298.04        28.63772
298.49        28.65345
298.95        28.87719
299.40        29.30829
299.85        29.89157
300.31        30.50064
300.76        30.95187
301.21        31.18163
301.67        31.26394
302.12        31.23527
302.58        31.21131
303.03        31.20324
303.48        31.18844
303.94        31.20738
304.39        31.28655
304.84        31.43124
305.30        31.63298
305.75        31.79411
306.20        31.77536
306.66        31.57843
307.11        31.23691
307.57        30.88151
308.02        30.63148
308.47        30.54368
308.93        30.57595
309.38        30.66739
309.83        30.75367
310.29        30.79754
310.74        30.80692
311.19        30.78235
311.65        30.72228
312.10         30.6266
312.55        30.49657
313.00        30.31427
313.46        30.06551
313.91        29.75274
314.36        29.40444
314.82        29.10468
315.27        28.96253
315.72        28.99957
316.18        29.17852
316.63        29.40297
317.08        29.49083
317.53        29.39369
317.99        29.15337
318.44        28.87723
318.89        28.74089
319.35        28.77694
319.80        28.93356
320.25        29.09284
320.70        29.06337
321.16        28.80231
321.61        28.37796
322.06        27.90587
322.51        27.55816
322.97        27.37076
323.42        27.30077
323.87         27.2699
324.32        27.15041
324.78        26.90749
325.23        26.59385
325.68        26.26612
326.13        26.01472
326.59        25.86217
327.04        25.79529
327.49        25.77771
327.94        25.75573
328.39        25.71211
328.85        25.65386
329.30        25.62769
329.75        25.67241
330.20        25.79393
330.66        25.95288
331.11        26.12417
331.56        26.22685
332.01        26.23597
332.46        26.15833
332.92        26.02369
333.37        25.91975
333.82        25.86887
334.27        25.87457
334.72        25.88209
335.17        25.79671
335.63        25.60326
336.08        25.33333
336.53         25.1145
336.98        25.15284
337.43        25.47705
337.88        26.02337
338.34        26.56863
338.79        26.79435
339.24        26.60236
339.69        26.08745
340.14        25.49013
340.59        25.23462
341.05        25.42075
341.50        25.90584
341.95        26.47202
342.40        26.80261
342.85        26.81999
343.30        26.64169
343.75        26.34476
344.20        26.06281
344.66        25.85674
345.11        25.64553
345.56        25.48397
346.01        25.45726
346.46        25.55736
346.91        25.78459
347.36        25.96396
347.81        25.80687
348.26        25.28894
348.72        24.53482
349.17         23.7841
349.62        23.51321
350.07        23.82422
350.52        24.54701
350.97        25.41848
351.42        26.03679
351.87         26.2813
352.32        26.26614
352.77        26.07767
353.22        25.85796
353.67        25.66739
354.13        25.46161
354.58        25.24787
355.03        25.08435
355.48        24.98051
355.93        24.94777
356.38        24.93907
356.83        24.86135
357.28        24.69159
357.73        24.44751
358.18        24.18569
358.63        23.99681
359.08        23.90487
359.53        23.89424
359.98        23.89256
360.43        23.78821
360.88          23.563
361.33        23.24417
361.78         22.9486
362.23        22.86522
362.68        23.01504
363.13        23.32015
363.58        23.60793
364.03        23.61138
364.48        23.27995
364.93        22.71531
365.38        22.06776
365.83        21.57858
366.28        21.32829
366.73        21.24577
367.18        21.28884
367.63        21.38447
368.08        21.48549
368.53        21.60973
368.98        21.70859
369.43        21.69984
369.88        21.57384
370.33        21.35016
370.78        21.08081
371.23        20.86726
371.68        20.74487
372.13        20.68556
372.58        20.69311
373.03        20.76504
373.48        20.88301
373.93        21.04766
374.38        21.19074
374.83        21.20488
375.28        21.07528
375.72        20.82052
376.17        20.55006
376.62        20.40696
377.07        20.42715
377.52        20.55946
377.97        20.73181
378.42        20.82691
378.87        20.80658
379.32        20.70967
379.77        20.56153
380.22        20.39471
380.67         20.2258
381.11        20.04881
381.56        19.87024
382.01        19.71254
382.46        19.58475
382.91        19.48618
383.36        19.42055
383.81        19.38738
384.26        19.37885
384.71        19.38971
385.15        19.38667
385.60        19.33541
386.05        19.22269
386.50        19.05583
386.95        18.86884
387.40        18.72724
387.85        18.65469
388.29        18.63072
388.74        18.63219
389.19        18.59632
389.64         18.5107
390.09        18.38429
390.54        18.25887
390.98          18.202
391.43        18.23433
391.88        18.32515
392.33        18.40438
392.78        18.36935
393.23        18.21533
393.67        17.97704
394.12        17.76075
394.57        17.65427
395.02        17.67526
395.47        17.78442
395.91        17.93911
396.36        18.03723
396.81        18.04778
397.26        17.98856
397.71        17.88066
398.15        17.73838
398.60        17.60415
399.05        17.48403
399.50        17.37113
399.95         17.2057
400.39        17.06292
400.84        16.89489
401.29        16.77715
401.74        16.80855
402.18        17.01011
402.63        17.32319
403.08        17.64556
403.53        17.81326
403.97        17.78732
404.42        17.61507
404.87          17.373
405.32        17.19897
405.76        17.13649
406.21        17.14817
406.66        17.20218
407.11        17.25835
407.55        17.30573
408.00        17.35693
408.45        17.39588
408.90        17.37878
409.34        17.29897
409.79        17.16775
410.24        17.03841
410.68        16.98777
411.13         17.0337
411.58        17.16024
412.03        17.31385
412.47        17.40014
412.92        17.37988
413.37        17.28032
413.81        17.16661
414.26        17.15679
414.71        17.26188
415.15        17.44476
415.60        17.60968
416.05        17.62322
416.49        17.45871
416.94        17.17825
417.39        16.86237
417.83        16.64754
418.28        16.58486
418.73        16.61855
419.17         16.7251
419.62        16.86355
420.07        17.00797
420.51        17.17108
420.96        17.28829
421.41        17.24703
421.85         17.0355
422.30        16.71977
422.74        16.39838
423.19        16.24899
423.64        16.28891
424.08        16.47676
424.53        16.72894
424.98        16.92373
425.42        17.01853
425.87        17.03564
426.31        16.99368
426.76        16.97457
427.21        16.97019
427.65         16.8399
428.10        16.67583
428.54        16.73591
428.99        17.03798
429.44        17.47692
429.88        17.85552
430.33        17.92072
430.77        17.63379
431.22        17.08261
431.66         16.4971
432.11        16.29352
432.56        16.50994
433.00          16.926
433.45        17.33809
433.89        17.63706
434.34        17.68936
434.78         17.3341
435.23         16.8491
435.67        16.83336
436.12        17.23473
436.57        17.42124
437.01        17.31959
437.46         17.2598
437.90        17.27042
438.35        17.25602
438.79         17.2056
439.24        17.15162
439.68        17.10817
440.13        17.00003
440.57        16.88009
441.02        17.05897
441.46        17.40993
441.91        17.31134
442.35         16.8447
442.80        16.63961
443.24        16.67109
443.69        16.69607
444.13        16.65757
444.58        16.46572
445.02        16.19394
445.47        16.19511
445.91        16.41282
446.36        16.45964
446.80        16.30798
447.24        16.17976
447.69         16.1182
448.13        16.08168
448.58        16.08525
449.02        16.13674
449.47        16.19761
449.91        16.20402
450.36          16.147
450.80        16.04013
451.25        15.93927
451.69         15.9196
452.13         15.9975
452.58        16.13566
453.02        16.28205
453.47        16.35461
453.91        16.33734
454.36        16.26216
454.80        16.15809
455.24        16.07241
455.69        16.03274
456.13        16.01459
456.58        16.04073
457.02        16.12133
457.46        16.25793
457.91        16.43901
458.35        16.61695
458.79         16.7088
459.24        16.70809
459.68        16.62378
460.13        16.52378
460.57        16.47435
461.01        16.51064
461.46        16.60642
461.90        16.72395
462.34        16.79552
462.79        16.79936
463.23        16.74681
463.68        16.68957
464.12        16.71673
464.56          16.844
465.01        17.05113
465.45        17.21933
465.89        17.23747
466.34        17.10499
466.78        16.77147
467.22        16.40033
467.67        16.41767
468.11        16.78425
468.55        16.99013
468.99        16.97094
469.44        16.96627
469.88        17.02621
470.32         17.2126
470.77        17.45992
471.21        17.53432
471.65         17.4116
472.10        17.26714
472.54        17.16321
472.98        17.14398
473.42         17.2311
473.87        17.41542
474.31        17.62386
474.75        17.73554
475.20        17.72934
475.64        17.63508
476.08        17.51736
476.52        17.47466
476.97        17.53254
477.41        17.66204
477.85        17.81032
478.29        17.92757
478.74         17.9971
479.18        17.94583
479.62        17.81916
480.06        17.98872
480.50        18.09413
480.95        18.17799
481.39        18.10097
481.83        18.02954
482.27         17.9663
482.72         17.7503
483.16        17.48111
483.60        17.55156
484.04         17.9628
484.48        18.21793
484.93        18.51933
485.37        18.91988
485.81        19.22142
486.25        19.43637
486.69        25.25012
487.14        19.80021
487.58        13.35135
488.02        16.45681
488.46        18.68274
488.90        18.68662
489.34        18.59148
489.79        18.39641
490.23        19.36323
490.67        19.87389
491.11        19.68628
491.55        19.56698
491.99        19.47154
492.43        19.32373
492.88        19.18853
493.32         19.1985
493.76        19.23474
494.20        19.42713
494.64         19.7167
495.08        20.06207
495.52        20.40968
495.96        20.70677
496.41        20.87934
496.85        20.91607
497.29         20.8531
497.73        20.54743
498.17        20.26161
498.61        20.48304
499.05        21.18589
499.49        21.33068
499.93        21.41323
500.37        21.48059
500.82        21.49057
501.26        21.68111
501.70        21.94912
502.14        22.10519
502.58        22.11581
503.02        22.14062
503.46        22.18316
503.90        22.13658
504.34          22.039
504.78        22.00559
505.22         22.0543
505.66        22.15852
506.10        22.27823
506.54        22.34428
506.98        22.34073
507.42        22.29303
507.86        22.25116
508.30        22.29037
508.74        22.42385
509.18        22.62147
509.62        22.83438
510.06        22.98326
510.50        23.04784
510.94        23.05974
511.38        23.04534
511.82        23.04589
512.26        23.07656
512.70        23.11598
513.14        23.17716
513.58        23.28299
514.02        23.41978
514.46        23.57615
514.90        23.69815
515.34         23.6651
515.78        23.43646
516.22        23.20236
516.66        23.05161
517.10        22.69041
517.54        22.14565
517.98        22.96791
518.42         22.8354
518.86        23.19409
519.30        23.33102
519.74        23.47511
520.18        23.59369
520.62        23.60552
521.06        23.53317
521.50        23.38065
521.93        23.19849
522.37        23.08207
522.81        23.05577
523.25        23.09355
523.69        23.17499
524.13        23.26529
524.57        23.34425
525.01        23.41828
525.45        23.46312
525.89        23.43921
526.32        23.34181
526.76        23.18681
527.20         23.0082
527.64        22.87047
528.08        22.79628
528.52         22.7468
528.96        22.70669
529.40        22.71198
529.83        22.76488
530.27        22.62402
530.71        22.71309
531.15        22.63484
531.59         22.5221
532.03        22.37069
532.46        22.24001
532.90        22.22854
533.34        22.34258
533.78        22.54623
534.22        22.75582
534.66        22.84699
535.09        22.78868
535.53        22.63048
535.97        22.42678
536.41        22.26999
536.85        22.19372
537.28        22.17496
537.72        22.19812
538.16        22.23894
538.60        22.28682
539.04        22.33381
539.47        22.38485
539.91        22.50236
540.35        22.66079
540.79        22.75828
541.22        22.79276
541.66        22.85464
542.10        22.94427
542.54          23.002
542.97         23.0421
543.41        23.12667
543.85        23.25755
544.29        23.42986
544.72        23.59494
545.16        23.68503
545.60        23.68907
546.04        23.62564
546.47        23.57741
546.91        23.68547
547.35        23.96208
547.79        24.36467
548.22        24.77034
548.66         24.9666
549.10        24.92682
549.53        24.75592
549.97        24.57744
550.41        24.51923
550.84        24.62776
551.28        24.87487
551.72        25.20647
552.15        25.51965
552.59        25.76841
553.03        25.97568
553.46        26.13774
553.90        26.27199
554.34           26.39
554.77        26.45544
555.21        26.47182
555.65        26.52912
556.08           26.65
556.52        26.49423
556.96        26.68908
557.39        26.74236
557.83         26.8463
558.27        26.97108
558.70          27.121
559.14        27.28588
559.57        27.44432
560.01        27.60595
560.45        27.72957
560.88        27.75177
561.32        27.69108
561.75        27.55818
562.19         27.4282
562.63        27.37746
563.06        27.42153
563.50        27.54274
563.93        27.70815
564.37         27.8771
564.80        28.02149
565.24        28.16191
565.68        28.28273
566.11        28.36345
566.55        28.42363
566.98        28.45662
567.42        28.50343
567.85        28.62379
568.29        28.84338
568.72        29.06281
569.16        29.28959
569.60        29.60793
570.03        29.88008
570.47        29.84875
570.90        29.66878
571.34        29.18189
571.77        29.71538
572.21        29.79224
572.64        29.83373
573.08        29.62998
573.51        28.60943
573.95        29.89996
574.38        31.82369
574.82        30.88101
575.25        30.52623
575.69         29.5012
576.12        29.26895
576.56        29.11813
576.99        29.83131
577.42        31.03142
577.86        30.92785
578.29        30.71331
578.73        32.21804
579.16        29.67541
579.60        27.20459
580.03        28.45244
580.47           30.31
580.90        30.84681
581.33         30.0795
581.77        29.85918
582.20        32.41595
582.64        31.76318
583.07        27.14746
583.51        26.61428
583.94        26.25342
584.37        27.45709
584.81        28.73452
585.24        30.09348
585.68        30.64076
586.11        30.07815
586.54        27.77196
586.98        27.10345
587.41        27.46021
587.85         28.7284
588.28        29.49148
588.71        27.86019
589.15        27.12243
589.58         27.7052
590.01        27.88179
590.45        28.48089
590.88        28.52655
591.31        28.30549
591.75        28.35723
592.18         28.4535
592.61        28.87967
593.05         29.5646
593.48        30.59347
593.91        30.66118
594.35        28.21064
594.78        27.74945
595.21        27.87845
595.65        29.23946
596.08        30.30395
596.51        29.25703
596.94        28.67207
597.38         29.1901
597.81        30.58411
598.24        31.31651
598.68         30.8263
599.11        30.88932
599.54        32.40209
599.97        33.28809
600.41        31.54632
600.84        31.94055
601.27        32.88422
601.70        32.76972
602.14        32.95225
602.57         32.9125
603.00        33.82095
603.43        34.92334
603.87        35.84302
604.30        35.93559
604.73        35.37888
605.16          35.421
605.60        36.13513
606.03        37.23566
606.46        38.33036
606.89        38.57177
607.32        37.77378
607.76        38.46183
608.19        39.84662
608.62        39.75519
609.05         39.4744
609.48        40.15652
609.92         40.3869
610.35        40.58775
610.78        42.25301
611.21        43.07462
611.64         41.5634
612.07        42.40234
612.50        43.04125
612.94        43.69246
613.37        43.70121
613.80        43.97323
614.23        44.57766
614.66         44.8263
615.09        45.35366
615.52        45.74809
615.96        46.07156
616.39         46.4463
616.82        46.06077
617.25        46.31166
617.68        46.91404
618.11        47.60872
618.54        48.17739
618.97         48.1427
619.40        47.75163
619.84        48.01589
620.27        48.91201
620.70        49.62363
621.13        49.99392
621.56        49.88397
621.99        49.48781
622.42        50.13129
622.85        51.47453
623.28        51.37585
623.71        50.86882
624.14        50.93473
624.57        50.75282
625.00        50.23568
625.43        50.54069
625.86        50.05633
626.29        50.16222
626.72        50.23859
627.15        50.02951
627.58        49.91523
628.01        49.72097
628.44        49.72964
628.87        49.47115
629.30        49.41244
629.73        49.34189
630.16        49.06383
630.59        48.56034
631.02        47.94183
631.45        47.29581
631.88        46.71164
632.31        46.22221
632.74        45.80221
633.17        45.41742
633.60        45.01065
634.03        44.56324
634.46        44.09661
634.89        43.61696
635.32        43.13151
635.75        42.64705
636.18           42.16
636.61        41.67458
637.04        41.19726
637.47        40.72574
637.89        40.26149
638.32        39.79808
638.75        39.35264
639.18        38.93563
639.61        38.55518
640.04        38.20025
640.47        37.84526
640.90        37.48885
641.33        37.13782
641.76        36.81279
642.18        36.60324
642.61        36.51961
643.04         36.4493
643.47        36.33975
643.90        36.57787
644.33        36.39397
644.76        36.41686
645.18        36.42061
645.61        36.42243
646.04        36.41966
646.47         36.4036
646.90        36.44841
647.33        36.64452
647.75        37.02271
648.18         37.5889
648.61        38.18228
649.04        38.56291
649.47        38.69333
649.89        38.50643
650.32        38.31641
650.75        38.83054
651.18        39.98755
651.61        41.07701
652.03        41.80791
652.46        42.19874
652.89        42.54126
653.32        42.69083
653.74        42.87207
654.17          44.714
654.60         45.6756
655.03        44.71621
655.46           46.17
655.88        49.17909
656.31        52.91556
656.74        118.1369
657.16        75.29001
657.59         26.5856
658.02        20.91366
658.45        37.53313
658.87        49.04786
659.30        51.73135
659.73        51.76583
660.15        50.28474
660.58        52.84132
661.01        54.64965
661.44        53.30675
661.86        53.24218
662.29         53.8206
662.72        54.66908
663.14        55.67041
663.57        55.95405
664.00        55.67742
664.42        55.89404
664.85        56.67451
665.27        57.32343
665.70        57.68978
666.13         57.8495
666.55        57.98372
666.98        57.88023
667.41        57.73565
667.83        57.80757
668.26        58.15667
668.69        58.67197
669.11         59.1705
669.54        59.65526
669.96        59.51751
670.39        59.29449
670.82        59.00671
671.24        58.99473
671.67        59.34521
672.09        59.89675
672.52         60.4332
672.94         61.0837
673.37        60.79765
673.80        60.95388
674.22        61.26185
674.65        61.44637
675.07        61.48048
675.50        61.39716
675.92        61.30222
676.35        61.39106
676.77        61.69315
677.20        62.09972
677.62        62.52964
678.05        62.80292
678.47        62.86045
678.90        62.95839
679.32        62.84496
679.75        62.79955
680.17        63.00574
680.60        63.23279
681.02        63.48263
681.45        63.62113
681.87        63.63433
682.30        63.57243
682.72        63.52472
683.15         63.6111
683.57        63.89315
684.00        64.30709
684.42        64.90216
684.85        65.22206
685.27        65.25786
685.70        65.14439
686.12        64.97054
686.54        64.89521
686.97        64.95754
687.39        65.12504
687.82        65.33942
688.24         65.5537
688.66         65.7253
689.09        65.87604
689.51        66.02677
689.94        66.19689
690.36        66.40034
690.78        66.57648
691.21        66.71347
691.63         66.9069
692.06        67.11078
692.48        67.11143
692.90        66.99031
693.33        67.06246
693.75        67.35718
694.17        67.71667
694.60        68.08186
695.02        68.40186
695.44        68.60854
695.87        68.86484
696.29        69.15787
696.71         69.0198
697.14        68.65985
697.56        69.09338
697.98        70.03821
698.41        70.28194
698.83        69.32574
699.25        68.99144
699.68        69.20175
700.10        69.30984
700.52        69.31891
700.94        69.61449
701.37        70.12392
701.79         70.5866
702.21        70.91097
702.64        71.17081
703.06        71.32092
703.48         71.2869
703.90        71.09006
704.33        70.75597
704.75        70.40198
705.17        70.30602
705.59         70.5348
706.01        70.90315
706.44        71.26374
706.86        71.97648
707.28        72.01445
707.70         72.1996
708.12        72.27913
708.55        72.24402
708.97        72.13378
709.39        72.10714
709.81        72.19444
710.23        72.28268
710.66        72.37291
711.08        72.58383
711.50        72.82787
711.92        72.93052
712.34        72.86552
712.76        72.66807
713.19         72.4586
713.61        72.46453
714.03        72.71745
714.45        73.15368
714.87        73.59345
715.29        73.75057
715.71        73.57178
716.13        73.15482
716.56        72.69704
716.98        72.54752
717.40        72.78479
717.82        73.29892
718.24        73.91285
718.66        74.33543
719.08        74.48927
719.50        74.40859
719.92        74.17264
720.34        74.10267
720.76        74.29552
721.19        73.87659
721.61        74.26659
722.03        74.32607
722.45        74.46502
722.87        74.65983
723.29        74.89678
723.71        75.10547
724.13        75.24611
724.55        75.36158
724.97         75.4654
725.39        75.51374
725.81        75.49673
726.23         75.7206
726.65        75.64165
727.07        75.70564
727.49        75.75552
727.91        75.81899
728.33        75.87461
728.75        75.89506
729.17        75.88304
729.59        75.83018
730.01        75.78433
730.43        75.87698
730.85        76.13562
731.27        76.43053
731.69        76.61384
732.10        77.06636
732.52        76.72287
732.94        76.50908
733.36        76.28166
733.78        76.21491
734.20        76.35602
734.62        76.93453
735.04        77.70434
735.46        77.85526
735.88        76.99187
736.30         77.4201
736.72        78.87797
737.13        79.49831
737.55        78.99034
737.97        79.00549
738.39        79.53577
738.81        78.61926
739.23        76.88692
739.65        77.86092
740.06        80.91736
740.48        81.43098
740.90        79.44289
741.32        78.51232
741.74         78.9797
742.16        79.22206
742.57        79.30923
742.99        80.10867
743.41        81.35305
743.83         82.1277
744.25        82.26478
744.67        81.99064
745.08         81.5619
745.50        81.39957
745.92        81.63833
746.34        82.12679
746.75        82.67994
747.17        82.99371
747.59        83.00883
748.01         82.8266
748.42        82.65142
748.84        82.78951
749.26        83.31518
749.68         84.0742
750.09        84.85715
750.51         85.3986
750.93        85.58808
751.35        85.29987
751.76        84.74518
752.18        84.60751
752.60        84.88325
753.01        84.98301
753.43         84.9129
753.85        85.12008
754.27        85.61677
754.68        86.25783
755.10        86.90569
755.52        87.20723
755.93        87.55209
756.35        87.48931
756.77        87.34689
757.18        87.34217
757.60        87.55192
758.02        88.27262
758.43        88.89377
758.85        88.64644
759.26        85.95106
759.68        85.50553
760.10         87.7797
760.51        89.01361
760.93        88.03352
761.34        87.04781
761.76        86.66724
762.18        86.08819
762.59        85.23194
763.01        85.43935
763.42        86.80642
763.84        87.92513
764.26        88.60347
764.67        88.96781
765.09        88.96344
765.50        88.81277
765.92        88.47987
766.33        87.10813
766.75        85.25091
767.16        84.86952
767.58        85.73143
768.00        87.42991
768.41        89.44006
768.83        91.27336
769.24        92.14542
769.66        91.26751
770.07        89.29208
770.49         87.1976
770.90         85.6548
771.32        86.75885
771.73        89.66181
772.15        89.33643
772.56        86.22977
772.97        85.58024
773.39         87.3517
773.80        88.02325
774.22        87.34783
774.63        87.32905
775.05        87.90656
775.46        88.22491
775.88          88.175
776.29        87.94919
776.70        87.67243
777.12        87.62547
777.53        87.87827
777.95        88.27589
778.36        88.63822
778.77        88.65566
779.19        88.31207
779.60        87.71603
780.02        87.12387
780.43        87.02539
780.84        87.57545
781.26        88.11649
781.67        88.57124
782.09        89.88405
782.50        91.44427
782.91           90.38
783.33         87.8278
783.74         86.9471
784.15        88.01334
784.57        88.86777
784.98         89.1935
785.39        88.90116
785.81        89.05683
786.22        88.39925
786.63        87.66594
787.04        87.57642
787.46        88.21877
787.87        89.34249
788.28        90.53481
788.70        91.11987
789.11        90.93202
789.52        90.22568
789.93        89.35433
790.35        88.80518
790.76         88.7185
791.17        88.98825
791.58        89.46606
792.00        89.80855
792.41        89.89597
792.82        89.96977
793.23        90.10122
793.65        89.79955
794.06        89.42474
794.47         90.4561
794.88        92.01935
795.29        92.35323
795.71        89.11889
796.12        87.06338
796.53        86.06413
796.94        85.69196
797.35        86.05087
797.76        87.37782
798.18        89.07776
798.59        90.15415
799.00        90.22295
799.41        89.39083
799.82        88.13875
800.23         87.4006
800.64        87.40017
801.06        87.75996
801.47        88.35112
801.88        88.85107
802.29        89.11697
802.70        89.28053
803.11        89.34364
803.52        89.27671
803.93         89.1236
804.34        88.85896
804.75        88.58875
805.17        88.65332
805.58        89.16128
805.99        89.53574
806.40        89.66787
806.81        90.56544
807.22        91.58574
807.63        90.11356
808.04         86.9413
808.45        85.58962
808.86        86.36135
809.27        87.48346
809.68        88.42841
810.09        89.01185
810.50         88.9825
810.91        88.44135
811.32        87.71082
811.73        87.30853
812.14         87.3787
812.55        87.71251
812.96         88.2382
813.37        88.81439
813.78        89.33225
814.19        89.89024
814.60        90.23235
815.01        89.94839
815.42        89.01824
815.83        87.52409
816.24        86.01817
816.65        85.47888
817.05        86.19337
817.46        87.86124
817.87        89.78357
818.28        90.69347
818.69        90.23604
819.10        88.71967
819.51        86.90511
819.92        86.08927
820.33        86.60922
820.74        88.06407
821.14        89.71966
821.55        90.28197
821.96        89.48521
822.37        87.80373
822.78        85.93346
823.19        84.88738
823.60        84.93694
824.00        85.81954
824.41          87.063
824.82        87.98334
825.23        88.27177
825.64        88.16015
826.04        87.83867
826.45        87.58513
826.86        87.49128
827.27        87.41695
827.68        87.35182
828.08        87.35232
828.49        87.34989
828.90        87.43848
829.31         87.5394
829.72        87.47509
830.12        87.24329
830.53        86.87009
830.94        86.57133
831.35        86.64189
831.75        87.17233
832.16        88.00858
832.57        88.95216
832.97        89.57687
833.38        89.66319
833.79        89.34075
834.20        88.85009
834.60         88.5559
835.01        88.58475
835.42         88.8259
835.82        89.10825
836.23        89.05331
836.64         88.6248
837.04        87.97385
837.45          87.345
837.86        87.12273
838.26        87.40226
838.67        88.00653
839.08        88.73906
839.48        89.23854
839.89        89.33771
840.29        89.16867
840.70        88.80882
841.11        88.35459
841.51        87.87312
841.92        87.30434
842.33        86.78751
842.73        86.56958
843.14        86.65333
843.54        87.03716
843.95        87.44028
844.35          87.455
844.76        86.98211
845.17        86.16615
845.57        85.30272
845.98        84.85945
846.38        84.94005
846.79        85.37569
847.19        85.97163
847.60        86.27117
848.00         86.1859
848.41        85.84639
848.81        85.44276
849.22        85.17928
849.62         85.1832
850.03        85.37944
850.43        85.78481
850.84        86.31947
851.24        86.96733
851.65         87.5211
852.05        88.09155
852.46        88.66528
852.86        89.21947
853.27            89.8
853.67        89.89142
854.07        88.84554
854.48        86.75197
854.88        83.87348
855.29        81.21886
855.69        80.24052
856.10        81.21252
856.50        83.96716
856.90        87.53749
857.31        89.66571
857.71         89.6011
858.12         87.8968
858.52        85.64087
858.92        84.31474
859.33        84.23562
859.73        85.00954
860.13        86.26193
860.54        87.21668
860.94        87.63477
861.34        87.72909
861.75        87.66715
862.15        87.78145
862.55        88.12434
862.96        88.53172
863.36        88.92298
863.76        89.13697
864.17         89.1352
864.57        89.05687
864.97        88.98341
865.38        89.01387
865.78        89.21849
866.18        89.46226
866.58        89.76693
866.99        90.15916
867.39        90.67832
867.79        91.35288
868.19        91.84543
868.60        91.52601
869.00        90.32248
869.40        88.42943
869.80          86.701
870.21        86.45973
870.61         88.0717
871.01        91.14028
871.41        94.63807
871.81        96.79161
872.22        97.07162
872.62        95.96781
873.02        94.39671
873.42         93.8646
873.82          94.672
874.22        96.33097
874.63        98.20673
875.03        98.94882
875.43        98.01084
875.83        96.25832
876.23         94.3319
876.63        93.73412
877.03        94.80207
877.44        97.79612
877.84        99.13737
878.24        105.2373
878.64        104.5626
879.04        101.8689
879.44        99.79868
879.84        98.72419
880.24         99.6173
880.64        101.1601
881.04        103.3051
881.44        104.4422
881.84        103.5444
882.24        101.3143
882.65        99.11526
883.05        98.54266
883.45        99.85213
883.85        102.6312
884.25        105.8817
884.65        107.7321
885.05         107.553
885.45        106.0185
885.85         104.021
886.25        102.7594
886.65        102.5412
887.05        102.9513
887.45        103.7638
887.85        104.5956
888.25        105.2308
888.65        105.8484
889.04        106.2843
889.44        106.2896
889.84        105.8496
890.24        104.9963
890.64         104.096
891.04        103.7525
891.44        104.0733
891.84        104.9062
892.24         105.865
892.64        106.2276
893.04        105.8444
893.44        105.0344
893.83        104.1659
894.23        103.7809
894.63        103.9867
895.03        104.5601
895.43        105.4533
895.83        106.5708
896.23        107.7576
896.63        109.0126
897.02        109.9506
897.42        109.9426
897.82        108.9508
898.22        107.2258
898.62        105.3613
899.01        104.2353
899.41        104.0811
899.81        104.5825
900.21         105.456
900.61        106.2101
901.00        106.6391
901.40        106.9292
901.80        107.0065
902.20        106.7519
902.59        106.2028
902.99        105.3368
903.39         104.481
903.79        104.2209
904.18        104.6935
904.58        105.7838
904.98        107.0589
905.38        107.8326
905.77        107.9157
906.17        107.4957
906.57        106.9403
906.96        106.8577
907.36        107.3136
907.76        108.1307
908.15        108.9033
908.55        108.8637
908.95         107.913
909.34        106.2754
909.74        104.5898
910.14         103.666
910.53        103.7541
910.93         104.683
911.33        106.0014
911.72        106.8925
912.12        107.0327
912.52        106.6281
912.91        106.1644
913.31        106.3071
913.70        107.2153
914.10        108.7238
914.49        110.2747
914.89        110.3416
915.29        108.5495
915.68        105.5225
916.08        102.7114
916.47        101.4322
916.87        101.8313
917.26        103.4566
917.66        105.4094
918.05        106.2475
918.45        105.5695
918.84         103.882
919.24        102.0468
919.64        101.3053
920.03        101.9863
920.42        103.6705
920.82        105.7122
921.21        107.1616
921.61        107.5279
922.00        107.1892
922.40        106.4378
922.79        105.6061
923.19        104.8651
923.58        104.1839
923.98        103.6556
924.37        103.2535
924.77        103.0835
925.16        103.7328
925.55        104.1384
925.95         105.385
926.34         107.019
926.74        108.7554
927.13        110.1737
927.52        110.4264
927.92        109.5001
928.31        107.6766
928.70        105.4207
929.10        103.5174
929.49        102.2108
929.89          101.36
930.28        101.1465
930.67         101.841
931.07        103.2637
931.46        105.3634
931.85        107.3841
932.24        108.2095
932.64        107.6327
933.03        105.8529
933.42        103.3629
933.82        101.3952
934.21        100.3754
934.60        100.0682
934.99        100.2093
935.39        100.3792
935.78        100.4955
936.17        100.8129
936.56        101.1896
936.96        100.9196
937.35        100.3081
937.74        99.26996
938.13        98.53456
938.53        98.70146
938.92        99.75849
939.31        101.6324
939.70        103.7256
940.09        104.4787
940.49        103.3887
940.88        101.1211
941.27        98.75228
941.66        97.54311
942.05        97.66393
942.44        98.68912
942.84        100.1929
943.23        101.5445
943.62        102.3577
944.01        102.8031
944.40        102.9234
944.79         102.784
945.18        102.4181
945.57        101.7103
945.97         100.659
946.36        99.55367
946.75        98.65929
947.14        98.08322
947.53        97.82915
947.92        97.78961
948.31        97.91879
948.70        98.27162
949.09        98.78757
949.48        99.29023
949.87         99.6553
950.26         99.8007
950.65        99.88175
951.04        100.2017
951.43        100.7877
951.82        101.5413
952.21          102.03
952.60         101.587
952.99        100.1331
953.38        97.93115
953.77        95.66341
954.16        94.29584
954.55        94.03952
954.94        94.71459
955.33        95.65234
955.72        95.70359
956.11        94.60242
956.50        92.64803
956.89        90.77502
957.28        90.68237
957.66          92.853
958.05        96.44852
958.44        100.2315
958.83        102.3961
959.22         102.485
959.61        100.9778
960.00        98.66106
960.39        96.82915
960.78        95.92549
961.16        95.66157
961.55        95.54616
961.94        94.79062
962.33        93.28402
962.72        91.48086
963.11        89.98415
963.49         89.5156
963.88        90.17624
964.27        91.75104
964.66        93.74615
965.04        95.09135
965.43         95.2065
965.82        94.45402
966.21        93.39301
966.60        92.79038
966.98        92.82445
967.37        93.18603
967.76        93.65171
968.15         93.8016
968.53         93.5004
968.92        92.93939
969.31        92.27071
969.69        91.60613
970.08        91.02389
970.47        90.49884
970.86        90.05698
971.24        89.79462
971.63        89.70354
972.02        89.73483
972.40        89.97623
972.79        90.48441
973.17        91.34971
973.56         92.4454
973.95        93.37421
974.33        93.36449
974.72        92.24267
975.11        90.29785
975.49         88.4353
975.88        87.95322
976.26        89.01926
976.65        91.41081
977.04        94.18819
977.42        94.94646
977.81        92.79996
978.19        88.69252
978.58        84.82817
978.96        83.48323
979.35        84.99564
979.74        88.84527
980.12        94.11937
980.51        97.49612
980.89        97.90795
981.28        96.24216
981.66        93.78031
982.05        92.17994
982.43         91.7585
982.82        91.96899
983.20        92.71146
983.59        94.02435
983.97        95.91032
984.35        98.48017
984.74        101.1343
985.12        102.8105
985.51        102.6567
985.89        100.8996
986.28        97.95553
986.66        94.62045
987.04        91.72614
987.43        89.42548
987.81        87.93047
988.20        87.43327
988.58        87.90185
988.96        89.49014
989.35        92.44259
989.73        96.35247
990.12        99.31683
990.50        100.9056
990.88        100.7057
991.27         99.0829
991.65        96.43694
992.03        92.65778
992.42        88.81934
992.80        86.87518
993.18         87.4612
993.56        89.52615
993.95        91.87238
994.33        93.44876
994.71        93.96085
995.10        93.98733
995.48        93.47334
995.86        92.18406
996.24        90.14172
996.63        87.08798
997.01        83.91625
997.39        83.23659
997.77        86.01868
998.15        91.50842
998.54        97.04858
998.92        99.21164
999.30        96.97694
999.68        91.33274
1000.06        83.65255
1000.45        77.53086
1000.83        74.70565
1001.21        74.15837
1001.59        75.47462
1001.97        78.33862
1002.35        82.58013
1002.73        89.05745
1003.12         96.2453
1003.50        98.93095
1003.88        94.48917
1004.26        85.21025
1004.64        75.98705
1005.02        71.07838
1005.40        70.79219
1005.78        74.76554
1006.16        83.35519
1006.54        91.82262
1006.92        94.59502
1007.30        93.36671
1007.69        91.47073
1008.07        91.36555
1008.45        93.61484
1008.83        98.87123
1009.21        109.4785
1009.59        123.7796
1009.97        117.9211
1010.35        53.59395
1010.73        7.476534
1011.11        19.13941
1011.49         41.2927
1011.86        61.19931
1012.24         74.3209
1012.62        81.80912
1013.00        86.39122
1013.38        90.21226
1013.76         95.4882
1014.14        106.1926
1014.52        124.3672
1014.90        148.8249
1015.28        172.7713
1015.66        182.6254
1016.04        169.9712
1016.41        137.8426
1016.79        100.0192
1017.17        71.83083
1017.55        57.44169
1017.93        51.32277
1018.31        50.59941
1018.69        54.48721
1019.06        62.78529
1019.44        76.79785
1019.82        99.71146
1020.20        130.7728
1020.58        167.5736
1020.95        211.0938
1021.33        276.5603
1021.71       -763.8732
1022.09        60.10499
1022.46        103.5246
1022.84        118.1798
1023.22        127.4893
1023.60        141.3568
1023.97        249.8317
1024.35        73.88339
1024.73        100.2548
