SpectraSmart Spectrum 2.9.0.0
--------- Device Information -----------
Spectrum Name :  反射率_0
Saving Time :  2024/04/25 23:19:54
Spectro-Module Model Name : SE2030-DUVN
Spectro-Module Serial Number : OS361AC55029948
Wavelength Start : 200
Wavelength End : 1025
Wavelength Unit : Wavelength(nm)
Spectrum Unit : Reflectance(%)
-----------Spectrum Setting ------------
Integration Time : 20ms
Average : 10
Boxcar : 0
Background removal :  enabled
linearity correction :  enabled
SC :  disabled
Intensity correction :  disabled
DWT denoise :  enabled
savitzky-golay :  disabled
FFT :  disabled
Running average :  disabled
Kalman :  disabled
High pass :  disabled
---------------BEGIN--------------------
Wavelength(nm)             Reflectance(%)
200.29               0
200.75        92.25926
201.21        86.38539
201.67        79.48095
202.13        76.55518
202.58        78.21228
203.04        83.27022
203.50          89.143
203.96        91.41228
204.42         89.3411
204.88        84.97038
205.34        80.86073
205.80        79.46761
206.26        81.56821
206.72        88.65437
207.18        103.4974
207.64        115.9038
208.10        105.7073
208.55        86.87217
209.01        75.50755
209.47        72.27192
209.93        73.82803
210.39        78.67246
210.85        84.09977
211.31        84.41022
211.77        78.07886
212.23        67.38816
212.69        57.29438
213.14         55.4311
213.60        62.86631
214.06        77.17224
214.52        93.07097
214.98        102.4184
215.44        103.1979
215.90        98.34345
216.36        91.01254
216.81        85.53521
217.27        83.54514
217.73        83.48116
218.19        84.21181
218.65        84.46004
219.11        83.68844
219.57        81.88419
220.02        79.58844
220.48        79.40903
220.94         81.8874
221.40        86.07348
221.86        88.02499
222.32        84.05172
222.77        75.51096
223.23        65.68333
223.69        58.08942
224.15        56.41763
224.61        60.03234
225.06        66.98186
225.52        74.29651
225.98         78.1558
226.44        77.84531
226.90        74.89604
227.36        71.31673
227.81        69.83907
228.27        71.30009
228.73        74.38805
229.19        77.89913
229.65        80.11996
230.10        80.60037
230.56        80.23402
231.02        79.49561
231.48        78.89335
231.93        78.50352
232.39        78.16178
232.85        77.83994
233.31        77.63966
233.77        77.52853
234.22        77.54399
234.68        77.43733
235.14        76.74322
235.60        75.44605
236.05        73.80981
236.51        72.21745
236.97         71.1073
237.43        70.56409
237.88        70.54457
238.34        70.98467
238.80        72.04048
239.26        73.60528
239.71        75.80692
240.17        77.74255
240.63        78.51122
241.08        78.05815
241.54        76.55637
242.00        74.99271
242.46        74.77545
242.91        76.96116
243.37        83.25105
243.83        102.9858
244.28        164.0715
244.74        225.9982
245.20        183.0448
245.66        147.5222
246.11        136.6979
246.57        138.8191
247.03        155.8956
247.48        205.3642
247.94        163.5396
248.40        106.2097
248.85        90.45983
249.31        87.08693
249.77        88.79536
250.22        94.01188
250.68        103.5529
251.14        116.9358
251.59        124.6688
252.05        117.9497
252.51        101.6422
252.96        84.95178
253.42        76.11186
253.88         74.4168
254.33        76.84655
254.79         82.2548
255.25        88.35499
255.70        93.53146
256.16        98.26827
256.62         101.068
257.07        100.3329
257.53         97.1296
257.99         92.0647
258.44        86.84709
258.90        84.52731
259.35        84.17168
259.81        84.75536
260.27         84.5897
260.72        82.04693
261.18        77.89524
261.63        72.78254
262.09        68.03159
262.55        64.38407
263.00        61.85557
263.46        60.23935
263.91         58.9799
264.37        57.88081
264.83         56.6798
265.28        55.32959
265.74        54.03548
266.19        52.77621
266.65        51.77128
267.11        50.96246
267.56        50.17076
268.02        49.20539
268.47          47.958
268.93        46.50652
269.38        45.05828
269.84        44.18914
270.30        44.01122
270.75         44.3574
271.21        44.80672
271.66        44.71838
272.12        43.95412
272.57        42.70873
273.03        41.37449
273.48        40.45083
273.94        40.09338
274.39         40.0766
274.85        40.16741
275.31        39.99432
275.76         39.4514
276.22        38.70617
276.67        37.87628
277.13        37.24616
277.58        36.80948
278.04        36.51618
278.49         36.1927
278.95        35.69592
279.40        34.96278
279.86        34.13536
280.31         33.2841
280.77         32.6446
281.22        32.21317
281.68        31.95134
282.13        31.76672
282.59        31.58871
283.04        31.36723
283.50        31.16385
283.95        30.93198
284.41        30.63794
284.86        30.26958
285.32        29.84667
285.77        29.45233
286.22        29.28862
286.68        29.35417
287.13        29.55276
287.59         29.7051
288.04        29.52004
288.50        28.98575
288.95        28.19064
289.41        27.33822
289.86        26.61572
290.32        26.14056
290.77        25.83035
291.22        25.67835
291.68        25.63262
292.13        25.66542
292.59        25.79542
293.04        25.99481
293.50        26.22108
293.95        26.44508
294.40         26.6431
294.86        26.81316
295.31        26.96728
295.77         27.1162
296.22        27.26561
296.68          27.402
297.13        27.47514
297.58         27.5052
298.04        27.53201
298.49        27.63827
298.95        27.98463
299.40        28.57726
299.85        29.35146
300.31         30.1733
300.76        30.84333
301.21        31.28498
301.67        31.57223
302.12        31.72647
302.58        31.84399
303.03        31.93977
303.48        32.00336
303.94        32.10026
304.39        32.29567
304.84        32.60232
305.30        32.99578
305.75        33.36655
306.20         33.5547
306.66         33.5516
307.11        33.39725
307.57        33.20602
308.02        33.07025
308.47        33.05204
308.93        33.11929
309.38        33.25277
309.83        33.45653
310.29        33.70094
310.74        33.96384
311.19        34.19722
311.65        34.32542
312.10         34.3281
312.55        34.23056
313.00        34.03444
313.46         33.7597
313.91        33.42594
314.36        33.05391
314.82        32.73901
315.27        32.60524
315.72        32.67647
316.18        32.91361
316.63        33.20477
317.08        33.33711
317.53        33.25207
317.99        32.99673
318.44        32.68708
318.89         32.5153
319.35        32.51812
319.80        32.63944
320.25        32.75695
320.70        32.67375
321.16        32.34816
321.61        31.85488
322.06        31.31519
322.51        30.90738
322.97         30.6675
323.42        30.55122
323.87        30.47852
324.32        30.31929
324.78        30.03816
325.23        29.69193
325.68        29.33298
326.13        29.04581
326.59        28.85097
327.04        28.73485
327.49         28.6716
327.94        28.62719
328.39        28.58562
328.85        28.54539
329.30        28.53098
329.75        28.53881
330.20        28.56679
330.66        28.59167
331.11        28.61645
331.56        28.60179
332.01         28.5365
332.46         28.4166
332.92        28.26183
333.37        28.14729
333.82        28.08264
334.27        28.07022
334.72        28.05016
335.17        27.91855
335.63        27.65844
336.08        27.30857
336.53        26.98706
336.98        26.88738
337.43        27.04262
337.88        27.39374
338.34        27.76215
338.79        27.90319
339.24        27.73056
339.69        27.31782
340.14        26.83942
340.59        26.60223
341.05        26.68023
341.50        26.97602
341.95         27.3337
342.40        27.52617
342.85        27.49916
343.30        27.33795
343.75        27.10923
344.20        26.92786
344.66        26.83607
345.11        26.75688
345.56        26.70768
346.01        26.71755
346.46        26.77095
346.91        26.87829
347.36        26.91784
347.81         26.6882
348.26        26.18604
348.72        25.51818
349.17        24.86752
349.62        24.61489
350.07        24.84188
350.52        25.40811
350.97        26.12337
351.42        26.69513
351.87        27.02152
352.32        27.17982
352.77        27.17208
353.22         27.0095
353.67        26.72456
354.13        26.31529
354.58        25.87592
355.03        25.60159
355.48        25.53389
355.93        25.64065
356.38        25.79647
356.83        25.78461
357.28        25.55292
357.73        25.16228
358.18        24.73386
358.63        24.45872
359.08        24.38341
359.53        24.45133
359.98        24.54404
360.43        24.48087
360.88        24.22516
361.33        23.83472
361.78        23.44248
362.23        23.26064
362.68        23.32554
363.13        23.55075
363.58         23.7856
364.03        23.79923
364.48        23.54069
364.93        23.09855
365.38        22.57832
365.83        22.14719
366.28        21.86665
366.73        21.68503
367.18        21.59629
367.63        21.59048
368.08        21.64249
368.53        21.75492
368.98        21.86176
369.43        21.85276
369.88        21.70928
370.33        21.46009
370.78        21.16821
371.23        20.95069
371.68        20.84454
372.13        20.81256
372.58        20.83879
373.03        20.89106
373.48        20.94595
373.93        21.01638
374.38        21.05786
374.83        20.99808
375.28        20.83088
375.72        20.56487
376.17        20.29652
376.62        20.14656
377.07        20.14469
377.52        20.24927
377.97        20.39344
378.42        20.46746
378.87        20.43656
379.32        20.33525
379.77        20.19261
380.22         20.0475
380.67        19.91656
381.11        19.79303
381.56        19.67101
382.01        19.55276
382.46        19.44017
382.91        19.33195
383.36        19.24906
383.81        19.21972
384.26        19.24082
384.71        19.30093
385.15        19.33414
385.60        19.25799
386.05        19.05329
386.50         18.7411
386.95        18.40923
387.40         18.2145
387.85        18.19781
388.29        18.30609
388.74        18.44441
389.19        18.45884
389.64        18.32599
390.09        18.08392
390.54        17.83453
390.98        17.74721
391.43        17.86403
391.88        18.11319
392.33        18.36027
392.78        18.41033
393.23        18.24217
393.67        17.92783
394.12        17.61658
394.57         17.4533
395.02        17.46903
395.47        17.60383
395.91        17.79966
396.36        17.92877
396.81        17.94861
397.26        17.88791
397.71        17.76844
398.15        17.60345
398.60        17.43915
399.05        17.28277
399.50        17.13593
399.95        16.95243
400.39        16.80828
400.84        16.65316
401.29        16.55766
401.74        16.61067
402.18        16.82876
402.63        17.15572
403.08        17.48901
403.53        17.66501
403.97        17.64562
404.42        17.47693
404.87        17.23823
405.32        17.07288
405.76        17.02466
406.21        17.05347
406.66        17.12339
407.11        17.18863
407.55        17.23643
408.00        17.28051
408.45        17.30607
408.90        17.27172
409.34        17.17479
409.79        17.03048
410.24        16.89101
410.68        16.83088
411.13        16.86733
411.58        16.98146
412.03        17.13137
412.47        17.24252
412.92        17.27506
413.37        17.24782
413.81         17.1934
414.26        17.18037
414.71        17.21487
415.15        17.27968
415.60        17.31935
416.05        17.26586
416.49        17.10938
416.94        16.89042
417.39        16.66685
417.83        16.53406
418.28        16.52571
418.73        16.59983
419.17         16.7261
419.62        16.85378
420.07        16.96087
420.51        17.05945
420.96         17.1151
421.41        17.06923
421.85        16.91611
422.30        16.69962
422.74        16.47674
423.19        16.36665
423.64        16.37589
424.08        16.48248
424.53         16.6258
424.98        16.72814
425.42        16.76848
425.87        16.76113
426.31        16.72193
426.76        16.72572
427.21        16.76069
427.65        16.69102
428.10        16.60184
428.54        16.73636
428.99        17.10392
429.44        17.59493
429.88        18.00879
430.33        18.09118
430.77        17.80547
431.22        17.24414
431.66        16.64023
432.11        16.41191
432.56        16.59737
433.00        16.98042
433.45        17.37069
433.89        17.66012
434.34        17.72782
434.78        17.45506
435.23        17.06604
435.67        17.05262
436.12         17.3519
436.57         17.3724
437.01        17.09859
437.46        16.93958
437.90        16.94903
438.35        17.00965
438.79        17.07001
439.24        17.09841
439.68        17.08978
440.13        16.98783
440.57        16.86017
441.02        17.04036
441.46        17.40904
441.91        17.33153
442.35        16.88311
442.80        16.69154
443.24        16.73064
443.69        16.75954
444.13        16.71954
444.58        16.51609
445.02        16.22398
445.47        16.20003
445.91        16.39057
446.36         16.4137
446.80        16.24572
447.24        16.10823
447.69        16.04572
448.13        16.01893
448.58        16.04114
449.02        16.11613
449.47        16.20248
449.91        16.23158
450.36        16.19178
450.80        16.09862
451.25        16.00048
451.69        15.96183
452.13         16.0004
452.58        16.08312
453.02        16.17848
453.47        16.23562
453.91        16.24334
454.36        16.22425
454.80        16.18195
455.24        16.12029
455.69        16.05634
456.13        15.97986
456.58        15.93733
457.02        15.97427
457.46        16.09993
457.91        16.29029
458.35         16.4842
458.79        16.57777
459.24         16.5594
459.68        16.44779
460.13        16.31641
460.57        16.23928
461.01        16.25408
461.46        16.32941
461.90        16.43093
462.34        16.49649
462.79        16.50445
463.23         16.4671
463.68        16.42373
464.12        16.44121
464.56        16.53376
465.01        16.68973
465.45        16.81404
465.89        16.82736
466.34        16.73218
466.78        16.46776
467.22        16.17297
467.67        16.23535
468.11        16.60677
468.55        16.78953
468.99        16.73409
469.44        16.70189
469.88        16.74849
470.32        16.92612
470.77        17.15969
471.21        17.20294
471.65        17.03048
472.10        16.82541
472.54        16.65919
472.98        16.59074
473.42        16.64736
473.87        16.81502
474.31        17.02167
474.75        17.14788
475.20        17.16902
475.64        17.11229
476.08         17.0329
476.52        17.01484
476.97        17.08127
477.41        17.20889
477.85        17.35021
478.29        17.46458
478.74        17.53895
479.18        17.49774
479.62         17.3919
480.06        17.59436
480.50        17.75154
480.95        17.90231
481.39        17.88799
481.83        17.83559
482.27        17.74591
482.72        17.48306
483.16         17.1684
483.60        17.20544
484.04        17.59515
484.48        17.87937
484.93        18.24244
485.37        18.65387
485.81        19.00636
486.25         19.4841
486.69        25.47794
487.14        20.29945
487.58        13.30376
488.02        16.08059
488.46        18.38494
488.90        18.39432
489.34        18.51299
489.79        18.40948
490.23        19.39926
490.67        19.97015
491.11        19.86487
491.55         19.7253
491.99        19.52461
492.43        19.30965
492.88        19.16799
493.32        19.19986
493.76        19.27017
494.20        19.48296
494.64        19.77284
495.08        20.11235
495.52        20.46922
495.96        20.81841
496.41        21.08839
496.85        21.25402
497.29        21.31722
497.73        21.07749
498.17        20.79205
498.61        20.97821
499.05        21.63641
499.49        21.75628
499.93        21.86138
500.37         21.9821
500.82        22.05576
501.26        22.29656
501.70        22.59039
502.14         22.7548
502.58        22.75882
503.02        22.77111
503.46        22.79917
503.90        22.72961
504.34        22.61197
504.78        22.58204
505.22        22.66129
505.66        22.82063
506.10        23.00113
506.54        23.09962
506.98        23.09258
507.42        23.01479
507.86         22.9418
508.30        22.98986
508.74        23.17974
509.18        23.46639
509.62        23.77374
510.06        23.97806
510.50        24.04657
510.94        24.02506
511.38         23.9602
511.82         23.9251
512.26        23.94561
512.70        23.99188
513.14        24.06794
513.58        24.18226
514.02        24.31659
514.46        24.46503
514.90        24.58036
515.34        24.55146
515.78        24.33909
516.22        24.12667
516.66        23.99326
517.10         23.6354
517.54        23.07819
517.98        23.86146
518.42        23.70088
518.86        24.04034
519.30        24.17989
519.74        24.34088
520.18        24.48966
520.62        24.54441
521.06        24.52181
521.50        24.42108
521.93        24.28236
522.37        24.18411
522.81         24.1474
523.25        24.15458
523.69        24.18796
524.13         24.2171
524.57        24.22899
525.01        24.23164
525.45        24.22191
525.89        24.19362
526.32        24.14415
526.76        24.07487
527.20        23.98656
527.64         23.8915
528.08        23.79857
528.52        23.68332
528.96        23.54926
529.40        23.46583
529.83        23.44932
530.27         23.2467
530.71          23.296
531.15        23.19095
531.59        23.06845
532.03        22.92713
532.46        22.82611
532.90        22.86025
533.34        23.02898
533.78        23.28773
534.22        23.54528
534.66        23.66972
535.09        23.62595
535.53        23.46544
535.97         23.2368
536.41        23.02431
536.85        22.86649
537.28        22.74937
537.72        22.67855
538.16        22.66387
538.60        22.70147
539.04        22.76931
539.47        22.85952
539.91        23.01426
540.35        23.19936
540.79        23.32072
541.22        23.36241
541.66        23.39552
542.10        23.42397
542.54        23.39462
542.97        23.36498
543.41        23.46664
543.85        23.70985
544.29        24.06321
544.72        24.42453
545.16        24.64196
545.60        24.68248
546.04        24.59034
546.47        24.47953
546.91        24.54306
547.35        24.81077
547.79        25.22379
548.22        25.65411
548.66        25.88127
549.10        25.87485
549.53        25.74899
549.97         25.6192
550.41        25.59573
550.84        25.72282
551.28         25.9741
551.72        26.31152
552.15        26.65955
552.59        26.97559
553.03        27.27217
553.46        27.52022
553.90        27.70262
554.34          27.826
554.77        27.86476
555.21        27.84649
555.65        27.90483
556.08        28.07168
556.52        27.97223
556.96        28.24719
557.39        28.34562
557.83        28.46291
558.27        28.58031
558.70        28.71116
559.14        28.85782
559.57        29.00616
560.01        29.16517
560.45        29.29757
560.88        29.34675
561.32        29.33046
561.75        29.25212
562.19        29.18335
562.63        29.19338
563.06        29.29199
563.50        29.46191
563.93        29.65708
564.37        29.81847
564.80        29.91846
565.24        29.98932
565.68        30.03987
566.11        30.08615
566.55        30.15929
566.98        30.24506
567.42        30.37095
567.85        30.57261
568.29        30.86924
568.72        31.15776
569.16         31.4471
569.60        31.85735
570.03         32.2364
570.47        32.25498
570.90        32.05954
571.34        31.68703
571.77        32.13792
572.21        32.40096
572.64        32.25089
573.08        32.25404
573.51        30.98862
573.95        32.38804
574.38        34.43006
574.82        33.80663
575.25        33.44103
575.69        32.44097
576.12        31.74333
576.56        31.60762
576.99        32.43441
577.42        33.81097
577.86        34.01801
578.29          33.644
578.73        35.41535
579.16         32.5261
579.60        29.71082
580.03        31.05478
580.47        33.19957
580.90        33.54934
581.33        33.08813
581.77        32.66086
582.20        35.59525
582.64         35.1331
583.07        29.89367
583.51        29.24969
583.94        28.71325
584.37        29.84457
584.81         31.0659
585.24        32.60575
585.68        33.46241
586.11        32.65212
586.54        30.29827
586.98         29.2809
587.41         29.7576
587.85        31.08962
588.28        31.96552
588.71        30.44738
589.15        29.39402
589.58        30.02206
590.01         30.1257
590.45        30.75428
590.88        30.80723
591.31        30.44802
591.75        30.27897
592.18        30.34561
592.61        31.04399
593.05        31.44449
593.48        33.10681
593.91         33.1729
594.35        30.44067
594.78        29.93923
595.21        30.16807
595.65        31.73009
596.08        32.91967
596.51        31.70948
596.94        30.93174
597.38         31.4487
597.81        33.04693
598.24        33.80284
598.68        33.53111
599.11        33.43652
599.54        35.07048
599.97        35.98305
600.41        34.14582
600.84        34.61682
601.27        35.69095
601.70        35.48064
602.14        35.95608
602.57         35.7965
603.00        36.42183
603.43        37.76973
603.87         39.2845
604.30        39.51728
604.73        38.70098
605.16        38.32882
605.60        39.44914
606.03         40.5298
606.46        41.63754
606.89        41.78356
607.32        41.09402
607.76        41.70912
608.19        43.27317
608.62        43.11476
609.05        42.78061
609.48        43.47153
609.92        43.76615
610.35        43.94829
610.78        45.93058
611.21         46.6595
611.64        44.99649
612.07        45.73312
612.50        46.28426
612.94        46.90508
613.37        46.90248
613.80        47.44614
614.23        48.21854
614.66        48.52316
615.09         48.9757
615.52        49.34319
615.96        49.69777
616.39        50.11928
616.82        49.78226
617.25        49.77206
617.68        50.74651
618.11        51.43176
618.54        51.88417
618.97        51.64743
619.40        51.05735
619.84        51.28479
620.27        52.28003
620.70        53.08606
621.13        53.48446
621.56        53.24045
621.99        52.60839
622.42        53.23547
622.85        54.72659
623.28        54.57819
623.71        53.93722
624.14        53.81298
624.57        53.66692
625.00        53.45539
625.43        53.67007
625.86        53.25613
626.29        53.39258
626.72        53.82524
627.15        53.42466
627.58        53.35742
628.01        53.19886
628.44        53.02213
628.87        52.88639
629.30        52.68634
629.73        52.57994
630.16        52.72132
630.59        51.84366
631.02        51.20407
631.45        50.52352
631.88        49.93949
632.31        49.47913
632.74        49.12243
633.17        48.81868
633.60        48.44633
634.03         47.9759
634.46        47.44858
634.89        46.88327
635.32        46.31079
635.75        45.75031
636.18        45.18926
636.61        44.65198
637.04        44.17479
637.47        43.75289
637.89        43.39093
638.32        43.03748
638.75        42.60234
639.18        42.07241
639.61        41.60944
640.04        41.03674
640.47         40.5984
640.90        40.24841
641.33         39.9703
641.76        39.73908
642.18        39.57705
642.61        39.47496
643.04        39.33485
643.47        39.12854
643.90        39.31532
644.33        39.08314
644.76        39.09444
645.18        39.09907
645.61        39.10497
646.04        39.10392
646.47        39.08944
646.90        39.14415
647.33         39.3671
647.75        39.79173
648.18        40.42363
648.61        41.07545
649.04         41.4764
649.47        41.58691
649.89        41.31446
650.32        41.02603
650.75         41.5868
651.18        42.90386
651.61        44.06433
652.03        44.77438
652.46         45.1273
652.89        45.42356
653.32        45.65221
653.74        46.09538
654.17        47.67636
654.60        48.53751
655.03        47.80708
655.46        49.23251
655.88        52.46494
656.31        57.02345
656.74        132.2091
657.16        85.67926
657.59        30.05627
658.02        22.84944
658.45        40.20007
658.87        52.16016
659.30        55.55474
659.73        54.62521
660.15         53.6067
660.58        55.82396
661.01        57.84499
661.44        56.49377
661.86        56.20736
662.29        56.42842
662.72        57.40929
663.14        58.98178
663.57        59.40306
664.00        58.82648
664.42        58.98909
664.85        59.96525
665.27        60.63967
665.70        60.84427
666.13        60.95833
666.55        60.97919
666.98        60.80408
667.41        60.59987
667.83        60.67474
668.26        61.08409
668.69        61.73763
669.11        62.42429
669.54        63.00664
669.96        62.80244
670.39         62.7904
670.82        62.30587
671.24        62.29569
671.67        62.65495
672.09        63.20727
672.52        63.71348
672.94        64.35767
673.37        64.01732
673.80        64.02669
674.22         64.1426
674.65         64.2828
675.07        64.44166
675.50        64.55714
675.92        64.65475
676.35        64.84062
676.77        65.12125
677.20        65.39668
677.62        65.66023
678.05        65.88165
678.47        66.03355
678.90        66.18079
679.32        66.35413
679.75        66.22271
680.17        66.44968
680.60        66.54715
681.02          66.665
681.45        66.61827
681.87        66.45049
682.30        66.36041
682.72        66.42519
683.15        66.58876
683.57        66.97178
684.00        67.44067
684.42        68.05389
684.85        68.39646
685.27        68.45571
685.70        68.31039
686.12        68.06942
686.54        67.98473
686.97        68.10969
687.39        68.28725
687.82        68.61134
688.24         68.8268
688.66         68.9324
689.09        68.96185
689.51        68.98911
689.94        69.10506
690.36        69.33256
690.78        69.61568
691.21        69.88641
691.63        70.06046
692.06        70.11885
692.48        70.09806
692.90        70.06388
693.33        70.10497
693.75        70.24667
694.17        70.47169
694.60        70.74358
695.02          70.966
695.44        71.08183
695.87        71.32571
696.29        71.68729
696.71        71.54205
697.14        71.11154
697.56        71.69962
697.98        73.00248
698.41        73.05058
698.83        72.22983
699.25        71.78249
699.68        71.91402
700.10        71.92549
700.52        71.83942
700.94        72.04929
701.37        72.48318
701.79        72.90466
702.21        73.22702
702.64        73.50914
703.06        73.67732
703.48        73.66214
703.90        73.48752
704.33        72.98628
704.75        72.59944
705.17        72.49795
705.59        72.77701
706.01        73.13442
706.44        73.41842
706.86        74.14737
707.28        74.26627
707.70         74.5101
708.12        74.60194
708.55        74.61643
708.97        74.55271
709.39         74.4023
709.81        74.24419
710.23        74.20305
710.66        74.31287
711.08         74.5798
711.50        74.87768
711.92        75.01514
712.34        74.95229
712.76        74.72682
713.19        74.48684
713.61        74.51704
714.03        74.85804
714.45        75.37576
714.87        75.93767
715.29         76.1353
715.71        75.92498
716.13        75.42001
716.56        74.84769
716.98        74.58791
717.40        74.72941
717.82        75.18801
718.24        75.78636
718.66        76.04956
719.08        76.15386
719.50        75.98478
719.92        75.73041
720.34        75.57446
720.76        75.58036
721.19        75.55311
721.61        75.70518
722.03        75.86211
722.45        76.06787
722.87        76.33067
723.29        76.59901
723.71        76.76978
724.13        76.81861
724.55        76.76861
724.97         76.6903
725.39        76.68554
725.81        76.81995
726.23        77.02215
726.65        77.23941
727.07        77.36476
727.49        77.38137
727.91        77.33998
728.33        77.27197
728.75        77.26505
729.17        77.34711
729.59        77.40876
730.01        77.46668
730.43        77.89169
730.85        78.11945
731.27         78.6096
731.69        79.04219
732.10        79.15638
732.52        78.89931
732.94        78.40283
733.36        77.92783
733.78        77.72475
734.20        77.86948
734.62        78.65044
735.04        79.73724
735.46        79.72147
735.88         78.8572
736.30        79.13651
736.72        80.51947
737.13        81.06377
737.55         80.5091
737.97        80.49066
738.39        81.00127
738.81        80.23241
739.23        78.74265
739.65        79.64818
740.06         82.3521
740.48        82.77077
740.90        81.01693
741.32        79.76359
741.74        80.48668
742.16        80.64419
742.57        80.64915
742.99        81.34839
743.41        82.50349
743.83        83.21468
744.25        83.31442
744.67        83.03272
745.08        82.60977
745.50        82.49358
745.92        82.81962
746.34        83.32946
746.75        83.80099
747.17        84.39246
747.59        84.22192
748.01         84.0666
748.42        83.87951
748.84        84.02858
749.26        84.59589
749.68        85.28118
750.09         85.9391
750.51        86.71867
750.93        87.35508
751.35         86.9584
751.76        85.82786
752.18        85.41568
752.60        85.75797
753.01        85.83561
753.43        85.66188
753.85        85.85601
754.27        86.41678
754.68        87.25137
755.10        88.20074
755.52        88.38439
755.93        88.83041
756.35        88.91405
756.77        89.07242
757.18        89.15591
757.60        89.22595
758.02        89.70432
758.43        90.17889
758.85         89.8647
759.26        88.00259
759.68        87.68195
760.10        89.07172
760.51         89.9781
760.93        90.24301
761.34        88.49319
761.76        88.33701
762.18        87.43243
762.59        87.14702
763.01        87.07449
763.42        88.40687
763.84        89.37971
764.26        90.07343
764.67        90.15446
765.09        89.70199
765.50        89.68897
765.92        89.87608
766.33        88.41055
766.75        85.97786
767.16        85.27113
767.58        86.50774
768.00        88.43104
768.41        90.52777
768.83        92.04758
769.24        92.40691
769.66          91.702
770.07        90.42694
770.49        88.62776
770.90        86.91451
771.32        87.79786
771.73         90.5265
772.15        90.12186
772.56        87.07697
772.97        86.56057
773.39        88.48695
773.80        89.30862
774.22        88.71059
774.63        88.59966
775.05        88.95704
775.46        89.11793
775.88        89.01128
776.29         88.7353
776.70        88.41626
777.12        88.38253
777.53         88.6937
777.95        89.16744
778.36        89.62025
778.77        89.71712
779.19         89.4362
779.60        88.94537
780.02          88.432
780.43        88.23974
780.84        88.60281
781.26        88.90262
781.67        89.14864
782.09        90.82239
782.50        93.13322
782.91        91.64713
783.33        88.59766
783.74        87.48513
784.15        88.92604
784.57        90.00104
784.98        90.24744
785.39        90.28947
785.81        90.02383
786.22         89.2863
786.63        88.51134
787.04        88.32884
787.46        88.86946
787.87        90.09719
788.28         91.5673
788.70        92.33833
789.11        92.20886
789.52        91.55483
789.93        90.72832
790.35        90.15892
790.76        89.98895
791.17        90.15176
791.58        90.51783
792.00        90.68989
792.41        90.55008
792.82        90.57113
793.23           90.84
793.65        90.26846
794.06        89.37901
794.47        90.91855
794.88        93.85885
795.29        93.74726
795.71        90.78502
796.12        88.20853
796.53        86.82407
796.94        86.27908
797.35        86.73576
797.76        88.09883
798.18        89.67096
798.59        90.76353
799.00        91.00739
799.41        89.74139
799.82        88.60065
800.23        87.71674
800.64        87.66299
801.06        87.98684
801.47         88.5839
801.88        89.15848
802.29        89.55202
802.70        89.90282
803.11        90.14448
803.52        90.13078
803.93        89.88687
804.34         89.4256
804.75        88.94028
805.17        88.92025
805.58        89.51476
805.99        90.09117
806.40        90.48304
806.81        91.61722
807.22        92.79385
807.63        91.37292
808.04        88.16379
808.45        86.75625
808.86        87.47079
809.27         88.4994
809.68        89.32596
810.09        89.81052
810.50        89.70389
810.91        89.09471
811.32        88.31329
811.73        87.82109
812.14        87.74182
812.55        88.06742
812.96         88.6648
813.37        88.82682
813.78        88.65168
814.19        89.29663
814.60        90.37784
815.01        90.40395
815.42        89.29579
815.83        87.73483
816.24        86.31969
816.65        85.82318
817.05        86.53804
817.46        88.20821
817.87        90.14182
818.28        91.08879
818.69        90.70471
819.10        89.29605
819.51        87.58641
819.92        86.85107
820.33        87.42382
820.74         88.7966
821.14        90.31337
821.55        91.07289
821.96        90.69974
822.37        89.04324
822.78        86.83118
823.19        85.62286
823.60         85.7111
824.00        86.51566
824.41        87.54828
824.82        88.28117
825.23          88.432
825.64        88.20493
826.04        87.81181
826.45        87.55505
826.86          87.525
827.27        87.57532
827.68         87.6708
828.08        87.82124
828.49        87.93259
828.90        88.09573
829.31        88.22279
829.72        88.12775
830.12        87.81405
830.53        87.32373
830.94        86.88292
831.35        86.79355
831.75        87.15878
832.16         87.8325
832.57        88.66465
832.97        89.31377
833.38        89.56889
833.79        89.51112
834.20        89.30249
834.60        89.19627
835.01        89.28332
835.42        89.47922
835.82        89.61426
836.23        89.32199
836.64        88.59782
837.04        87.60882
837.45        86.66824
837.86        86.26224
838.26        86.51086
838.67        87.22091
839.08        88.15154
839.48        88.84721
839.89         89.0966
840.29         89.0434
840.70        88.76537
841.11         88.3686
841.51        87.92849
841.92        87.37792
842.33        86.86293
842.73        86.65127
843.14        86.75003
843.54        87.14975
843.95        87.58368
844.35        87.65854
844.76         87.2767
845.17        86.59238
845.57        85.84702
845.98        85.42521
846.38        85.42353
846.79        85.68647
847.19        86.13078
847.60        86.49805
848.00        86.72446
848.41        86.85493
848.81        86.90231
849.22        86.80986
849.62        86.64752
850.03        86.41873
850.43        86.26551
850.84        86.34054
851.24        86.74149
851.65        87.22814
852.05        87.88002
852.46        88.61705
852.86        89.37096
853.27        90.18304
853.67        90.54309
854.07        89.80634
854.48        88.03751
854.88        85.47453
855.29        83.02352
855.69        81.99271
856.10        82.63007
856.50        84.78857
856.90        87.66598
857.31        89.39218
857.71        89.37325
858.12        88.06927
858.52        86.32324
858.92        85.27406
859.33        85.17256
859.73        85.71809
860.13        86.67629
860.54        87.55779
860.94        88.22127
861.34        88.75782
861.75        89.18291
862.15        89.61135
862.55        90.01715
862.96        90.29482
863.36        90.40661
863.76         90.2656
864.17        89.89097
864.57        89.42411
864.97        88.98196
865.38        88.70907
865.78         88.6976
866.18         88.8325
866.58        89.14226
866.99        89.64706
867.39        90.37932
867.79        91.35646
868.19        92.23205
868.60        92.35641
869.00        91.61772
869.40        90.17165
869.80        88.80482
870.21         88.7598
870.61        90.39297
871.01        93.33385
871.41        96.61033
871.81        98.55486
872.22        98.67547
872.62        97.43564
873.02        95.77174
873.42        95.18907
873.82         95.9968
874.22        97.77695
874.63        99.78732
875.03        100.4372
875.43         99.1562
875.83        96.88876
876.23        94.62183
876.63        94.07182
877.03        95.70492
877.44        99.91059
877.84        97.93908
878.24        109.4898
878.64        108.5363
879.04        104.7003
879.44        102.5981
879.84        101.2364
880.24        101.3055
880.64        102.5715
881.04        104.7714
881.44         106.097
881.84        105.4718
882.24        103.6031
882.65        101.6665
883.05        101.0515
883.45         102.004
883.85        104.1458
884.25        106.6393
884.65        107.9788
885.05        107.6807
885.45        106.2797
885.85        104.6754
886.25        104.0965
886.65        104.7859
887.05        106.3132
887.45        108.1185
887.85        109.2053
888.25        109.2231
888.65        108.5512
889.04        107.4832
889.44        106.5123
889.84        105.8204
890.24        105.2229
890.64        104.8378
891.04        104.8727
891.44        105.2987
891.84        106.0995
892.24        106.9047
892.64        106.9999
893.04        106.3036
893.44        105.1553
893.83        104.0119
894.23        103.5688
894.63        103.9469
895.03        104.8379
895.43        106.2143
895.83        107.9831
896.23        109.9195
896.63        112.0201
897.02        113.5593
897.42        113.3687
897.82        111.3788
898.22        108.0566
898.62        104.6234
899.01         102.879
899.41        103.2207
899.81        105.0443
900.21        107.5266
900.61        109.2952
901.00        109.8935
901.40        109.7575
901.80        109.1733
902.20        108.5893
902.59        108.1912
902.99        107.7572
903.39        107.3432
903.79        107.1041
904.18        107.0664
904.58        107.2972
904.98        107.6451
905.38        107.8244
905.77        107.7467
906.17        107.4703
906.57        107.1523
906.96        107.0892
907.36        107.2765
907.76        107.6427
908.15        107.9433
908.55          107.67
908.95        106.7944
909.34        105.4528
909.74        104.1422
910.14        103.4549
910.53        103.5826
910.93        104.4229
911.33         105.626
911.72        106.5522
912.12        106.9062
912.52        106.7904
912.91        106.6148
913.31        106.9718
913.70        108.0182
914.10        109.6485
914.49        111.2593
914.89        111.2196
915.29        109.1499
915.68        105.6941
916.08        102.5314
916.47        101.2399
916.87        101.9619
917.26        104.1936
917.66        106.7225
918.05        107.5557
918.45        106.1962
918.84        103.3422
919.24         100.335
919.64        99.15106
920.03        100.2882
920.42        103.1363
920.82        106.5995
921.21        108.8703
921.61        109.1761
922.00        108.1558
922.40        106.5301
922.79        105.2132
923.19        104.5042
923.58         104.191
923.98        104.1188
924.37        103.7688
924.77        103.1284
925.16        102.9479
925.55         102.635
925.95        103.5187
926.34        105.3571
926.74        107.6785
927.13        109.8426
927.52        110.6686
927.92        110.0413
928.31        108.3482
928.70        106.0942
929.10        104.1292
929.49        102.7327
929.89        101.7088
930.28        101.3195
930.67        101.9851
931.07        103.5494
931.46        105.9479
931.85        108.2486
932.24        109.0459
932.64        108.0708
933.03         105.572
933.42        102.2857
933.82        99.94832
934.21        99.11809
934.60        99.37802
934.99        100.1009
935.39         100.417
935.78        100.1665
936.17        99.68461
936.56        98.95452
936.96        98.43344
937.35        98.00035
937.74         97.7849
938.13         97.8997
938.53         98.7215
938.92        100.2484
939.31        102.5354
939.70        104.8899
940.09        105.5012
940.49        103.8496
940.88        100.7504
941.27        97.58392
941.66        95.95147
942.05        96.05718
942.44        97.38363
942.84        99.39592
943.23        101.2377
943.62        102.4007
944.01        103.0778
944.40        103.3168
944.79        103.1994
945.18        102.7793
945.57        101.9515
945.97        100.6612
946.36         99.1633
946.75        97.82534
947.14        96.83809
947.53        96.42527
947.92        96.71431
948.31        97.64458
948.70        99.21678
949.09        101.0958
949.48        102.3921
949.87        102.6634
950.26        102.0347
950.65        101.0106
951.04        100.4488
951.43        100.5663
951.82        101.1187
952.21        101.6933
952.60        101.6332
952.99        100.7876
953.38        99.41441
953.77        97.96172
954.16        97.03136
954.55        96.76405
954.94        97.03957
955.33         97.4197
955.72           97.17
956.11        96.15178
956.50        94.59209
956.89        93.20287
957.28        93.25607
957.66        95.12821
958.05        98.13513
958.44         101.362
958.83        103.4734
959.22        104.0855
959.61        103.4919
960.00        102.1602
960.39        100.8705
960.78        99.92108
961.16        99.19441
961.55        98.37756
961.94        97.03343
962.33        95.18992
962.72        93.16556
963.11         91.5703
963.49        91.13017
963.88        91.91886
964.27        93.79575
964.66        96.04458
965.04        97.12831
965.43        96.40349
965.82        94.42067
966.21        92.27663
966.60        91.41779
966.98        92.09724
967.37        93.82817
967.76        95.88348
968.15        96.86024
968.53        96.29933
968.92        94.68375
969.31        92.73685
969.69        91.36346
970.08        90.80152
970.47        90.81216
970.86        90.99718
971.24        90.70686
971.63         89.7338
972.02        88.28218
972.40        86.99362
972.79        86.90721
973.17        88.43207
973.56        91.16692
973.95         94.1732
974.33        95.64398
974.72        94.99327
975.11        92.80219
975.49        90.31441
975.88        89.25385
976.26        89.90459
976.65        91.90337
977.04        94.28699
977.42        94.68879
977.81        92.29966
978.19        88.15464
978.58        84.46093
978.96        83.47154
979.35        85.48936
979.74        89.92456
980.12        95.79059
980.51         99.5525
980.89        100.0186
981.28        98.20557
981.66        95.28103
982.05        92.74284
982.43        91.02394
982.82        89.69777
983.20        89.17891
983.59        90.27614
983.97        93.16682
984.35        97.88203
984.74        103.2937
985.12        106.8856
985.51         106.996
985.89        104.0485
986.28        99.10995
986.66        94.30433
987.04        90.92181
987.43        88.75082
987.81        87.56335
988.20        86.98753
988.58        86.81819
988.96        87.25098
989.35        88.79093
989.73        92.26828
990.12        96.65263
990.50        100.7312
990.88        102.7569
991.27        102.2659
991.65         99.7432
992.03        95.32415
992.42        90.41021
992.80        87.62775
993.18        87.88072
993.56        89.93397
993.95        92.28201
994.33        93.49036
994.71        93.24072
995.10        92.27769
995.48        90.83572
995.86        89.09809
996.24        87.22256
996.63        84.93439
997.01         82.8742
997.39         82.9761
997.77         85.8803
998.15        90.94453
998.54        96.06898
998.92        98.75583
999.30        98.19185
999.68        95.09939
1000.06        90.17093
1000.45        85.46828
1000.83        82.18008
1001.21        79.91328
1001.59         79.0787
1001.97        80.15531
1002.35        83.03693
1002.73        88.24026
1003.12        94.18875
1003.50        95.84818
1003.88         90.9292
1004.26        81.98966
1004.64        73.45145
1005.02        69.02331
1005.40        68.93765
1005.78           72.67
1006.16        81.19299
1006.54        91.45115
1006.92         97.5081
1007.30         99.5817
1007.69        99.68389
1008.07        99.72431
1008.45        100.3475
1008.83        100.8522
1009.21        101.2802
1009.59         102.373
1009.97        103.9914
1010.35        107.2174
1010.73        102.8178
1011.11         91.2342
1011.49        82.10402
1011.86        77.63992
1012.24        76.00944
1012.62        77.20602
1013.00        80.93759
1013.38        86.95518
1013.76        97.00778
1014.14        112.9923
1014.52        134.8697
1014.90         162.439
1015.28        188.2721
1015.66        198.2934
1016.04        184.1005
1016.41         146.851
1016.79        104.8011
1017.17        78.46101
1017.55        69.10587
1017.93        68.39454
1018.31        70.93161
1018.69        73.65073
1019.06        76.37341
1019.44        79.76453
1019.82        85.41293
1020.20         95.5575
1020.58        113.1719
1020.95        143.8671
1021.33        203.7108
1021.71       -576.5159
1022.09        58.87663
1022.46        96.71873
1022.84        110.6997
1023.22        119.5827
1023.60        131.8265
1023.97         226.134
1024.35        73.29987
1024.73        97.02303
