SpectraSmart Spectrum 2.9.0.0
--------- Device Information -----------
Spectrum Name :  反射率_0
Saving Time :  2024/04/26 00:54:26
Spectro-Module Model Name : SE2030-DUVN
Spectro-Module Serial Number : OS361AC55029948
Wavelength Start : 200
Wavelength End : 1025
Wavelength Unit : Wavelength(nm)
Spectrum Unit : Reflectance(%)
-----------Spectrum Setting ------------
Integration Time : 20ms
Average : 10
Boxcar : 0
Background removal :  enabled
linearity correction :  enabled
SC :  disabled
Intensity correction :  disabled
DWT denoise :  enabled
savitzky-golay :  disabled
FFT :  disabled
Running average :  disabled
Kalman :  disabled
High pass :  disabled
---------------BEGIN--------------------
Wavelength(nm)             Reflectance(%)
200.29               0
200.75        83.14676
201.21        76.49126
201.67        68.49882
202.13        63.79526
202.58        62.99899
203.04        64.95824
203.50        68.29656
203.96        70.62627
204.42        71.10249
204.88        70.60151
205.34        69.81142
205.80        69.30971
206.26        69.22851
206.72        69.43375
207.18         69.1944
207.64        65.88941
208.10        60.20997
208.55         56.6312
209.01        55.71706
209.47        56.52586
209.93        58.34031
210.39        61.33781
210.85        64.07018
211.31        63.24916
211.77        58.25866
212.23        50.54691
212.69        43.30563
213.14        41.59246
213.60        46.07722
214.06        55.32208
214.52        66.45229
214.98        74.92579
215.44        79.09154
215.90        80.08326
216.36        78.69189
216.81        75.93694
217.27        72.88782
217.73        69.46094
218.19        65.67232
218.65        61.28128
219.11        55.76384
219.57        48.28671
220.02        39.40761
220.48        34.09241
220.94        35.04185
221.40        41.50703
221.86        47.99187
222.32        48.64803
222.77        44.00179
223.23        37.03865
223.69        31.32913
224.15        30.61479
224.61        34.39455
225.06        40.90639
225.52         47.0057
225.98        48.73514
226.44        45.59306
226.90        39.40372
227.36        32.92433
227.81        29.88531
228.27        31.25124
228.73        35.46646
229.19        40.70271
229.65        44.23165
230.10         45.3938
230.56        45.25161
231.02        44.68488
231.48        44.66087
231.93        45.32223
232.39        46.23359
232.85        47.16188
233.31        47.87594
233.77        48.24999
234.22        48.40293
234.68        48.25287
235.14        47.55787
235.60         46.3782
236.05        44.90942
236.51        43.40715
236.97        42.11892
237.43         41.0972
237.88        40.30764
238.34        39.94379
238.80        40.54931
239.26        42.26719
239.71        45.03138
240.17        47.94359
240.63        49.87537
241.08        50.56108
241.54        50.18667
242.00        49.28959
242.46        48.61823
242.91        48.45195
243.37        48.43167
243.83        50.59558
244.28        68.74241
244.74        109.4631
245.20        112.6565
245.66        102.2251
246.11        96.25652
246.57        91.66821
247.03        82.50098
247.48        45.61343
247.94         15.6933
248.40        42.76179
248.85        56.66311
249.31        63.69336
249.77        68.65737
250.22        73.80223
250.68         80.9557
251.14        89.83976
251.59        93.64875
252.05        86.91583
252.51        73.60732
252.96        60.49888
253.42        53.40895
253.88        51.72204
254.33        53.36221
254.79        58.17072
255.25        65.11943
255.70        72.45573
256.16        79.64854
256.62        84.40271
257.07        84.45352
257.53        80.91737
257.99        74.90372
258.44        68.71801
258.90        65.89825
259.35        65.66187
259.81        66.68999
260.27        66.98021
260.72        64.62086
261.18        60.33949
261.63        54.98969
262.09        50.17971
262.55        47.08967
263.00        45.62385
263.46        45.21535
263.91        44.94279
264.37        44.11427
264.83        42.55935
265.28        40.46746
265.74        38.40453
266.19        36.96812
266.65        36.39186
267.11          36.345
267.56        36.33962
268.02        35.79391
268.47        34.59687
268.93        32.95388
269.38        31.21287
269.84        30.18667
270.30        30.06833
270.75        30.61556
271.21        31.32107
271.66        31.43401
272.12        30.77691
272.57        29.59158
273.03         28.3214
273.48         27.5521
273.94        27.43929
274.39        27.73393
274.85        28.11298
275.31        28.09964
275.76        27.58551
276.22        26.77752
276.67        25.90471
277.13        25.37868
277.58        25.22784
278.04        25.33125
278.49        25.44522
278.95        25.29729
279.40        24.81333
279.86        24.15635
280.31        23.45579
280.77        23.00861
281.22        22.82727
281.68        22.82794
282.13        22.88058
282.59        22.84033
283.04        22.66499
283.50        22.44628
283.95        22.19141
284.41        21.92797
284.86         21.6675
285.32        21.39951
285.77        21.19899
286.22        21.24283
286.68        21.51404
287.13        21.92973
287.59        22.28158
288.04        22.24957
288.50        21.81428
288.95        21.07871
289.41        20.28349
289.86        19.68787
290.32        19.41523
290.77         19.3704
291.22        19.49726
291.68        19.66929
292.13        19.84935
292.59        20.07895
293.04        20.37996
293.50        20.78369
293.95        21.27293
294.40        21.78781
294.86        22.27618
295.31        22.68043
295.77        22.99063
296.22         23.2344
296.68         23.4186
297.13        23.52653
297.58        23.59234
298.04        23.64494
298.49        23.77125
298.95        24.13684
299.40        24.75122
299.85        25.55715
300.31        26.41524
300.76        27.11137
301.21        27.57164
301.67        27.87942
302.12        28.07216
302.58        28.26414
303.03         28.4732
303.48        28.66833
303.94        28.91026
304.39        29.26209
304.84        29.72338
305.30        30.26546
305.75        30.74271
306.20        30.93815
306.66        30.84215
307.11        30.52421
307.57         30.1566
308.02        29.92282
308.47        29.90273
308.93        30.03564
309.38        30.26958
309.83        30.55069
310.29        30.83052
310.74        31.10985
311.19        31.34263
311.65        31.45528
312.10        31.43582
312.55        31.30585
313.00        31.09209
313.46        30.85838
313.91        30.62797
314.36        30.40326
314.82        30.24265
315.27        30.21537
315.72        30.33066
316.18         30.5667
316.63        30.82683
317.08         30.9256
317.53        30.81782
317.99        30.54396
318.44        30.22819
318.89         30.0755
319.35        30.12424
319.80        30.31738
320.25        30.51843
320.70        30.50144
321.16        30.21646
321.61        29.74611
322.06        29.22382
322.51        28.84868
322.97        28.66488
323.42        28.62115
323.87         28.6352
324.32        28.57269
324.78        28.39132
325.23         28.1431
325.68         27.8748
326.13        27.66185
326.59        27.52238
327.04        27.44591
327.49        27.40011
327.94        27.34209
328.39        27.25853
328.85        27.15157
329.30        27.07577
329.75        27.07957
330.20        27.17209
330.66        27.31844
331.11        27.47536
331.56        27.52824
332.01        27.44705
332.46        27.24513
332.92        26.98979
333.37        26.84151
333.82        26.83855
334.27        26.96023
334.72        27.09666
335.17        27.05771
335.63        26.80108
336.08        26.39128
336.53        25.99183
336.98        25.86814
337.43        26.07142
337.88        26.51759
338.34        26.99407
338.79        27.19977
339.24        27.03463
339.69        26.59806
340.14        26.08486
340.59        25.83503
341.05        25.93459
341.50        26.26655
341.95        26.68363
342.40        26.97639
342.85        27.08494
343.30        27.08938
343.75        27.00485
344.20        26.85585
344.66        26.66861
345.11        26.39891
345.56        26.13684
346.01        26.02209
346.46        26.06639
346.91        26.24927
347.36        26.40244
347.81        26.24978
348.26        25.76426
348.72        25.07319
349.17          24.384
349.62        24.11548
350.07        24.36064
350.52        24.96613
350.97         25.7145
351.42        26.27705
351.87        26.54482
352.32          26.603
352.77         26.4975
353.22        26.30594
353.67        26.07235
354.13        25.77978
354.58        25.45274
355.03        25.17523
355.48        24.97328
355.93        24.85338
356.38        24.79058
356.83        24.72592
357.28        24.63834
357.73        24.53433
358.18        24.43035
358.63        24.35332
359.08        24.30617
359.53        24.28005
359.98        24.23284
360.43        24.10381
360.88        23.88809
361.33        23.60466
361.78        23.33125
362.23        23.19427
362.68        23.21038
363.13        23.32812
363.58        23.44846
364.03        23.41559
364.48        23.19606
364.93        22.85112
365.38        22.44311
365.83        22.07261
366.28        21.78153
366.73        21.53803
367.18        21.36726
367.63         21.3095
368.08        21.35545
368.53         21.4937
368.98        21.63449
369.43        21.63189
369.88         21.4604
370.33         21.1625
370.78        20.82928
371.23        20.62119
371.68        20.58564
372.13        20.67197
372.58        20.83019
373.03        20.97145
373.48        21.05555
373.93        21.10916
374.38        21.12072
374.83        21.07053
375.28        20.96313
375.72        20.78848
376.17         20.6109
376.62        20.49974
377.07        20.47202
377.52        20.50508
377.97        20.55931
378.42        20.56776
378.87        20.50825
379.32         20.4006
379.77        20.25884
380.22        20.10051
380.67        19.93439
381.11        19.76038
381.56        19.57773
382.01        19.39516
382.46        19.22166
382.91         19.0614
383.36        18.93322
383.81        18.86199
384.26        18.84769
384.71        18.87937
385.15        18.91377
385.60        18.90165
386.05        18.82291
386.50        18.68401
386.95        18.52254
387.40        18.40764
387.85        18.36333
388.29        18.37209
388.74        18.39385
389.19        18.34594
389.64        18.21693
390.09        18.01787
390.54        17.83183
390.98        17.79565
391.43        17.93561
391.88        18.19259
392.33        18.42126
392.78        18.40946
393.23        18.14228
393.67        17.70183
394.12        17.26905
394.57        17.03171
395.02        17.02858
395.47        17.19229
395.91        17.43939
396.36        17.59511
396.81         17.6026
397.26        17.50077
397.71        17.34356
398.15        17.19359
398.60        17.09842
399.05        17.04096
399.50        16.97995
399.95        16.81167
400.39        16.60382
400.84        16.32787
401.29        16.09066
401.74        16.04855
402.18        16.24261
402.63        16.59742
403.08        16.98623
403.53        17.20637
403.97         17.2045
404.42        17.03737
404.87        16.78543
405.32        16.59337
405.76        16.50916
406.21        16.49249
406.66        16.51151
407.11        16.52672
407.55        16.52727
408.00        16.52678
408.45        16.51867
408.90        16.47598
409.34        16.39746
409.79        16.29125
410.24         16.1918
410.68        16.14871
411.13        16.17393
411.58        16.25573
412.03        16.36182
412.47        16.43637
412.92         16.4494
413.37        16.41581
413.81        16.36787
414.26        16.37325
414.71        16.43481
415.15        16.53265
415.60        16.60744
416.05         16.5843
416.49        16.44964
416.94        16.24547
417.39        16.02094
417.83        15.85932
418.28        15.79617
418.73        15.79631
419.17        15.85364
419.62        15.95069
420.07         16.0724
420.51        16.22389
420.96        16.34729
421.41        16.34227
421.85         16.1919
422.30        15.95017
422.74        15.69941
423.19        15.59417
423.64        15.64689
424.08        15.82335
424.53         16.0359
424.98        16.15817
425.42        16.15468
425.87        16.05523
426.31        15.90875
426.76        15.83822
427.21        15.84586
427.65        15.79027
428.10        15.72905
428.54        15.85185
428.99         16.1603
429.44        16.57038
429.88        16.91317
430.33        16.97739
430.77        16.73189
431.22         16.2437
431.66        15.72641
432.11        15.57028
432.56        15.80912
433.00        16.24767
433.45        16.67546
433.89        16.93564
434.34          16.907
434.78         16.4977
435.23        15.99724
435.67         15.9628
436.12        16.35005
436.57        16.58205
437.01        16.55942
437.46        16.53172
437.90        16.51412
438.35        16.43181
438.79         16.3175
439.24        16.26938
439.68        16.31064
440.13        16.34439
440.57        16.36617
441.02        16.59208
441.46        16.88233
441.91        16.66781
442.35        16.08905
442.80        15.82705
443.24        15.86991
443.69        15.96018
444.13        16.01836
444.58        15.91529
445.02        15.70222
445.47        15.73453
445.91        15.95743
446.36        15.99123
446.80        15.81295
447.24        15.63839
447.69        15.52331
448.13        15.45173
448.58        15.44541
449.02        15.50861
449.47        15.59499
449.91        15.62513
450.36        15.58469
450.80        15.49039
451.25        15.40129
451.69        15.39857
452.13        15.49754
452.58        15.65427
453.02        15.81096
453.47        15.87777
453.91        15.83745
454.36        15.72692
454.80        15.57699
455.24        15.43857
455.69        15.34471
456.13        15.27336
456.58        15.25732
457.02        15.32094
457.46        15.46533
457.91        15.67316
458.35        15.88242
458.79         15.9866
459.24         15.9732
459.68        15.85814
460.13        15.71845
460.57        15.63655
461.01         15.6516
461.46        15.73173
461.90        15.83698
462.34        15.89465
462.79        15.88295
463.23        15.81895
463.68        15.75288
464.12        15.76932
464.56        15.88469
465.01        16.07603
465.45        16.23856
465.89        16.27856
466.34         16.1934
466.78        15.92946
467.22        15.62123
467.67        15.64268
468.11        15.94912
468.55        16.06451
468.99        15.95403
469.44        15.88477
469.88        15.91453
470.32        16.09015
470.77        16.33579
471.21        16.40827
471.65        16.27657
472.10          16.114
472.54        15.98402
472.98         15.9365
473.42        15.99608
473.87         16.1515
474.31        16.33428
474.75        16.43172
475.20        16.42353
475.64        16.33632
476.08        16.23363
476.52        16.21195
476.97        16.29426
477.41        16.45274
477.85        16.62533
478.29        16.74463
478.74        16.79293
479.18        16.71011
479.62        16.55975
480.06        16.71884
480.50        16.85821
480.95        17.00756
481.39        17.01631
481.83         17.0044
482.27        16.96803
482.72        16.77715
483.16        16.52939
483.60        16.58216
484.04         16.9396
484.48        17.16795
484.93        17.44663
485.37        17.80592
485.81        18.19107
486.25        18.54372
486.69        24.51644
487.14        19.70076
487.58        12.70243
488.02        15.69161
488.46        17.71628
488.90        17.81889
489.34        17.75076
489.79        17.53831
490.23        18.42083
490.67         19.0579
491.11        19.16545
491.55        19.10834
491.99        18.85771
492.43         18.6599
492.88        18.59862
493.32         18.6242
493.76        18.62375
494.20        18.80733
494.64         19.1221
495.08        19.50837
495.52        19.90655
495.96        20.24969
496.41           20.46
496.85        20.53351
497.29        20.50313
497.73        20.22239
498.17        19.95015
498.61        20.16737
499.05        20.85788
499.49        21.01454
499.93        21.12869
500.37        21.24238
500.82         21.3006
501.26        21.51854
501.70        21.79055
502.14        21.93536
502.58         21.9329
503.02        21.96265
503.46        22.03312
503.90        22.03071
504.34        21.98255
504.78         21.9869
505.22        22.05688
505.66        22.17136
506.10        22.29472
506.54        22.36511
506.98        22.36913
507.42        22.32833
507.86        22.29256
508.30        22.33809
508.74        22.47694
509.18        22.67857
509.62        22.89058
510.06        23.02693
510.50        23.06743
510.94        23.04874
511.38        23.00075
511.82        22.97015
512.26        22.97478
512.70        22.99087
513.14        23.03851
513.58        23.15162
514.02        23.31598
514.46        23.51629
514.90         23.6792
515.34        23.65379
515.78        23.39409
516.22        23.09883
516.66        22.88055
517.10        22.48422
517.54        21.94708
517.98         22.8124
518.42        22.73218
518.86        23.12165
519.30        23.25902
519.74        23.38536
520.18        23.48203
520.62        23.49079
521.06        23.43794
521.50        23.31322
521.93        23.16019
522.37        23.06392
522.81        23.04432
523.25        23.08446
523.69        23.15082
524.13        23.18689
524.57         23.1753
525.01        23.12985
525.45        23.06844
525.89        23.02061
526.32        22.99086
526.76        22.96867
527.20        22.93151
527.64        22.85399
528.08        22.73782
528.52        22.57545
528.96        22.39007
529.40        22.27793
529.83        22.26313
530.27        22.09313
530.71        22.17736
531.15        22.12076
531.59        22.04605
532.03        21.95184
532.46        21.88412
532.90        21.91615
533.34        22.04571
533.78        22.23897
534.22        22.41982
534.66        22.47942
535.09        22.39173
535.53        22.20235
535.97        21.96545
536.41        21.77275
536.85         21.6586
537.28        21.60401
537.72        21.59451
538.16        21.60544
538.60          21.628
539.04        21.65664
539.47          21.699
539.91        21.81913
540.35        21.99245
540.79        22.11753
541.22        22.18896
541.66        22.29016
542.10        22.41826
542.54        22.51363
542.97        22.58914
543.41        22.70424
543.85        22.86204
544.29        23.06167
544.72        23.25348
545.16        23.36869
545.60         23.3973
546.04        23.35542
546.47        23.33898
546.91        23.50974
547.35        23.87915
547.79        24.39652
548.22        24.90682
548.66        25.14696
549.10        25.08313
549.53        24.83878
549.97        24.57663
550.41        24.48591
550.84        24.62774
551.28         24.9551
551.72        25.38575
552.15        25.76768
552.59        26.03906
553.03        26.23966
553.46        26.38015
553.90        26.49861
554.34        26.61474
554.77        26.68508
555.21        26.71314
555.65        26.79145
556.08        26.94089
556.52        26.81558
556.96        27.04726
557.39        27.13228
557.83        27.26283
558.27        27.41005
558.70        27.57223
559.14        27.73026
559.57        27.86405
560.01         27.9886
560.45        28.07783
560.88        28.09212
561.32        28.05345
561.75        27.96218
562.19        27.88027
562.63         27.8634
563.06         27.9208
563.50        28.04206
563.93        28.19411
564.37        28.33713
564.80        28.44688
565.24        28.54497
565.68        28.62946
566.11        28.70045
566.55        28.78189
566.98        28.86455
567.42        28.97392
567.85        29.14064
568.29        29.38481
568.72        29.62094
569.16        29.88498
569.60        30.24896
570.03        30.55991
570.47        30.64627
570.90         30.6825
571.34        29.97997
571.77         30.7243
572.21        30.84438
572.64        31.00309
573.08        30.59714
573.51        29.48603
573.95        30.81275
574.38        32.95301
574.82        32.06435
575.25         31.9134
575.69        30.71752
576.12         30.1653
576.56        30.06913
576.99        30.72819
577.42        32.32987
577.86        32.21196
578.29        31.66165
578.73        33.47385
579.16         30.7247
579.60        28.04268
580.03        29.24057
580.47        31.13684
580.90        31.66713
581.33        31.07994
581.77        30.64706
582.20        33.53388
582.64         33.0498
583.07        28.34685
583.51        27.73155
583.94        27.10671
584.37        28.07181
584.81        29.18381
585.24        30.65881
585.68         31.5699
586.11        30.77522
586.54        28.69513
586.98        27.86861
587.41        28.06343
587.85        29.27193
588.28        30.21036
588.71        28.76504
589.15        27.82936
589.58         28.2353
590.01        28.53884
590.45        29.09904
590.88        29.06031
591.31        28.74601
591.75        28.71515
592.18        28.76839
592.61        29.25614
593.05         29.8129
593.48        31.22003
593.91        31.35483
594.35        28.73352
594.78        28.20424
595.21        28.32102
595.65        29.79457
596.08        31.03907
596.51        29.85125
596.94        29.19106
597.38        29.69586
597.81        31.24877
598.24        31.96919
598.68        31.69294
599.11        31.59698
599.54        33.22913
599.97        34.02127
600.41         32.2384
600.84        32.63585
601.27        33.65183
601.70        33.37267
602.14        33.74017
602.57        33.64757
603.00         34.3822
603.43        35.61738
603.87        36.78259
604.30          36.917
604.73        36.18355
605.16        36.00925
605.60        36.91349
606.03        37.90955
606.46        38.70677
606.89        39.18402
607.32        38.18335
607.76        38.81501
608.19        40.22852
608.62        40.07177
609.05        39.70874
609.48        40.35831
609.92          40.725
610.35        40.67507
610.78        42.48547
611.21        43.25573
611.64        41.59575
612.07        42.28415
612.50        42.77842
612.94        43.35921
613.37        43.38098
613.80        43.77047
614.23        44.52305
614.66        44.72883
615.09        45.05342
615.52        45.32466
615.96        45.60365
616.39        45.92166
616.82        45.51132
617.25        45.38567
617.68        46.07073
618.11        46.68827
618.54        47.23119
618.97        47.03594
619.40        46.40257
619.84        46.57706
620.27        47.51369
620.70        48.24839
621.13        48.59354
621.56        48.29948
621.99        47.65314
622.42          48.265
622.85        49.80773
623.28        49.42486
623.71        49.11651
624.14        48.87681
624.57        48.75346
625.00        48.63152
625.43        48.71237
625.86        48.28809
626.29        48.33239
626.72        48.71097
627.15        48.30695
627.58        48.24993
628.01        48.14559
628.44         48.0173
628.87         47.8675
629.30        47.78912
629.73        47.73171
630.16         47.4998
630.59        47.08047
631.02        46.57531
631.45         46.0494
631.88        45.55931
632.31        45.12737
632.74        44.78542
633.17        44.42388
633.60        44.08036
634.03        43.71531
634.46        43.34441
634.89        42.96088
635.32         42.5532
635.75        42.12429
636.18        41.67708
636.61        41.22705
637.04        40.79798
637.47        40.39293
637.89        40.00808
638.32        39.62931
638.75        39.26031
639.18        38.90467
639.61        38.57094
640.04        38.25158
640.47        37.92787
640.90        37.59958
641.33        37.27129
641.76        36.95596
642.18        36.73074
642.61        36.60736
643.04        36.48302
643.47        36.32024
643.90        36.52802
644.33        36.34285
644.76        36.38267
645.18        36.41757
645.61        36.45738
646.04        36.49121
646.47        36.50941
646.90        36.56585
647.33        36.72125
647.75        37.00275
648.18         37.4241
648.61        37.86081
649.04        38.13388
649.47        38.22872
649.89        38.06703
650.32         37.9225
650.75        38.47314
651.18        39.64145
651.61         40.6221
652.03        41.19451
652.46        41.68166
652.89        42.28811
653.32        42.46085
653.74        42.44353
654.17        43.96075
654.60        44.76468
655.03        43.75142
655.46        44.94516
655.88        47.81164
656.31        51.71526
656.74        118.7728
657.16        77.19033
657.59        27.28724
658.02        20.72362
658.45        36.39085
658.87        47.03792
659.30        49.67928
659.73         49.0146
660.15         47.9133
660.58         50.1773
661.01        51.92885
661.44        50.52754
661.86        50.25419
662.29        50.57592
662.72        51.33216
663.14        52.51614
663.57         52.7468
664.00        52.22406
664.42        52.31669
664.85        53.08948
665.27        53.64496
665.70         53.8195
666.13        53.88611
666.55        53.83507
666.98        53.59243
667.41        53.32051
667.83        53.31376
668.26          53.615
668.69        54.15268
669.11        54.74025
669.54        55.15292
669.96        54.76802
670.39        54.85069
670.82        54.24065
671.24        54.04548
671.67        54.08029
672.09        54.55177
672.52        55.20977
672.94        55.83882
673.37        55.46105
673.80        55.49555
674.22        55.70295
674.65        55.80907
675.07        55.79806
675.50        55.69679
675.92        55.58693
676.35        55.63308
676.77        55.86105
677.20        56.16642
677.62        56.49184
678.05        56.72917
678.47        56.83417
678.90        56.91965
679.32        56.91612
679.75        56.87836
680.17         57.0113
680.60        57.13728
681.02        57.28794
681.45        57.24082
681.87        57.20355
682.30        57.08458
682.72        57.00562
683.15        56.95148
683.57        57.01827
684.00        57.33466
684.42        57.97635
684.85        58.28477
685.27        58.25249
685.70         58.1157
686.12        57.95932
686.54        57.87927
686.97        57.90889
687.39        58.03017
687.82        58.18427
688.24        58.31974
688.66        58.39806
689.09        58.44368
689.51        58.49033
689.94        58.56876
690.36        58.69814
690.78        58.85611
691.21        59.01414
691.63        59.15754
692.06        59.26295
692.48        59.28895
692.90        59.29919
693.33         59.3992
693.75        59.59827
694.17         59.9345
694.60        60.30629
695.02        60.34812
695.44        60.09182
695.87        60.17429
696.29        60.58894
696.71        60.52109
697.14        60.12951
697.56        60.54426
697.98        61.51254
698.41        61.73115
698.83        60.96609
699.25        60.65704
699.68         60.7928
700.10        60.79645
700.52        60.67942
700.94        60.77551
701.37        61.04779
701.79        61.32788
702.21        61.55087
702.64        61.77209
703.06        61.92656
703.48         61.9019
703.90         61.7042
704.33        61.36984
704.75        61.01981
705.17        60.92915
705.59        61.16327
706.01        61.54415
706.44        61.92484
706.86        62.59932
707.28        62.66556
707.70        62.81839
708.12        62.84386
708.55        62.80681
708.97        62.71482
709.39        62.55728
709.81        62.40412
710.23        62.36697
710.66        62.47057
711.08        62.71609
711.50        62.97598
711.92        63.05323
712.34        62.90878
712.76        62.59311
713.19        62.25635
713.61        62.16919
714.03        62.38133
714.45        62.81249
714.87        63.28157
715.29        63.50174
715.71        63.40708
716.13        63.08747
716.56        62.70909
716.98        62.56629
717.40        62.72633
717.82        63.09654
718.24        63.52686
718.66        63.76623
719.08        63.74622
719.50        63.55153
719.92        63.28886
720.34         63.1414
720.76        63.16494
721.19        63.19634
721.61        63.39015
722.03        63.55721
722.45        63.72814
722.87        63.89996
723.29        64.05038
723.71        64.19034
724.13        64.32028
724.55        64.20541
724.97        64.26958
725.39        64.24026
725.81        64.25089
726.23        64.28665
726.65        64.32619
727.07        64.32216
727.49        64.26954
727.91        64.19723
728.33        64.14639
728.75         64.1836
729.17        64.31886
729.59        64.51719
730.01        64.74523
730.43        64.94405
730.85        65.09472
731.27        65.23582
731.69        65.33511
732.10        65.32204
732.52        65.19589
732.94        65.01582
733.36        64.89571
733.78        64.89709
734.20        65.03985
734.62        65.55772
735.04        66.34154
735.46        66.30247
735.88        65.70438
736.30        66.12592
736.72        67.46661
737.13        68.00029
737.55        67.47116
737.97        67.27891
738.39        67.48495
738.81        66.69547
739.23        65.39422
739.65        66.16477
740.06        68.50079
740.48        68.86964
740.90         67.3176
741.32        66.62981
741.74        67.06768
742.16        67.31139
742.57        67.40759
742.99        68.07361
743.41         69.0825
743.83        69.66035
744.25        69.67465
744.67        69.32783
745.08        68.86263
745.50        68.67587
745.92        68.88629
746.34         69.3523
746.75        69.90394
747.17        70.23828
747.59        70.29551
748.01        70.22937
748.42        70.18298
748.84        70.27486
749.26        70.63201
749.68        71.30849
750.09        72.12698
750.51        72.85743
750.93        73.25982
751.35        72.80688
751.76        71.79094
752.18        71.38367
752.60        71.63172
753.01        71.70473
753.43        71.57056
753.85        71.72008
754.27        72.15576
754.68        72.68973
755.10        73.22119
755.52        73.63383
755.93        74.00148
756.35        74.14398
756.77        74.22298
757.18        74.26144
757.60        74.27741
758.02        74.75721
758.43        75.36006
758.85        74.56844
759.26        72.77014
759.68        72.67027
760.10        74.08809
760.51        74.96288
760.93        74.73054
761.34        73.86467
761.76        73.24287
762.18        72.54481
762.59        72.25257
763.01        72.70946
763.42        73.79933
763.84        74.54678
764.26        74.80325
764.67        74.86359
765.09        74.79135
765.50        74.86718
765.92        74.93173
766.33        73.94804
766.75        72.34977
767.16        71.74683
767.58        72.34898
768.00        73.58959
768.41        75.19988
768.83        76.44435
769.24         77.2318
769.66        76.61565
770.07        75.22352
770.49        73.65991
770.90        72.45527
771.32        73.42728
771.73        75.86621
772.15        75.53743
772.56        72.83197
772.97        72.17968
773.39        73.54813
773.80        73.93176
774.22          73.171
774.63        73.07423
775.05        73.59662
775.46         73.8595
775.88        73.76328
776.29        73.55428
776.70        73.33269
777.12         73.2891
777.53        73.47768
777.95        73.77328
778.36        74.03854
778.77        74.04572
779.19        73.78829
779.60         73.3465
780.02        72.90483
780.43        72.85131
780.84        73.31049
781.26        73.68475
781.67        73.94888
782.09         75.1018
782.50        76.55067
782.91        75.62603
783.33        73.05553
783.74        72.23346
784.15        73.33537
784.57        74.24033
784.98        74.53886
785.39        74.55373
785.81        74.22511
786.22        73.53207
786.63        72.86482
787.04        72.75385
787.46        73.27703
787.87        74.31258
788.28        75.49104
788.70         76.0761
789.11         75.8952
789.52        75.33469
789.93        74.65543
790.35        73.92822
790.76         73.4007
791.17        73.62569
791.58        74.43714
792.00        74.83854
792.41        74.66303
792.82        74.67388
793.23        74.95827
793.65        74.46161
794.06         73.6311
794.47        74.79813
794.88        77.11063
795.29         76.8937
795.71         74.3269
796.12         72.0489
796.53        70.79571
796.94        70.44093
797.35        71.11048
797.76        72.63712
798.18        74.30969
798.59        75.30067
799.00        75.21739
799.41        74.05868
799.82        72.43729
800.23        71.54576
800.64        71.65392
801.06        72.32497
801.47        73.29801
801.88        74.03537
802.29        74.32611
802.70        74.36335
803.11        74.24831
803.52        74.11578
803.93        74.04562
804.34        73.95162
804.75        73.86049
805.17        73.93348
805.58        74.22607
805.99         74.4102
806.40        74.42037
806.81         74.8795
807.22        75.39474
807.63        74.33121
808.04        72.22241
808.45        71.32954
808.86        71.85159
809.27        72.66784
809.68        73.39707
810.09        73.82986
810.50        73.77631
810.91        73.31337
811.32        72.70413
811.73        72.37141
812.14        72.42622
812.55        72.72453
812.96        73.14405
813.37        73.42598
813.78        73.49813
814.19        73.56395
814.60          73.549
815.01        73.25786
815.42          72.702
815.83        71.91307
816.24        71.21132
816.65        71.14355
817.05          71.856
817.46        73.16159
817.87        74.53854
818.28        75.04317
818.69        74.43996
819.10        72.96587
819.51        71.28201
819.92        70.51589
820.33         70.9595
820.74        72.27702
821.14        73.84792
821.55        74.55383
821.96        74.14048
822.37        72.98942
822.78        71.62637
823.19        70.82491
823.60        70.80134
824.00        71.34837
824.41        72.13242
824.82        72.70237
825.23        72.84878
825.64        72.73444
826.04        72.49165
826.45        72.29553
826.86        72.20064
827.27        72.11305
827.68        71.99717
828.08        71.84624
828.49        71.60719
828.90        71.37231
829.31        71.15279
829.72        70.94726
830.12        70.79986
830.53         70.6833
830.94        70.70387
831.35        70.99734
831.75        71.60952
832.16        72.43765
832.57        73.31779
832.97        73.89214
833.38        73.98042
833.79         73.6661
834.20        73.18584
834.60        72.90777
835.01        72.94689
835.42        73.19933
835.82        73.45222
836.23        73.26698
836.64        72.59814
837.04        71.62587
837.45        70.66125
837.86         70.1856
838.26        70.32104
838.67        70.88898
839.08        71.65607
839.48         72.1935
839.89        72.32001
840.29        72.17544
840.70        71.86815
841.11        71.55274
841.51        71.30112
841.92        71.03033
842.33        70.80225
842.73        70.74242
843.14        70.83109
843.54        71.08854
843.95        71.34756
844.35        71.37642
844.76         71.1151
845.17        70.65392
845.57        70.15418
845.98        69.87272
846.38        69.87198
846.79         70.0473
847.19        70.33047
847.60         70.5153
848.00        70.56757
848.41         70.5285
848.81         70.4431
849.22        70.29957
849.62        70.16125
850.03        70.02155
850.43         69.9726
850.84        70.11903
851.24        70.50952
851.65        70.94252
852.05        71.45773
852.46        71.94447
852.86        72.35589
853.27         72.7586
853.67        72.77686
854.07        71.95016
854.48        70.36043
854.88        68.19633
855.29        66.20782
855.69        65.47878
856.10        66.21092
856.50        68.27897
856.90        70.99917
857.31        72.74289
857.71        72.95824
858.12        72.00685
858.52          70.599
858.92        69.69302
859.33        69.51694
859.73        69.80424
860.13        70.39606
860.54        70.97088
860.94        71.43614
861.34        71.88162
861.75          72.269
862.15        72.60236
862.55        72.84448
862.96        72.96111
863.36        72.97871
863.76        72.93842
864.17        72.86936
864.57        72.82513
864.97        72.86148
865.38        73.04968
865.78        73.43428
866.18        73.90259
866.58        74.39358
866.99        74.79315
867.39        75.09743
867.79          75.361
868.19        75.40313
868.60        74.90244
869.00         73.8537
869.40        72.38819
869.80        71.15904
870.21        71.15975
870.61        72.65877
871.01        75.35452
871.41        78.38956
871.81         80.2771
872.22        80.60152
872.62        79.75677
873.02        78.47488
873.42         78.1543
873.82        78.88988
874.22        79.81174
874.63         80.6636
875.03        80.99054
875.43        80.51897
875.83        80.59694
876.23        78.99098
876.63        78.13406
877.03        77.77764
877.44        78.06092
877.84        106.2368
878.24        84.68827
878.64        85.72292
879.04        87.09692
879.44        82.44715
879.84         80.1805
880.24        85.35798
880.64        87.58868
881.04        87.92686
881.44        87.75647
881.84        86.77505
882.24         85.1115
882.65         83.7353
883.05        83.46582
883.45        84.43375
883.85        86.73834
884.25         89.5302
884.65        90.95427
885.05        90.48429
885.45          88.743
885.85        86.71401
886.25         85.7573
886.65         86.1553
887.05        87.44194
887.45        89.08705
887.85        90.15193
888.25        90.28188
888.65        89.82294
889.04        89.00043
889.44        88.18478
889.84        87.52683
890.24        86.88668
890.64        86.37322
891.04        86.18392
891.44        86.31931
891.84        86.77069
892.24        87.30629
892.64        87.45583
893.04        87.15589
893.44        86.62296
893.83        86.11461
894.23        86.02614
894.63        86.42104
895.03        87.07345
895.43        88.00423
895.83        89.23158
896.23        90.61278
896.63        92.13082
897.02        93.16881
897.42        92.74225
897.82        90.80525
898.22        87.79235
898.62        84.76479
899.01        83.27142
899.41        83.63519
899.81        85.31861
900.21        87.60077
900.61        89.28526
901.00        89.96255
901.40        89.99702
901.80        89.60155
902.20        89.11508
902.59        88.68806
902.99        88.14274
903.39        87.59155
903.79        87.28297
904.18        87.27592
904.58        87.62636
904.98        88.11536
905.38        88.35285
905.77        88.25032
906.17        87.89644
906.57        87.55183
906.96        87.67004
907.36        88.23816
907.76        89.09276
908.15        89.88341
908.55        89.93201
908.95        89.15314
909.34         87.7653
909.74         86.2353
910.14        85.10603
910.53        84.59242
910.93        84.59705
911.33        85.06032
911.72        85.87125
912.12        86.79353
912.52         87.7248
912.91        88.57738
913.31        89.26902
913.70        89.83862
914.10        90.29224
914.49        90.34941
914.89        89.44276
915.29        87.61765
915.68        85.21717
916.08        83.21585
916.47        82.44348
916.87        82.92616
917.26        84.42251
917.66        86.16513
918.05        86.89797
918.45        86.29283
918.84        84.76717
919.24        83.12633
919.64         82.5622
920.03        83.37323
920.42        85.15461
920.82         87.2848
921.21        88.80982
921.61        89.21747
922.00        88.85969
922.40        87.95648
922.79         86.8271
923.19        85.70222
923.58        84.31293
923.98        82.69118
924.37        81.72626
924.77        81.91917
925.16        79.50066
925.55        81.32948
925.95        82.10811
926.34        83.80019
926.74        85.90577
927.13         87.9796
927.52        88.97175
927.92        88.73137
928.31        87.60468
928.70        85.99536
929.10        84.63519
929.49        83.73304
929.89        83.12482
930.28        83.00043
930.67        83.67641
931.07        85.00365
931.46        86.96129
931.85        88.76966
932.24        89.25401
932.64        88.21989
933.03        85.84137
933.42        82.80531
933.82        80.69192
934.21        79.99097
934.60        80.32671
934.99        80.97449
935.39        81.25567
935.78        81.06528
936.17        80.03229
936.56          77.922
936.96        79.25229
937.35        77.72906
937.74        78.36581
938.13         79.0014
938.53         79.8232
938.92        80.86631
939.31        82.25129
939.70        83.67397
940.09        84.09075
940.49        83.22924
940.88          81.551
941.27        79.81882
941.66        78.93549
942.05        79.01889
942.44         79.7567
942.84        80.91798
943.23        82.16067
943.62        83.19147
944.01        84.07909
944.40        84.62582
944.79        84.52946
945.18         83.7261
945.57        82.17831
945.97        80.17841
946.36        78.59976
946.75        77.97546
947.14        78.12055
947.53        78.64716
947.92        79.09116
948.31        79.35895
948.70        79.58929
949.09        79.79852
949.48        79.98056
949.87        80.10257
950.26        80.06802
950.65        79.90345
951.04        79.69997
951.43        79.48735
951.82        79.29331
952.21        79.03107
952.60        78.56746
952.99        77.89757
953.38        77.04208
953.77        76.27361
954.16        75.96939
954.55        76.18607
954.94        76.89717
955.33        77.61559
955.72        77.51456
956.11        76.44047
956.50        74.57714
956.89          72.802
957.28        72.72911
957.66        74.80186
958.05        78.25232
958.44        81.84283
958.83         83.7363
959.22        83.48918
959.61         81.6112
960.00        78.92332
960.39        76.77755
960.78        75.65287
961.16        75.24518
961.55        75.13106
961.94        74.59177
962.33        73.48061
962.72         72.1552
963.11        71.10014
963.49        70.89814
963.88        71.61034
964.27        73.06534
964.66        74.72491
965.04        75.47565
965.43        74.87051
965.82        73.38097
966.21        71.77966
966.60        71.06302
966.98         71.4219
967.37        72.47681
967.76        73.90372
968.15        75.02162
968.53        75.51205
968.92        75.55951
969.31        75.23198
969.69        74.57437
970.08        73.66755
970.47        72.47373
970.86        71.19363
971.24        70.23589
971.63        69.76355
972.02          69.764
972.40        70.08295
972.79        70.35348
973.17        70.51846
973.56        70.54902
973.95        70.61642
974.33        70.97568
974.72        71.50653
975.11        71.96677
975.49        72.24689
975.88        72.38933
976.26        72.38373
976.65        72.29969
977.04        71.82624
977.42        70.35501
977.81        67.97964
978.19        65.08995
978.58        62.99682
978.96        62.90725
979.35         64.9277
979.74        68.88858
980.12        73.94421
980.51         77.0141
980.89        77.14465
981.28        75.09247
981.66        72.27323
982.05        70.51414
982.43        70.14749
982.82        70.51537
983.20        71.41853
983.59         72.6325
983.97         74.1004
984.35        76.05408
984.74        77.89918
985.12        78.49149
985.51        77.16863
985.89        74.01945
986.28        70.17648
986.66        67.44869
987.04        66.56954
987.43        67.10815
987.81         67.9985
988.20        67.83645
988.58        66.16433
988.96        62.70058
989.35         58.0498
989.73        55.93074
990.12        58.96202
990.50        65.51266
990.88        71.17907
991.27          72.519
991.65        70.04425
992.03        64.86649
992.42        59.15802
992.80        56.75665
993.18        58.77396
993.56        62.98356
993.95        67.59202
994.33        71.24657
994.71        73.46781
995.10        75.06336
995.48        75.71277
995.86        74.60779
996.24        71.66171
996.63        66.66437
997.01        60.89672
997.39        58.39852
997.77        60.94134
998.15        67.60127
998.54        75.00739
998.92        78.54683
999.30        76.80383
999.68        70.97666
1000.06        62.64283
1000.45        55.84983
1000.83        52.56977
1001.21        51.72357
1001.59        52.56483
1001.97        54.30053
1002.35        56.57383
1002.73        60.05318
1003.12        63.97874
1003.50        65.30762
1003.88        62.68641
1004.26        57.53286
1004.64        52.24075
1005.02        48.77308
1005.40          47.162
1005.78        46.75542
1006.16        48.73445
1006.54        54.69234
1006.92        61.87135
1007.30        67.45196
1007.69        70.54498
1008.07        71.78423
1008.45        71.60196
1008.83        69.28792
1009.21        60.93584
1009.59        33.28905
1009.97       -39.34382
1010.35       -134.6336
1010.73       -111.8445
1011.11       -47.69977
1011.49       -3.233111
1011.86        27.73479
1012.24         45.1227
1012.62        52.53148
1013.00        53.88633
1013.38        50.74778
1013.76        44.81586
1014.14        42.62162
1014.52        49.71959
1014.90        67.36581
1015.28        89.52898
1015.66        97.53242
1016.04        81.38985
1016.41        47.76884
1016.79        16.35093
1017.17        5.027085
1017.55        9.510716
1017.93         18.6617
1018.31        27.68305
1018.69        34.92386
1019.06        41.10959
1019.44        47.65289
1019.82         55.7507
1020.20        64.09669
1020.58        69.00291
1020.95        63.80376
1021.33        20.28612
1021.71        851.5552
1022.09        190.6023
1022.46        158.8972
1022.84          153.09
1023.22        161.6387
1023.60        196.3748
1023.97        562.2458
1024.35       -60.30169
1024.73        10.67218
