SpectraSmart Spectrum 2.9.0.0
--------- Device Information -----------
Spectrum Name :  反射率_0
Saving Time :  2024/04/26 00:42:13
Spectro-Module Model Name : SE2030-DUVN
Spectro-Module Serial Number : OS361AC55029948
Wavelength Start : 200
Wavelength End : 1025
Wavelength Unit : Wavelength(nm)
Spectrum Unit : Reflectance(%)
-----------Spectrum Setting ------------
Integration Time : 20ms
Average : 10
Boxcar : 0
Background removal :  enabled
linearity correction :  enabled
SC :  disabled
Intensity correction :  disabled
DWT denoise :  enabled
savitzky-golay :  disabled
FFT :  disabled
Running average :  disabled
Kalman :  disabled
High pass :  disabled
---------------BEGIN--------------------
Wavelength(nm)             Reflectance(%)
200.29               0
200.75         104.774
201.21        99.02707
201.67        91.03405
202.13        85.56851
202.58        83.56399
203.04        84.15484
203.50        85.82024
203.96        86.25738
204.42        85.06415
204.88        83.12981
205.34         82.1655
205.80        84.29154
206.26        90.99045
206.72        106.1649
207.18        135.7069
207.64        161.4325
208.10        144.5631
208.55        109.7358
209.01        88.05054
209.47        81.42094
209.93        83.72401
210.39        91.69519
210.85         101.867
211.31        106.5019
211.77        102.7328
212.23        93.58479
212.69         83.7757
213.14        80.50647
213.60          85.004
214.06        94.80927
214.52        106.0641
214.98         112.978
215.44        114.0017
215.90        111.4286
216.36        107.1443
216.81        103.4849
217.27        101.8018
217.73        101.2656
218.19        101.5904
218.65        102.7037
219.11        104.5264
219.57         107.012
220.02        110.7457
220.48        116.3901
220.94        122.3417
221.40        127.4862
221.86        128.1946
222.32         121.695
222.77        110.1682
223.23        97.41995
223.69         87.6839
224.15        85.43857
224.61        89.92593
225.06        98.82129
225.52        108.5957
225.98        114.4604
226.44        115.4232
226.90        113.1267
227.36        110.0459
227.81          109.63
228.27        112.7621
228.73        117.7571
229.19        122.5602
229.65         124.275
230.10        122.6044
230.56        119.4962
231.02        116.3515
231.48        114.7391
231.93        114.7545
232.39        115.7745
232.85        117.4245
233.31        119.3728
233.77        121.3485
234.22        123.5585
234.68        125.2771
235.14        125.1943
235.60        123.0972
236.05        119.4397
236.51        115.3807
236.97        112.4968
237.43        111.0556
237.88        110.7738
238.34        111.0628
238.80        111.1743
239.26        110.5964
239.71        110.0685
240.17        108.7032
240.63        105.7098
241.08        101.3925
241.54         96.1087
242.00         91.5574
242.46        89.90027
242.91        92.55147
243.37        102.3557
243.83         133.744
244.28        225.8802
244.74        308.4235
245.20        235.9798
245.66        182.1338
246.11        166.6986
246.57        171.1786
247.03        198.8128
247.48        279.9495
247.94        221.1992
248.40        129.6436
248.85        103.9482
249.31        96.92606
249.77        95.84299
250.22        97.74826
250.68        102.5546
251.14        110.3257
251.59        116.7397
252.05        116.9165
252.51          112.51
252.96        106.9412
253.42        104.6484
253.88        105.4969
254.33         107.766
254.79        111.7281
255.25        117.0192
255.70        122.4372
256.16        127.9546
256.62        131.8675
257.07         132.403
257.53        130.6502
257.99        127.1523
258.44        123.1727
258.90        121.4563
259.35        120.9579
259.81        121.1365
260.27        120.5373
260.72        117.7637
261.18        113.7433
261.63        108.7837
262.09         104.156
262.55        100.3049
263.00        97.16394
263.46         94.7724
263.91        92.62346
264.37        90.82234
264.83        89.00313
265.28        87.05755
265.74        85.01193
266.19        82.50346
266.65        79.97504
267.11        77.58045
267.56        75.46413
268.02        73.86762
268.47        72.58911
268.93        71.55473
269.38        70.68247
269.84        70.03015
270.30        69.56729
270.75        69.29784
271.21        69.00848
271.66        68.36265
272.12        67.32633
272.57         65.9566
273.03        64.63913
273.48        63.84051
273.94        63.68055
274.39        63.91404
274.85        64.19312
275.31        63.92309
275.76        62.97398
276.22        61.62124
276.67        60.12399
277.13        59.04229
277.58        58.39795
278.04        58.08213
278.49        57.80204
278.95        57.31662
279.40        56.49073
279.86        55.52489
280.31        54.47506
280.77        53.60402
281.22        52.90343
281.68        52.36724
282.13         51.8849
282.59        51.42045
283.04        50.91062
283.50        50.42974
283.95         49.9563
284.41        49.53052
284.86        49.11921
285.32        48.71877
285.77        48.30927
286.22        47.96451
286.68        47.67278
287.13        47.38382
287.59        47.01372
288.04        46.37891
288.50        45.52317
288.95        44.48998
289.41        43.48237
289.86        42.65218
290.32        42.10738
290.77        41.74969
291.22        41.55379
291.68        41.43208
292.13         41.3378
292.59        41.30355
293.04        41.29459
293.50         41.2751
293.95        41.22861
294.40        41.14446
294.86         41.0692
295.31        41.07703
295.77        41.19224
296.22        41.40091
296.68        41.64121
297.13        41.78131
297.58        41.81143
298.04        41.78569
298.49         41.8098
298.95          42.095
299.40        42.65244
299.85        43.40034
300.31        44.17718
300.76        44.73792
301.21        45.00942
301.67        45.10744
302.12        45.08106
302.58        45.08775
303.03        45.14257
303.48         45.2163
303.94        45.37385
304.39        45.66595
304.84        46.09582
305.30         46.6428
305.75        47.14118
306.20        47.35735
306.66        47.28002
307.11        46.96073
307.57        46.60377
308.02        46.41638
308.47        46.48313
308.93        46.73085
309.38        47.04722
309.83        47.29834
310.29        47.42921
310.74        47.46643
311.19          47.439
311.65        47.38421
312.10        47.30964
312.55        47.20511
313.00        47.04243
313.46        46.79464
313.91        46.46232
314.36        46.08724
314.82        45.76051
315.27        45.58573
315.72        45.59137
316.18        45.73325
316.63        45.93039
317.08        46.02514
317.53        45.96436
317.99        45.77365
318.44        45.52362
318.89         45.3339
319.35        45.22287
319.80        45.16843
320.25        45.07591
320.70        44.79933
321.16        44.32557
321.61        43.71812
322.06        43.11553
322.51         42.7219
322.97        42.56499
323.42        42.59597
323.87        42.68291
324.32        42.60385
324.78        42.29726
325.23        41.84725
325.68        41.34985
326.13        40.97271
326.59          40.758
327.04         40.6695
327.49        40.66204
327.94        40.67189
328.39        40.66859
328.85        40.66211
329.30        40.66695
329.75        40.63861
330.20        40.57494
330.66        40.46222
331.11        40.35893
331.56        40.31041
332.01        40.32741
332.46        40.38673
332.92        40.44937
333.37        40.50688
333.82        40.52398
334.27        40.52324
334.72        40.48078
335.17        40.36017
335.63        40.16442
336.08         39.9128
336.53        39.69484
336.98        39.66712
337.43        39.85413
337.88         40.2141
338.34        40.58652
338.79        40.76276
339.24        40.66196
339.69        40.34417
340.14        39.96419
340.59        39.79662
341.05        39.90622
341.50        40.20321
341.95        40.53975
342.40        40.70225
342.85        40.64382
343.30        40.44562
343.75        40.18143
344.20        39.98019
344.66        39.89017
345.11        39.83241
345.56        39.81117
346.01        39.83297
346.46        39.87957
346.91        39.96877
347.36        39.99339
347.81        39.77638
348.26        39.31629
348.72        38.70351
349.17        38.10933
349.62        37.89314
350.07        38.12708
350.52         38.6791
350.97        39.35173
351.42        39.84091
351.87        40.05094
352.32        40.06789
352.77        39.92764
353.22        39.69415
353.67        39.41102
354.13        39.06188
354.58        38.70483
355.03        38.48022
355.48        38.41122
355.93        38.47631
356.38        38.57082
356.83        38.51207
357.28        38.25816
357.73        37.86251
358.18        37.42313
358.63        37.09698
359.08        36.92631
359.53        36.86486
359.98        36.83646
360.43        36.72424
360.88        36.49886
361.33        36.19598
361.78        35.88602
362.23        35.68044
362.68         35.5982
363.13        35.59172
363.58        35.57698
364.03        35.42675
364.48        35.11585
364.93         34.6962
365.38        34.23473
365.83        33.83766
366.28        33.53963
366.73        33.30323
367.18         33.1222
367.63        32.98563
368.08        32.87933
368.53        32.81598
368.98        32.74148
369.43        32.56398
369.88        32.27423
370.33         31.8975
370.78        31.52223
371.23        31.30399
371.68          31.278
372.13        31.38982
372.58        31.55819
373.03        31.64209
373.48        31.59289
373.93         31.4576
374.38        31.25664
374.83        31.01904
375.28        30.76805
375.72        30.48543
376.17        30.23927
376.62        30.10514
377.07        30.09402
377.52        30.17703
377.97        30.29428
378.42        30.34281
378.87         30.2918
379.32        30.17423
379.77        30.00402
380.22        29.80309
380.67        29.58416
381.11        29.33707
381.56        29.09638
382.01        28.92919
382.46        28.84945
382.91        28.84793
383.36        28.85944
383.81        28.77397
384.26        28.57262
384.71        28.29135
385.15        28.00228
385.60        27.83409
386.05        27.79555
386.50        27.84084
386.95        27.90177
387.40        27.86622
387.85        27.71603
388.29        27.49647
388.74        27.28092
389.19        27.09632
389.64        26.95099
390.09        26.81633
390.54        26.72312
390.98        26.72342
391.43        26.82415
391.88        27.00052
392.33        27.15717
392.78        27.15005
393.23        26.97337
393.67        26.67093
394.12        26.39273
394.57        26.26618
395.02        26.31853
395.47        26.49481
395.91        26.74066
396.36        26.91862
396.81        26.98397
397.26         26.9588
397.71        26.85764
398.15        26.67958
398.60        26.48015
399.05        26.27118
399.50         26.0637
399.95        25.79755
400.39        25.59202
400.84        25.37044
401.29        25.21084
401.74        25.19791
402.18        25.35312
402.63        25.61714
403.08        25.91076
403.53        26.10294
403.97         26.1556
404.42        26.09995
404.87        25.96665
405.32        25.81577
405.76        25.67588
406.21        25.54639
406.66        25.44639
407.11        25.41169
407.55        25.44912
408.00        25.54027
408.45        25.65243
408.90        25.70304
409.34        25.66546
409.79        25.57009
410.24        25.45155
410.68        25.35707
411.13        25.30858
411.58        25.28866
412.03        25.30442
412.47        25.37591
412.92        25.48019
413.37        25.61056
413.81        25.73254
414.26        25.81439
414.71        25.83526
415.15        25.80494
415.60        25.71543
416.05        25.57589
416.49        25.40031
416.94        25.20568
417.39         25.0149
417.83        24.86455
418.28        24.77719
418.73        24.73859
419.17        24.75983
419.62        24.85365
420.07        25.00552
420.51        25.20284
420.96        25.37364
421.41        25.39901
421.85        25.25105
422.30        25.00115
422.74        24.71906
423.19        24.55676
423.64        24.52645
424.08        24.59961
424.53        24.71737
424.98        24.82274
425.42        24.89881
425.87        24.94229
426.31        24.95503
426.76        25.00693
427.21        25.07019
427.65        24.96195
428.10        24.78528
428.54        24.88629
428.99        25.29028
429.44        25.80016
429.88        26.19982
430.33        26.33979
430.77        26.12301
431.22         25.4278
431.66         24.5594
432.11        24.25937
432.56        24.57224
433.00        25.05261
433.45        25.46087
433.89        25.84925
434.34        26.02129
434.78        25.68808
435.23        24.93893
435.67        24.93804
436.12        25.51419
436.57         25.6819
437.01         25.3842
437.46        25.23459
437.90        25.30197
438.35        25.40541
438.79        25.46929
439.24        25.44817
439.68         25.3452
440.13        25.08438
440.57        24.80315
441.02        25.05103
441.46        25.66423
441.91        25.68916
442.35        25.18341
442.80        25.00524
443.24        25.11148
443.69        25.15636
444.13        25.08438
444.58         24.8018
445.02         24.4316
445.47        24.48647
445.91        24.86498
446.36        24.95291
446.80         24.7047
447.24        24.47412
447.69        24.33697
448.13        24.25032
448.58        24.24032
449.02        24.30763
449.47        24.40143
449.91        24.43761
450.36        24.39934
450.80        24.30845
451.25        24.20869
451.69        24.15294
452.13        24.15982
452.58        24.19723
453.02        24.25014
453.47        24.30202
453.91        24.34387
454.36        24.38902
454.80        24.41241
455.24        24.36421
455.69        24.25602
456.13        24.09821
456.58        23.97508
457.02        23.97602
457.46        24.12364
457.91        24.37182
458.35         24.6443
458.79        24.82098
459.24        24.87751
459.68        24.83002
460.13        24.73389
460.57        24.62276
461.01        24.54045
461.46        24.47941
461.90        24.43743
462.34        24.41027
462.79        24.38893
463.23        24.36709
463.68        24.38643
464.12         24.5205
464.56        24.76242
465.01        25.09756
465.45         25.3553
465.89        25.38452
466.34        25.18723
466.78        24.67875
467.22         24.0987
467.67        24.07309
468.11         24.5461
468.55         24.7794
468.99        24.68462
469.44        24.61456
469.88        24.64421
470.32        24.86162
470.77        25.18835
471.21        25.30841
471.65        25.18682
472.10        25.06238
472.54        24.99096
472.98        24.97333
473.42        25.03187
473.87        25.18023
474.31        25.35058
474.75        25.43448
475.20         25.4169
475.64        25.31591
476.08        25.20881
476.52        25.21202
476.97        25.34969
477.41        25.58784
477.85         25.8314
478.29        25.97614
478.74         25.9991
479.18        25.81122
479.62        25.51921
480.06        25.71534
480.50        25.89742
480.95        26.11032
481.39        26.12744
481.83        26.13818
482.27        26.13222
482.72        25.89961
483.16        25.56854
483.60        25.65666
484.04          26.171
484.48        26.41254
484.93         26.6712
485.37        27.10712
485.81        27.73295
486.25        27.91904
486.69        37.50306
487.14        30.09395
487.58        19.13633
488.02        23.59219
488.46        26.70307
488.90        26.86167
489.34        26.97126
489.79        26.63059
490.23        27.83008
490.67        28.46781
491.11        28.27312
491.55        28.20079
491.99         28.1595
492.43        28.01465
492.88        27.84618
493.32        27.91247
493.76        28.01165
494.20        28.24011
494.64        28.50859
495.08        28.80048
495.52        29.10132
495.96        29.41632
496.41        29.66019
496.85        29.81157
497.29          29.871
497.73        29.49608
498.17        29.06118
498.61         29.3989
499.05        30.47091
499.49        30.67666
499.93         30.7272
500.37        30.75142
500.82         30.7069
501.26        30.92867
501.70        31.27646
502.14        31.48773
502.58        31.50138
503.02        31.51881
503.46        31.54077
503.90        31.42249
504.34         31.2383
504.78        31.18392
505.22        31.28983
505.66        31.50574
506.10        31.74999
506.54        31.88337
506.98        31.87128
507.42        31.76205
507.86        31.64591
508.30        31.66076
508.74        31.83422
509.18        32.11265
509.62        32.41782
510.06        32.62353
510.50        32.69433
510.94        32.67884
511.38        32.61599
511.82        32.56482
512.26        32.55009
512.70        32.54633
513.14        32.57152
513.58        32.65895
514.02        32.79617
514.46        32.96827
514.90        33.11622
515.34        33.11279
515.78        32.91721
516.22        32.70537
516.66        32.55305
517.10        32.20093
517.54        31.67775
517.98        32.34517
518.42        32.19258
518.86        32.53257
519.30        32.74194
519.74          33.006
520.18        33.25119
520.62        33.33477
521.06         33.2578
521.50        33.04171
521.93        32.76908
522.37        32.58759
522.81        32.53955
523.25         32.5871
523.69        32.68405
524.13        32.75493
524.57        32.77377
525.01        32.76354
525.45        32.73458
525.89        32.70131
526.32        32.66578
526.76        32.61906
527.20        32.55375
527.64        32.47311
528.08        32.38663
528.52        32.27035
528.96        32.12737
529.40        32.04951
529.83        32.05907
530.27         31.8055
530.71        31.90503
531.15        31.83224
531.59        31.77228
532.03        31.70854
532.46        31.67944
532.90        31.74028
533.34        31.88151
533.78        32.07693
534.22        32.24881
534.66        32.28518
535.09        32.16239
535.53        31.93368
535.97        31.66279
536.41        31.45981
536.85        31.36371
537.28        31.34892
537.72        31.39449
538.16         31.4672
538.60        31.54965
539.04        31.62538
539.47        31.69279
539.91        31.83127
540.35        32.00495
540.79        32.07709
541.22         32.0575
541.66        32.09416
542.10        32.19395
542.54        32.27006
542.97        32.33984
543.41         32.4827
543.85        32.69714
544.29         32.9748
544.72        33.24324
545.16        33.40251
545.60        33.43296
546.04        33.35863
546.47        33.29274
546.91        33.42844
547.35        33.78565
547.79        34.31015
548.22        34.83426
548.66        35.07145
549.10        34.98654
549.53        34.72374
549.97        34.45807
550.41        34.37646
550.84        34.54173
551.28        34.90873
551.72        35.38258
552.15         35.7846
552.59        36.05037
553.03        36.23023
553.46        36.34418
553.90        36.45783
554.34        36.59394
554.77         36.6865
555.21        36.73594
555.65        36.86243
556.08        37.08754
556.52        36.93419
556.96        37.24783
557.39        37.29713
557.83        37.34843
558.27         37.3791
558.70        37.43535
559.14        37.57416
559.57        37.78326
560.01        38.04948
560.45        38.29513
560.88         38.4024
561.32        38.37139
561.75        38.22408
562.19        38.06088
562.63        37.95351
563.06        37.95137
563.50         38.1295
563.93        38.42319
564.37        38.65834
564.80        38.79101
565.24        38.92114
565.68        39.04788
566.11        39.14263
566.55        39.23923
566.98        39.33379
567.42         39.4596
567.85         39.6645
568.29        39.97705
568.72        40.26267
569.16        40.56683
569.60        41.05238
570.03        41.52718
570.47        41.61446
570.90        41.47757
571.34        40.80381
571.77        41.49514
572.21        41.48587
572.64         41.3367
573.08        41.07164
573.51        39.52045
573.95        41.32014
574.38        44.05996
574.82        42.75158
575.25         42.6235
575.69        41.13078
576.12        40.51233
576.56        40.34035
576.99        41.11855
577.42        43.09213
577.86        43.34423
578.29        42.98018
578.73        45.26649
579.16        41.63796
579.60        37.85796
580.03        39.45883
580.47        42.05699
580.90        42.62186
581.33         41.7141
581.77        41.46185
582.20         45.4325
582.64        45.48511
583.07        38.63359
583.51        37.80341
583.94         36.9603
584.37         38.3338
584.81        39.98309
585.24        41.93553
585.68        42.85705
586.11        42.10414
586.54        39.23532
586.98        37.55103
587.41        38.19673
587.85        40.05375
588.28        41.42619
588.71           39.28
589.15         38.2089
589.58        38.76367
590.01        39.10977
590.45        39.83281
590.88        39.89566
591.31        39.51078
591.75        39.44902
592.18        39.57283
592.61        40.36143
593.05        40.88861
593.48        42.66136
593.91        42.96839
594.35        39.57397
594.78        38.86699
595.21        38.82959
595.65         40.6675
596.08        42.24379
596.51        40.79432
596.94        39.96027
597.38        40.62403
597.81        42.41663
598.24        43.73868
598.68        43.24435
599.11        42.75224
599.54         44.6684
599.97         46.1452
600.41        43.49952
600.84        44.01323
601.27        45.13107
601.70        44.72691
602.14        44.92455
602.57        44.62645
603.00        45.44527
603.43        47.04841
603.87        48.74712
604.30        48.81675
604.73        47.54015
605.16        47.29091
605.60        48.21306
606.03        49.54839
606.46        50.76011
606.89        50.93637
607.32        50.04849
607.76        50.33435
608.19        52.31527
608.62         51.9291
609.05        51.31088
609.48        51.97826
609.92          52.184
610.35        52.45404
610.78        54.69336
611.21        55.24827
611.64        53.40859
612.07        54.19869
612.50        54.75615
612.94        55.39725
613.37        55.31287
613.80        55.71268
614.23        56.61742
614.66        56.61803
615.09        57.15685
615.52        57.40234
615.96        57.62784
616.39        57.95995
616.82        57.42717
617.25        57.31959
617.68        58.14233
618.11        58.95264
618.54        59.69781
618.97        59.62133
619.40        59.00339
619.84        59.15436
620.27        60.05181
620.70        60.66912
621.13        60.86751
621.56        60.58384
621.99         60.0424
622.42        60.71593
622.85        62.24157
623.28        61.90928
623.71        61.97541
624.14        61.78095
624.57        61.68212
625.00        61.26214
625.43        61.46054
625.86        60.81446
626.29        60.81045
626.72        60.82228
627.15        60.54536
627.58        60.50259
628.01        60.43538
628.44        60.35658
628.87        60.03341
629.30        59.90053
629.73        59.94736
630.16        59.93827
630.59        59.24111
631.02        58.64418
631.45        58.05059
631.88        57.51442
632.31        57.06432
632.74        56.69749
633.17        56.38053
633.60        56.03757
634.03        55.64834
634.46        55.23639
634.89        54.80833
635.32        54.37558
635.75        53.94503
636.18        53.50739
636.61        53.07241
637.04        52.65674
637.47        52.25954
637.89        51.88509
638.32        51.50286
638.75        51.09929
639.18        50.67907
639.61        50.25814
640.04        49.86082
640.47        49.51812
640.90         49.2387
641.33        49.01095
641.76        48.80714
642.18        48.65334
642.61        48.54297
643.04        48.36021
643.47        48.09189
643.90        48.33951
644.33        48.11139
644.76        48.21054
645.18        48.31135
645.61        48.38531
646.04        48.41169
646.47        48.39609
646.90        48.43205
647.33        48.63023
647.75        49.02862
648.18        49.63104
648.61        50.25237
649.04        50.60137
649.47        50.63762
649.89        50.34222
650.32        50.07761
650.75        50.54122
651.18         51.7107
651.61        53.00279
652.03        54.03039
652.46        54.52469
652.89        54.77784
653.32        54.70161
653.74         54.6533
654.17        56.54179
654.60        57.24286
655.03        56.07774
655.46        57.43083
655.88        61.16572
656.31        65.65034
656.74         153.494
657.16         100.645
657.59        35.23307
658.02        26.41663
658.45        45.93496
658.87        59.37785
659.30        62.38126
659.73        62.18353
660.15        59.89862
660.58        63.02391
661.01        65.12964
661.44        63.53866
661.86        63.19952
662.29        63.42644
662.72        64.28178
663.14        65.59861
663.57        65.87064
664.00        65.25884
664.42        65.32076
664.85        66.12763
665.27        66.65323
665.70        66.75747
666.13        66.82175
666.55        66.84364
666.98        66.70741
667.41        66.54034
667.83        66.60195
668.26        66.94373
668.69        67.45509
669.11        67.94302
669.54        68.43449
669.96        68.23701
670.39        67.94927
670.82         67.5853
671.24        67.53386
671.67         67.8894
672.09        68.44331
672.52        68.94164
672.94        69.58731
673.37        69.15385
673.80        69.06094
674.22        69.04885
674.65        69.07234
675.07        69.13804
675.50        69.15996
675.92          69.186
676.35        69.37006
676.77        69.71635
677.20        70.09966
677.62        70.47676
678.05        70.74101
678.47        70.84651
678.90        70.91354
679.32        71.00002
679.75        70.67589
680.17        70.87283
680.60         70.8597
681.02        70.88754
681.45        70.88461
681.87        70.86074
682.30        70.83389
682.72        70.85833
683.15         71.0193
683.57        71.35247
684.00        71.79906
684.42        72.37446
684.85        72.67104
685.27        72.67384
685.70        72.49838
686.12        72.24859
686.54        72.13591
686.97        72.22569
687.39         72.4136
687.82         72.5887
688.24        72.84424
688.66        73.17416
689.09        72.69818
689.51        73.07434
689.94        73.10669
690.36        73.29972
690.78        73.58064
691.21        73.88762
691.63        74.09873
692.06        74.16911
692.48        74.15161
692.90        74.13427
693.33        74.20546
693.75        74.38181
694.17        74.74755
694.60        75.18611
695.02        75.21162
695.44        74.86452
695.87        75.02014
696.29        75.65645
696.71        75.52501
697.14        74.85238
697.56        75.44684
697.98        76.98711
698.41        76.96694
698.83        76.16114
699.25        75.62027
699.68        75.66203
700.10        75.71014
700.52        75.48002
700.94        75.63815
701.37         76.0267
701.79        76.43793
702.21        76.77953
702.64        77.12018
703.06        77.37533
703.48        77.39534
703.90        77.18364
704.33        76.78085
704.75        76.33854
705.17        76.19991
705.59        76.45105
706.01        76.87796
706.44        77.30305
706.86        78.09909
707.28        78.14648
707.70        78.31269
708.12        78.34612
708.55        78.34121
708.97        78.30824
709.39        78.24416
709.81         78.1888
710.23        78.18059
710.66        78.23451
711.08        78.39584
711.50        78.56072
711.92        78.56683
712.34        78.39134
712.76        78.06932
713.19        77.77016
713.61        77.80144
714.03        78.19956
714.45        78.86807
714.87        79.54943
715.29        79.82536
715.71        79.60823
716.13        79.05961
716.56        78.42895
716.98        78.08565
717.40         78.1716
717.82        78.71507
718.24        79.48386
718.66        79.93297
719.08        79.93984
719.50        79.72382
719.92        79.42488
720.34        79.23813
720.76        79.23947
721.19        79.23036
721.61        79.41884
722.03         79.5912
722.45        79.78775
722.87        80.02137
723.29        80.26597
723.71         80.4623
724.13         80.5904
724.55        80.65145
724.97         80.6678
725.39        80.68955
725.81          80.731
726.23        80.78135
726.65        80.82684
727.07        80.84179
727.49        80.82771
727.91        80.80724
728.33        80.79805
728.75        80.82595
729.17        80.89393
729.59        80.98096
730.01        81.09731
730.43        81.24883
730.85        81.43629
731.27        81.69256
731.69        81.93602
732.10        82.01192
732.52        81.89594
732.94        81.66867
733.36        81.50523
733.78        81.58132
734.20         81.9382
734.62        82.78072
735.04        83.75926
735.46        83.98095
735.88         82.9025
736.30         83.0535
736.72        84.20904
737.13        84.66285
737.55        84.14635
737.97        84.15974
738.39        84.67252
738.81        83.80659
739.23        82.15736
739.65        83.14091
740.06         86.1348
740.48        86.57078
740.90        84.52181
741.32        83.58241
741.74        84.08505
742.16        84.33382
742.57        84.39349
742.99        85.18643
743.41        86.44387
743.83         87.2142
744.25        87.32924
744.67         87.0298
745.08        86.58364
745.50         86.4278
745.92        86.70057
746.34        87.23984
746.75        87.86097
747.17        88.25621
747.59        88.36714
748.01        88.31046
748.42        88.26248
748.84        88.48646
749.26        89.07227
749.68         89.8251
750.09        90.56884
750.51         91.3052
750.93        91.79348
751.35        91.30959
751.76        90.17519
752.18        89.76531
752.60        90.09976
753.01        90.24397
753.43        90.20811
753.85        90.46178
754.27        90.96033
754.68        92.29124
755.10         92.8758
755.52        93.45617
755.93         93.6054
756.35        93.73577
756.77        93.96641
757.18        94.00517
757.60        93.90248
758.02         94.3464
758.43        94.92573
758.85        94.20226
759.26        92.10435
759.68        91.94035
760.10        93.27918
760.51        94.73215
760.93        93.84059
761.34        92.96176
761.76         92.3155
762.18        91.36163
762.59        90.67169
763.01        91.05847
763.42         92.4821
763.84        93.68975
764.26        94.37472
764.67        94.58145
765.09        94.35218
765.50        94.24873
765.92        94.14889
766.33        92.76693
766.75        90.67875
767.16        89.93555
767.58        90.78107
768.00        92.37451
768.41        94.35454
768.83        96.17052
769.24        97.08858
769.66        96.54543
770.07        95.03472
770.49        93.09949
770.90        91.38581
771.32        92.26498
771.73        94.96388
772.15        94.40419
772.56        91.13519
772.97        90.57404
773.39        92.61421
773.80        93.46622
774.22        92.80119
774.63        92.69763
775.05        93.14509
775.46        93.39683
775.88        93.36574
776.29        93.17393
776.70        92.90744
777.12        92.82486
777.53         92.9805
777.95         93.2158
778.36        93.39287
778.77        93.27176
779.19        92.87572
779.60        92.30463
780.02        91.74533
780.43        91.68107
780.84        92.27902
781.26         92.5451
781.67        92.71364
782.09        94.47692
782.50        96.96664
782.91        95.87217
783.33        92.18359
783.74        91.00886
784.15        92.59069
784.57         93.8658
784.98        94.26729
785.39        94.11913
785.81        93.46104
786.22        92.77279
786.63        92.43185
787.04        92.47417
787.46        92.96756
787.87        94.10122
788.28        95.48411
788.70        96.16837
789.11        95.95431
789.52        95.31408
789.93         94.5422
790.35        93.66998
790.76         93.0143
791.17         93.3229
791.58        94.33807
792.00        94.81061
792.41        94.56454
792.82        94.25271
793.23        94.14502
793.65        94.01439
794.06        94.10244
794.47        95.40588
794.88        97.01653
795.29        96.90864
795.71        93.99611
796.12        91.66076
796.53        90.26305
796.94        89.97975
797.35        90.84029
797.76        92.24373
798.18        93.55859
798.59          94.496
799.00        94.69516
799.41        93.83337
799.82        92.41805
800.23        91.63818
800.64        91.73212
801.06        92.24911
801.47        93.01102
801.88        93.60548
802.29        93.86205
802.70        93.94505
803.11        93.90615
803.52        93.79309
803.93        93.66988
804.34        93.48506
804.75        93.30801
805.17        93.40518
805.58        93.86907
805.99        94.18757
806.40        94.26479
806.81        95.04378
807.22        95.93552
807.63        94.50004
808.04        91.50726
808.45        90.28387
808.86        91.11617
809.27        92.34289
809.68        93.39993
810.09        93.99449
810.50        93.86012
810.91        93.08351
811.32        92.06444
811.73         91.5441
812.14        91.65675
812.55        91.94554
812.96        92.31243
813.37        92.78905
813.78         93.2691
814.19        93.73078
814.60        93.96524
815.01        93.69485
815.42        92.90766
815.83        91.64303
816.24        90.37196
816.65        89.93672
817.05        90.58622
817.46         92.0517
817.87        93.72931
818.28        94.50925
818.69        94.08611
819.10        92.73583
819.51        91.12888
819.92        90.40969
820.33         90.8748
820.74        92.16116
821.14        93.63921
821.55        94.19184
821.96        93.58002
822.37        92.19279
822.78        90.59898
823.19         89.6395
823.60        89.54236
824.00        90.09258
824.41        90.91881
824.82         91.5556
825.23        91.77955
825.64        91.76943
826.04        91.63003
826.45         91.5052
826.86        91.44579
827.27        91.35107
827.68        91.25654
828.08        91.29393
828.49        91.40791
828.90         91.6579
829.31        91.90555
829.72        91.87939
830.12        91.55002
830.53        90.97977
830.94        90.45274
831.35        90.34991
831.75        90.79215
832.16        91.61937
832.57        92.59724
832.97        93.23365
833.38        93.28606
833.79        92.89005
834.20        92.36896
834.60        92.21432
835.01        92.55872
835.42        93.24662
835.82        93.93228
836.23        93.93881
836.64        93.17677
837.04        91.90527
837.45        90.60142
837.86        90.01595
838.26        90.33741
838.67        91.27847
839.08        92.49075
839.48        93.33139
839.89        93.52476
840.29        93.29638
840.70        92.77003
841.11        92.10759
841.51        91.41696
841.92        90.60747
842.33        89.87984
842.73        89.59737
843.14        89.77788
843.54        90.39382
843.95        91.07098
844.35        91.23254
844.76        90.73401
845.17        89.77471
845.57        88.71162
845.98        88.11053
846.38        88.11024
846.79        88.50948
847.19        89.12592
847.60        89.52062
848.00         89.5932
848.41        89.46289
848.81        89.26799
849.22         89.1328
849.62        89.17227
850.03        89.33371
850.43        89.66435
850.84        90.13636
851.24        90.76501
851.65        91.31896
852.05        91.94118
852.46        92.66055
852.86         93.4456
853.27        94.32645
853.67        94.69045
854.07        93.74471
854.48        91.56272
854.88        88.45071
855.29        85.53155
855.69        84.43189
856.10        85.46437
856.50        88.42484
856.90        92.26048
857.31        94.51625
857.71        94.38114
858.12        92.49559
858.52         90.0247
858.92        88.54914
859.33        88.41195
859.73        89.17876
860.13        90.51745
860.54        91.72926
860.94        92.57105
861.34        93.21275
861.75        93.65293
862.15        93.96828
862.55        94.14842
862.96        94.07519
863.36         93.8415
863.76        93.59555
864.17        93.41184
864.57        93.37351
864.97        93.43384
865.38        93.47735
865.78        93.53075
866.18        93.54024
866.58        93.66611
866.99        94.15435
867.39         95.1037
867.79        96.46387
868.19        97.73788
868.60        98.00297
869.00        97.07638
869.40        95.19911
869.80        93.33517
870.21        93.01049
870.61        94.65331
871.01         97.7916
871.41        101.3366
871.81        103.4167
872.22        103.4798
872.62        102.1097
873.02        100.2741
873.42        99.46208
873.82        100.0706
874.22        101.7679
874.63        103.9188
875.03        105.1383
875.43        104.7815
875.83        103.2332
876.23        102.1428
876.63        102.5031
877.03        104.9653
877.44        109.9755
877.84        94.75919
878.24         117.323
878.64         114.685
879.04        108.8542
879.44        107.0038
879.84        105.9277
880.24        105.2357
880.64        106.9133
881.04        110.4727
881.44        112.7291
881.84        112.0109
882.24        109.3566
882.65        106.3807
883.05        105.1159
883.45        105.9206
883.85        108.1772
884.25        110.9836
884.65         112.757
885.05        112.9087
885.45        111.9815
885.85        110.7987
886.25        110.4724
886.65        111.2453
887.05         112.721
887.45        114.3704
887.85        115.2821
888.25        115.1501
888.65        114.3202
889.04         113.181
889.44        112.3664
889.84        112.0497
890.24        112.0049
890.64        112.1165
891.04        112.2289
891.44        112.2633
891.84        112.3212
892.24        112.3135
892.64        112.0374
893.04        111.5457
893.44        110.9856
893.83        110.5723
894.23         110.676
894.63        111.3201
895.03        112.3004
895.43        113.6133
895.83        115.2023
896.23        116.8906
896.63        118.6638
897.02        119.8838
897.42        119.5399
897.82        117.5974
898.22        114.4732
898.62        111.3243
899.01        109.8393
899.41        110.3669
899.81        112.3191
900.21        114.8106
900.61        116.3752
901.00        116.5661
901.40        115.8715
901.80        114.7073
902.20        113.7226
902.59        113.1647
902.99        112.7761
903.39        112.5514
903.79        112.5201
904.18        112.6517
904.58        113.0264
904.98        113.5103
905.38        113.8495
905.77        113.9479
906.17        113.8377
906.57        113.6128
906.96        113.4908
907.36        113.4681
907.76         113.504
908.15        113.4505
908.55        112.9573
908.95        112.0329
909.34        110.7681
909.74        109.5672
910.14        108.8617
910.53        108.8129
910.93        109.3917
911.33        110.3102
911.72          111.04
912.12         111.339
912.52        111.2538
912.91         111.219
913.31        111.9021
913.70        113.4655
914.10        115.8096
914.49        118.1906
914.89        118.5204
915.29        116.2534
915.68        112.1998
916.08        108.3479
916.47        106.6072
916.87        107.1793
917.26        109.4441
917.66        112.1507
918.05        113.2321
918.45         112.144
918.84        109.6309
919.24        106.9406
919.64        105.8958
920.03        106.9737
920.42        109.5614
920.82        112.7331
921.21        115.0289
921.61        115.7224
922.00         115.302
922.40        114.2199
922.79        112.9893
923.19        111.8137
923.58        110.7033
923.98        109.6881
924.37        108.4214
924.77        107.1025
925.16        107.2154
925.55        106.6752
925.95        107.8159
926.34        109.9074
926.74        112.5456
927.13        115.0864
927.52        116.3738
927.92        116.2793
928.31        115.1043
928.70        113.2639
929.10         111.483
929.49        110.0248
929.89        108.7591
930.28        108.0193
930.67        108.3473
931.07        109.6469
931.46        111.8199
931.85        114.0204
932.24          114.96
932.64        114.3751
933.03        112.5389
933.42        109.9394
933.82        107.8145
934.21        106.6193
934.60        106.1135
934.99        106.1323
935.39          106.29
935.78        106.4963
936.17        107.2164
936.56        108.3425
936.96        107.5742
937.35        107.2539
937.74         105.719
938.13        104.5881
938.53        104.5992
938.92        105.7268
939.31         107.832
939.70        110.2156
940.09        111.1272
940.49        109.9608
940.88        107.4449
941.27        104.7597
941.66        103.2691
942.05        103.1768
942.44        104.0652
942.84        105.4476
943.23        106.6158
943.62        107.1761
944.01        107.2938
944.40        107.2166
944.79        107.3384
945.18        107.7527
945.57        108.3152
945.97        108.5477
946.36        107.6836
946.75          105.76
947.14        103.4786
947.53        101.6199
947.92        100.7992
948.31        100.9911
948.70        101.9801
949.09        103.5685
949.48        105.1873
949.87        106.4258
950.26        107.3218
950.65        107.8214
951.04         107.941
951.43        107.7354
951.82        107.1367
952.21        106.2723
952.60        105.4548
952.99         104.789
953.38        104.2273
953.77        103.7728
954.16        103.3531
954.55        102.9543
954.94        102.7069
955.33        102.4293
955.72        101.7965
956.11        100.7937
956.50        99.46519
956.89        98.42016
957.28        98.75703
957.66        100.7632
958.05        103.8653
958.44        107.0418
958.83        108.7683
959.22        108.6848
959.61        107.1312
960.00        104.9387
960.39        103.5028
960.78         103.233
961.16        103.8258
961.55        104.4835
961.94        103.8863
962.33        101.8122
962.72         98.8856
963.11        96.13711
963.49        94.85196
963.88        95.25796
964.27        97.06088
964.66        99.48781
965.04         100.883
965.43        100.4872
965.82        98.85629
966.21        97.05701
966.60        96.50701
966.98        97.44323
967.37        99.36111
967.76        101.4059
968.15         101.977
968.53        100.6657
968.92        98.14552
969.31         95.4144
969.69        93.72842
970.08        93.38643
970.47         94.0141
970.86        95.15967
971.24        96.05288
971.63        96.35136
972.02        96.26395
972.40        96.12833
972.79        96.43927
973.17        97.47866
973.56        98.90551
973.95        100.2443
974.33        100.6187
974.72         99.7632
975.11        98.01443
975.49        96.23048
975.88        95.63328
976.26        96.38857
976.65        98.27329
977.04        100.4069
977.42        100.6044
977.81        98.14642
978.19        93.99304
978.58        90.31644
978.96         89.3311
979.35        91.34693
979.74        95.83622
980.12        101.8903
980.51        106.0401
980.89        107.0576
981.28        105.8073
981.66        103.3839
982.05        101.2778
982.43        99.87232
982.82         98.7551
983.20        98.20699
983.59        98.83586
983.97        100.7773
984.35        104.0826
984.74        107.7966
985.12        110.0068
985.51        109.4253
985.89        106.4533
986.28        102.0799
986.66        98.13028
987.04        95.64167
987.43        94.38815
987.81        93.94498
988.20        93.78827
988.58        93.73567
988.96        93.94741
989.35        94.89254
989.73        97.85522
990.12        102.1313
990.50        106.4209
990.88        108.7507
991.27        108.4344
991.65        105.9189
992.03         101.495
992.42        96.47973
992.80        93.36564
993.18        93.12328
993.56        94.60068
993.95        96.58962
994.33         97.9842
994.71        98.46784
995.10         98.6759
995.48        98.50515
995.86        97.63764
996.24        96.07301
996.63        93.51624
997.01        90.95657
997.39        91.09272
997.77           94.84
998.15        101.3602
998.54         107.647
998.92        109.8708
999.30        106.9554
999.68        99.87144
1000.06        90.55834
1000.45        83.87582
1000.83         81.8597
1001.21        82.99387
1001.59        85.83335
1001.97          88.815
1002.35        91.56449
1002.73        95.11674
1003.12        98.44095
1003.50        98.61243
1003.88        94.47004
1004.26        87.47564
1004.64        81.24049
1005.02        79.06743
1005.40         81.3669
1005.78        88.53822
1006.16        100.7713
1006.54         110.686
1006.92        111.5392
1007.30         107.027
1007.69        102.4272
1008.07        100.9044
1008.45         102.867
1008.83        108.8855
1009.21        123.1411
1009.59        151.0893
1009.97        182.9679
1010.35        170.0989
1010.73        112.1025
1011.11        86.58812
1011.49        82.02209
1011.86        84.23862
1012.24        86.76816
1012.62        87.88551
1013.00        88.02447
1013.38        87.55997
1013.76        88.79072
1014.14        98.22161
1014.52        120.7847
1014.90        157.7286
1015.28        200.2702
1015.66         225.393
1016.04        217.7602
1016.41        178.9368
1016.79        128.2075
1017.17        90.60357
1017.55        72.05654
1017.93        64.29905
1018.31        62.82084
1018.69        65.50715
1019.06         71.8237
1019.44         83.2373
1019.82        102.7942
1020.20        130.7457
1020.58        167.1566
1020.95        216.7461
1021.33        308.3791
1021.71       -1170.985
1022.09        5.054211
1022.46        67.31407
1022.84         85.5986
1023.22        89.60461
1023.60        81.38097
1023.97       -48.73342
1024.35        182.3429
1024.73         162.691
