SpectraSmart Spectrum 2.9.0.0
--------- Device Information -----------
Spectrum Name :  反射率_0
Saving Time :  2024/04/26 00:17:14
Spectro-Module Model Name : SE2030-DUVN
Spectro-Module Serial Number : OS361AC55029948
Wavelength Start : 200
Wavelength End : 1025
Wavelength Unit : Wavelength(nm)
Spectrum Unit : Reflectance(%)
-----------Spectrum Setting ------------
Integration Time : 20ms
Average : 10
Boxcar : 0
Background removal :  enabled
linearity correction :  enabled
SC :  disabled
Intensity correction :  disabled
DWT denoise :  enabled
savitzky-golay :  disabled
FFT :  disabled
Running average :  disabled
Kalman :  disabled
High pass :  disabled
---------------BEGIN--------------------
Wavelength(nm)             Reflectance(%)
200.29               0
200.75        91.03633
201.21        90.04988
201.67         86.7541
202.13        82.53836
202.58        77.93951
203.04        72.97708
203.50        68.45382
203.96        66.15581
204.42        66.31358
204.88        68.09263
205.34        70.19617
205.80        71.26561
206.26        71.03505
206.72        69.43916
207.18        65.08408
207.64        58.74717
208.10        56.81575
208.55        58.43303
209.01        60.70328
209.47        63.21781
209.93        66.16743
210.39        70.34631
210.85        74.21201
211.31        73.95825
211.77        68.77283
212.23        60.09584
212.69        52.01733
213.14        50.98752
213.60        57.85912
214.06        70.83185
214.52        85.22034
214.98        93.74085
215.44        94.52357
215.90        89.87814
216.36        82.97706
216.81        78.23136
217.27        77.01541
217.73        77.80267
218.19        78.54214
218.65        76.48695
219.11         70.5603
219.57        60.23043
220.02        46.94886
220.48        39.13498
220.94        41.59878
221.40         52.0821
221.86        62.36291
222.32        63.92498
222.77        57.58632
223.23        48.00185
223.69        39.79654
224.15        37.65985
224.61        41.10971
225.06        47.84718
225.52        54.54057
225.98        57.02244
226.44         54.6391
226.90        49.25562
227.36        43.44043
227.81        40.62793
228.27        41.75523
228.73        45.32385
229.19        49.69215
229.65        52.47146
230.10        53.09034
230.56        52.54359
231.02        51.62499
231.48        51.18683
231.93        51.33472
232.39        51.70577
232.85        52.04187
233.31        52.06674
233.77        51.67625
234.22        51.01068
234.68        50.13251
235.14        49.10711
235.60        48.09288
236.05        47.19117
236.51        46.47623
236.97        45.96278
237.43        45.64969
237.88        45.56621
238.34        45.87968
238.80        47.06087
239.26        49.14234
239.71        52.00485
240.17        54.67636
240.63        56.03949
241.08        55.93369
241.54        54.66055
242.00        52.99023
242.46        51.89414
242.91        51.78582
243.37        52.67269
243.83         58.4076
244.28        88.71704
244.74        144.1733
245.20        140.3672
245.66        123.6049
246.11        117.6542
246.57        118.5606
247.03        126.0035
247.48        141.1441
247.94        102.8538
248.40        79.13302
248.85        75.56615
249.31        76.49907
249.77        79.38998
250.22        84.28582
250.68        92.40391
251.14        103.6942
251.59        111.0004
252.05        107.0944
252.51        95.06456
252.96        81.77219
253.42        73.78889
253.88        70.59171
254.33        70.01393
254.79        71.48405
255.25        73.65601
255.70        75.67101
256.16        77.88984
256.62        79.09626
257.07        77.97724
257.53        75.17085
257.99        70.95691
258.44        66.67598
258.90        64.79391
259.35        64.47491
259.81         64.8494
260.27        64.33737
260.72        61.40508
261.18        56.78749
261.63        51.23728
262.09         46.2123
262.55        42.76981
263.00        40.88636
263.46        40.08915
263.91        39.60871
264.37        38.86368
264.83        37.67199
265.28        36.13845
265.74        34.69651
266.19        33.74356
266.65        33.42841
267.11          33.476
267.56        33.48425
268.02        32.96645
268.47        31.84129
268.93        30.29033
269.38        28.61124
269.84        27.53304
270.30         27.2424
270.75         27.5454
271.21        28.03918
271.66        28.12077
272.12        27.63289
272.57        26.76384
273.03        25.84639
273.48        25.30312
273.94        25.24726
274.39        25.48125
274.85        25.74866
275.31         25.6783
275.76        25.18684
276.22        24.43781
276.67        23.62623
277.13          23.112
277.58        22.91752
278.04        22.94774
278.49         22.9815
278.95        22.76283
279.40        22.23073
279.86        21.54201
280.31        20.83153
280.77        20.39904
281.22        20.25769
281.68        20.31483
282.13        20.43824
282.59        20.47447
283.04        20.37596
283.50        20.22571
283.95        20.02223
284.41         19.7768
284.86        19.50259
285.32        19.20022
285.77        18.95276
286.22        18.94506
286.68        19.16998
287.13        19.54959
287.59         19.8952
288.04        19.91917
288.50         19.5965
288.95        19.01126
289.41        18.36695
289.86        17.87371
290.32        17.63754
290.77        17.57513
291.22        17.64008
291.68        17.72366
292.13        17.79943
292.59        17.90722
293.04        18.07631
293.50        18.34838
293.95        18.71449
294.40         19.1206
294.86        19.51807
295.31        19.85022
295.77        20.10535
296.22        20.30926
296.68        20.46309
297.13        20.54258
297.58        20.57494
298.04        20.58153
298.49        20.64725
298.95        20.93485
299.40        21.45283
299.85        22.14596
300.31        22.86594
300.76        23.38904
301.21        23.64754
301.67        23.73188
302.12        23.71563
302.58        23.75332
303.03         23.8723
303.48         24.0307
303.94        24.24775
304.39        24.52569
304.84        24.85395
305.30        25.22389
305.75        25.54332
306.20        25.67496
306.66        25.61819
307.11         25.4104
307.57        25.16406
308.02        24.98504
308.47        24.93087
308.93        24.96517
309.38        25.06859
309.83        25.23583
310.29        25.43416
310.74        25.65179
311.19        25.83024
311.65        25.87828
312.10        25.78086
312.55        25.56935
313.00        25.28068
313.46        24.99031
313.91        24.72744
314.36        24.49267
314.82        24.33401
315.27        24.31072
315.72        24.42488
316.18        24.65125
316.63        24.90466
317.08        25.02126
317.53        24.95505
317.99        24.73784
318.44        24.45895
318.89        24.26718
319.35         24.1976
319.80        24.21709
320.25        24.24146
320.70        24.13257
321.16        23.86541
321.61        23.49215
322.06        23.11523
322.51        22.88524
322.97        22.82381
323.42        22.88547
323.87        22.96891
324.32        22.90763
324.78        22.65781
325.23        22.27971
325.68        21.85394
326.13        21.51309
326.59         21.2983
327.04        21.18826
327.49        21.15058
327.94        21.13242
328.39         21.1128
328.85        21.10111
329.30        21.12532
329.75        21.19705
330.20        21.31234
330.66        21.43653
331.11        21.55262
331.56        21.59767
332.01        21.55515
332.46        21.43177
332.92        21.26173
333.37        21.12972
333.82        21.06092
334.27        21.05376
334.72        21.06291
335.17        21.00693
335.63        20.86719
336.08        20.66935
336.53        20.49756
336.98        20.48779
337.43        20.66245
337.88        20.98338
338.34            21.3
338.79        21.41183
339.24        21.25061
339.69         20.8719
340.14        20.45719
340.59        20.32244
341.05        20.52697
341.50        20.96545
341.95        21.43318
342.40        21.63116
342.85        21.49702
343.30           21.14
343.75        20.68282
344.20        20.34167
344.66        20.19271
345.11         20.1346
345.56         20.1536
346.01        20.22549
346.46        20.31733
346.91        20.45879
347.36        20.52805
347.81        20.32289
348.26        19.83999
348.72        19.17522
349.17        18.52602
349.62        18.30306
350.07        18.59165
350.52        19.24761
350.97        20.04165
351.42        20.62059
351.87        20.87635
352.32        20.90574
352.77        20.77542
353.22        20.59718
353.67        20.42378
354.13        20.22462
354.58        20.01751
355.03        19.87432
355.48        19.80884
355.93        19.82359
356.38        19.87399
356.83        19.87196
357.28        19.79185
357.73        19.65027
358.18        19.48259
358.63        19.34734
359.08        19.26151
359.53        19.21325
359.98        19.16268
360.43        19.05003
360.88        18.86722
361.33        18.63098
361.78        18.41093
362.23        18.31889
362.68        18.36454
363.13        18.49743
363.58        18.61485
364.03        18.55725
364.48        18.29575
364.93        17.89868
365.38        17.44361
365.83        17.05412
366.28        16.78076
366.73        16.58765
367.18        16.49507
367.63        16.53359
368.08         16.6817
368.53        16.91847
368.98        17.14657
369.43        17.21058
369.88        17.08317
370.33        16.81492
370.78        16.48158
371.23        16.22116
371.68        16.08376
372.13        16.02372
372.58         16.0526
373.03        16.18277
373.48        16.38951
373.93        16.66781
374.38        16.90784
374.83        16.93804
375.28        16.73421
375.72         16.3341
376.17        15.89907
376.62        15.65751
377.07        15.67127
377.52        15.87037
377.97        16.14297
378.42        16.30478
378.87        16.29981
379.32        16.18653
379.77        16.02483
380.22        15.89779
380.67         15.8289
381.11        15.78984
381.56        15.74552
382.01        15.65423
382.46        15.50657
382.91        15.31903
383.36        15.13701
383.81        15.02583
384.26        14.99833
384.71        15.03855
385.15        15.07382
385.60        15.00528
386.05        14.81163
386.50        14.51758
386.95        14.22119
387.40        14.09244
387.85        14.16494
388.29        14.37307
388.74        14.59144
389.19        14.64465
389.64        14.50864
390.09        14.23235
390.54        13.93342
390.98        13.80866
391.43        13.91096
391.88        14.16244
392.33        14.42511
392.78        14.49832
393.23        14.35453
393.67        14.06575
394.12        13.77257
394.57        13.61769
395.02        13.63134
395.47        13.75829
395.91        13.93073
396.36         14.0115
396.81        13.96046
397.26        13.81258
397.71        13.62368
398.15        13.45955
398.60         13.3627
399.05         13.3182
399.50        13.28072
399.95         13.1491
400.39        12.97201
400.84        12.73232
401.29        12.52921
401.74        12.51402
402.18        12.72474
402.63        13.08785
403.08        13.47766
403.53        13.69564
403.97        13.69026
404.42        13.51807
404.87        13.26384
405.32        13.07946
405.76        13.01437
406.21        13.02479
406.66        13.07033
407.11        13.09725
407.55        13.09242
408.00        13.07587
408.45        13.05173
408.90          13.014
409.34         12.9666
409.79        12.90823
410.24        12.86124
410.68        12.86067
411.13        12.91335
411.58         13.0113
412.03        13.12259
412.47        13.19166
412.92         13.1911
413.37        13.13336
413.81        13.05426
414.26        13.02487
414.71        13.05179
415.15        13.12004
415.60        13.16832
416.05        13.11687
416.49        12.95256
416.94        12.71898
417.39        12.48011
417.83        12.34349
418.28        12.34562
418.73        12.43995
419.17        12.58926
419.62         12.7296
420.07        12.83787
420.51        12.93001
420.96        12.97848
421.41        12.93458
421.85        12.79631
422.30        12.60021
422.74        12.40096
423.19        12.30733
423.64        12.32595
424.08        12.43471
424.53        12.57603
424.98        12.67142
425.42        12.69679
425.87        12.66852
426.31        12.60004
426.76        12.55332
427.21         12.5212
427.65        12.39983
428.10        12.26561
428.54        12.31752
428.99        12.56711
429.44        12.93132
429.88        13.24902
430.33         13.3075
430.77        13.07872
431.22        12.63703
431.66        12.16834
432.11        12.01382
432.56         12.2085
433.00        12.54997
433.45         12.8798
433.89        13.18392
434.34        13.31611
434.78        12.98518
435.23        12.44555
435.67        12.33424
436.12        12.62139
436.57        12.74033
437.01        12.63516
437.46        12.59141
437.90        12.62629
438.35        12.65801
438.79        12.66248
439.24        12.63954
439.68        12.59379
440.13        12.47714
440.57         12.3392
441.02        12.42275
441.46        12.64049
441.91        12.53763
442.35        12.17444
442.80        12.00884
443.24        12.01742
443.69        12.02833
444.13         11.9899
444.58        11.82423
445.02        11.58256
445.47        11.52279
445.91         11.6164
446.36        11.61135
446.80        11.49336
447.24        11.41192
447.69        11.38415
448.13        11.35617
448.58        11.33421
449.02        11.33112
449.47         11.3314
449.91        11.30871
450.36        11.26232
450.80        11.19435
451.25        11.13807
451.69        11.13545
452.13        11.19531
452.58        11.29285
453.02        11.39468
453.47        11.44245
453.91        11.42702
454.36        11.36963
454.80          11.291
455.24        11.22771
455.69        11.19998
456.13        11.18944
456.58        11.21217
457.02        11.27428
457.46        11.37768
457.91        11.51507
458.35        11.65258
458.79        11.72618
459.24        11.73137
459.68        11.67046
460.13        11.60225
460.57         11.5856
461.01        11.64719
461.46        11.76083
461.90        11.88127
462.34          11.924
462.79        11.87042
463.23        11.74068
463.68        11.60419
464.12        11.57636
464.56        11.68487
465.01        11.89454
465.45        12.09697
465.89        12.17585
466.34        12.12161
466.78        11.91137
467.22        11.66519
467.67        11.69359
468.11        11.97164
468.55        12.12885
468.99        12.12565
469.44        12.14578
469.88        12.22656
470.32        12.41108
470.77        12.63274
471.21        12.69223
471.65        12.56559
472.10        12.39116
472.54        12.24174
472.98        12.19853
473.42        12.28828
473.87        12.49056
474.31         12.7204
474.75        12.83603
475.20        12.81226
475.64        12.68733
476.08        12.54537
476.52        12.51626
476.97        12.62769
477.41        12.83755
477.85         13.0664
478.29        13.21114
478.74        13.24439
479.18        13.13741
479.62        12.95726
480.06        13.02533
480.50        13.09308
480.95        13.17149
481.39        13.15109
481.83        13.13685
482.27        13.12656
482.72        13.01975
483.16        12.86319
483.60         12.9114
484.04        13.16971
484.48        13.25177
484.93        13.34965
485.37        13.68983
485.81         14.2007
486.25        14.41887
486.69        19.00327
487.14         15.1565
487.58         10.1066
488.02        12.27116
488.46        13.87724
488.90        13.90981
489.34        14.02748
489.79        13.95795
490.23        14.64751
490.67        15.13358
491.11        15.17896
491.55        15.05256
491.99        14.74612
492.43        14.49308
492.88        14.37775
493.32        14.35523
493.76        14.34598
494.20        14.51818
494.64        14.82777
495.08        15.22444
495.52        15.64359
495.96        16.00425
496.41        16.23464
496.85        16.33435
497.29        16.33066
497.73        16.11336
498.17        15.89445
498.61        16.05869
499.05        16.59812
499.49        16.72088
499.93        16.82148
500.37        16.92987
500.82        17.00453
501.26        17.22198
501.70        17.49328
502.14        17.66832
502.58        17.70913
503.02        17.72756
503.46        17.72589
503.90        17.62531
504.34        17.47345
504.78        17.38914
505.22        17.39663
505.66        17.47236
506.10        17.58074
506.54        17.65665
506.98        17.68366
507.42         17.6849
507.86        17.69979
508.30        17.78872
508.74        17.95805
509.18        18.17449
509.62        18.39476
510.06        18.55079
510.50        18.62426
510.94        18.64606
511.38        18.62645
511.82        18.58136
512.26         18.5255
512.70        18.44817
513.14        18.39875
513.58         18.4587
514.02        18.62569
514.46        18.86927
514.90        19.09271
515.34        19.10539
515.78        18.84806
516.22        18.54082
516.66        18.30479
517.10        17.87298
517.54        17.28814
517.98        18.18299
518.42        18.07756
518.86        18.48714
519.30        18.64833
519.74        18.81235
520.18        18.94837
520.62        18.97546
521.06         18.9169
521.50        18.76861
521.93        18.58313
522.37        18.46207
522.81        18.43095
523.25        18.46791
523.69        18.54025
524.13        18.59244
524.57        18.60541
525.01        18.59381
525.45        18.56692
525.89        18.53885
526.32         18.5124
526.76        18.48178
527.20        18.43587
527.64        18.36813
528.08        18.28127
528.52        18.16058
528.96        18.02321
529.40        17.94352
529.83        17.93929
530.27        17.81253
530.71        17.87783
531.15        17.79159
531.59        17.65362
532.03        17.47082
532.46        17.32182
532.90        17.33649
533.34        17.52274
533.78        17.82738
534.22        18.13259
534.66         18.2649
535.09        18.18575
535.53        17.96112
535.97        17.67527
536.41        17.46734
536.85        17.38388
537.28        17.38595
537.72        17.44604
538.16        17.51898
538.60        17.58451
539.04        17.64586
539.47         17.7022
539.91        17.79244
540.35        17.89847
540.79         17.9437
541.22        17.93928
541.66        17.97789
542.10         18.0658
542.54        18.14851
542.97        18.23467
543.41        18.36868
543.85        18.54668
544.29        18.76673
544.72         18.9752
545.16        19.09492
545.60        19.11508
546.04          19.056
546.47         19.0081
546.91        19.12576
547.35        19.42427
547.79        19.85378
548.22        20.28896
548.66         20.5141
549.10        20.49863
549.53        20.34474
549.97        20.16936
550.41        20.09851
550.84        20.18002
551.28        20.38617
551.72        20.67978
552.15        20.98866
552.59        21.27184
553.03        21.54214
553.46        21.77741
553.90        21.96213
554.34         22.1013
554.77        22.17178
555.21        22.18869
555.65        22.24757
556.08        22.37283
556.52        22.27167
556.96          22.467
557.39        22.53997
557.83        22.64982
558.27         22.7747
558.70        22.91487
559.14         23.0535
559.57        23.17317
560.01        23.28618
560.45        23.36794
560.88         23.3764
561.32        23.32403
561.75        23.23745
562.19        23.17945
562.63        23.13989
563.06        23.11358
563.50         23.3842
563.93        23.41393
564.37        23.57988
564.80        23.71019
565.24         23.8377
565.68        23.94556
566.11        24.02378
566.55         24.0976
566.98        24.14554
567.42        24.21645
567.85        24.40828
568.29        24.72864
568.72        25.01705
569.16        25.26765
569.60        25.62562
570.03        25.96705
570.47         25.9831
570.90        25.80535
571.34        25.55408
571.77        25.81423
572.21        26.06518
572.64        26.10332
573.08          25.762
573.51        25.01876
573.95        26.12941
574.38        27.80756
574.82        27.01339
575.25        26.84025
575.69        25.92638
576.12        25.58942
576.56        25.65867
576.99        26.39942
577.42        27.49837
577.86        27.35848
578.29        27.19946
578.73        28.45062
579.16        26.20597
579.60        24.02831
580.03        25.09075
580.47        26.62655
580.90        26.97379
581.33        26.34387
581.77        25.97909
582.20         28.5069
582.64        28.17592
583.07        23.98606
583.51        23.42514
583.94        22.93598
584.37        23.82144
584.81        24.82243
585.24        26.03523
585.68        26.68977
586.11        25.97969
586.54        24.21565
586.98        23.50451
587.41        23.63312
587.85        24.64008
588.28        25.53201
588.71        24.24261
589.15        23.54427
589.58        23.89698
590.01        24.26973
590.45        24.61224
590.88        24.76979
591.31        24.40333
591.75        24.20733
592.18        24.26345
592.61        24.83311
593.05        25.46387
593.48        26.38814
593.91         26.6494
594.35        24.41981
594.78        24.14795
595.21        24.43651
595.65         25.6695
596.08        26.49418
596.51        25.48116
596.94        24.90973
597.38        25.34974
597.81        26.63899
598.24        27.25153
598.68        26.99545
599.11        27.21311
599.54        28.28736
599.97        29.14754
600.41        27.98239
600.84         28.4672
601.27        29.25016
601.70        29.12119
602.14         29.3645
602.57        29.31991
603.00        30.01465
603.43        31.16501
603.87        32.33051
604.30        32.65364
604.73        32.17485
605.16        32.04363
605.60        32.92289
606.03        33.91916
606.46        34.80856
606.89        35.28056
607.32        34.64004
607.76        34.89876
608.19        36.43322
608.62        36.24443
609.05        35.89802
609.48        36.48636
609.92        36.87427
610.35        36.93504
610.78         38.8292
611.21        39.66578
611.64        38.22144
612.07        38.90969
612.50        39.42385
612.94        40.01963
613.37        40.10638
613.80        40.52777
614.23        41.28785
614.66        41.57364
615.09        41.98555
615.52        42.34642
615.96        42.71385
616.39        43.06168
616.82        42.63951
617.25         42.7918
617.68         43.2945
618.11        43.97575
618.54        44.59469
618.97        44.63372
619.40        44.29402
619.84        44.28508
620.27        44.88109
620.70        45.48462
621.13        46.02817
621.56        45.81116
621.99        45.44262
622.42        46.05381
622.85        47.39182
623.28        47.35151
623.71        46.93341
624.14        46.64316
624.57        46.37999
625.00        46.33887
625.43        46.40432
625.86        46.00634
626.29        46.03053
626.72        46.07806
627.15        45.90648
627.58        45.82095
628.01        45.66593
628.44        45.53109
628.87        45.46239
629.30        45.23153
629.73        45.25895
630.16        45.18163
630.59        44.51098
631.02        43.89425
631.45        43.24967
631.88        42.68882
632.31        42.23754
632.74        41.87629
633.17        41.56628
633.60        41.20609
634.03         40.7651
634.46        40.31044
634.89        39.85377
635.32        39.22042
635.75        38.72786
636.18         38.1334
636.61        37.55809
637.04         37.0414
637.47        36.59128
637.89        36.19522
638.32         35.8203
638.75        35.44065
639.18         35.0513
639.61         34.6716
640.04        34.30421
640.47        33.94716
640.90        33.60535
641.33        33.27439
641.76        32.97198
642.18        32.77948
642.61        32.70373
643.04        32.64502
643.47        32.54641
643.90        32.73623
644.33        32.52464
644.76        32.48346
645.18        32.42534
645.61        32.39134
646.04        32.38697
646.47         32.3967
646.90        32.48228
647.33        32.71731
647.75        33.11956
648.18        33.69025
648.61        34.27649
649.04        34.64162
649.47        34.75374
649.89        34.58613
650.32        34.41853
650.75        34.85271
651.18        35.86119
651.61         36.8587
652.03        37.61858
652.46        38.16795
652.89        38.69477
653.32        38.95601
653.74        39.17113
654.17        40.48507
654.60        41.71464
655.03        40.60589
655.46        41.55661
655.88        45.02338
656.31        48.64001
656.74        111.0971
657.16         72.6997
657.59        25.52808
658.02        19.59335
658.45        34.13842
658.87        44.50556
659.30        47.09253
659.73        47.18289
660.15        46.05659
660.58        47.95765
661.01        49.57966
661.44         48.5407
661.86         48.3926
662.29        48.62908
662.72        49.58031
663.14        51.02605
663.57        51.22124
664.00        50.39517
664.42        50.40618
664.85        51.34343
665.27        52.07248
665.70        52.37728
666.13        52.54543
666.55        52.54714
666.98        52.30874
667.41        52.01194
667.83         51.9869
668.26        52.30947
668.69        52.85923
669.11        53.42694
669.54        53.93169
669.96        53.79888
670.39        53.53838
670.82        53.19785
671.24        53.12741
671.67        53.42064
672.09         53.9243
672.52        54.41558
672.94        54.96479
673.37        54.62104
673.80        54.64693
674.22        54.81915
674.65        54.95047
675.07        55.03162
675.50        55.07366
675.92        55.13271
676.35        55.31234
676.77        55.62409
677.20        56.00011
677.62        56.39688
678.05        56.61767
678.47        56.82771
678.90        56.90121
679.32        56.95117
679.75        56.93574
680.17        57.09813
680.60        57.28653
681.02        57.50659
681.45        57.50386
681.87        57.32553
682.30        57.33661
682.72        57.55604
683.15         57.6563
683.57        57.71429
684.00        58.05288
684.42        58.75478
684.85         59.0839
685.27        59.03701
685.70        58.87231
686.12        58.70492
686.54          58.678
686.97        58.83913
687.39        59.13903
687.82        59.45398
688.24        59.70594
688.66        59.85379
689.09        59.61577
689.51        59.64936
689.94        59.73035
690.36        60.04466
690.78        60.41603
691.21         60.7583
691.63        61.02101
692.06        61.16336
692.48        61.18169
692.90        61.15597
693.33        61.21748
693.75        61.39066
694.17        61.67478
694.60        62.02783
695.02        62.18023
695.44        62.09499
695.87        62.37022
696.29        63.00575
696.71         62.4447
697.14        62.20485
697.56        62.59678
697.98        63.73613
698.41        63.95371
698.83        63.18145
699.25        62.90089
699.68        63.15253
700.10        63.29791
700.52        63.34008
700.94        63.63381
701.37        64.10951
701.79        64.54025
702.21        64.84175
702.64        65.07861
703.06        65.20551
703.48        65.14683
703.90        64.92459
704.33        64.57165
704.75        64.20374
705.17        64.08837
705.59        64.28945
706.01        64.63011
706.44        64.98158
706.86        65.67453
707.28        65.76421
707.70        66.01498
708.12        66.16144
708.55        66.09866
708.97        65.87942
709.39        65.76901
709.81        65.81509
710.23        65.85367
710.66        65.89698
711.08        66.10931
711.50        66.39985
711.92        66.55885
712.34        66.55441
712.76         66.4311
713.19        66.30743
713.61        66.40461
714.03        66.74798
714.45        67.26191
714.87        67.76236
715.29        67.96227
715.71         67.8061
716.13        67.39366
716.56        66.91167
716.98        66.68974
717.40        66.80993
717.82        67.17504
718.24        67.64763
718.66        67.99057
719.08        68.12556
719.50        68.12302
719.92        68.04028
720.34        67.98814
720.76          68.008
721.19        67.94933
721.61        68.02448
722.03        68.10603
722.45        68.24886
722.87         68.4511
723.29        68.68587
723.71        68.87106
724.13        68.97608
724.55        69.05812
724.97        69.16138
725.39        69.07837
725.81        69.16761
726.23        69.25121
726.65        69.44366
727.07        69.16795
727.49        69.32571
727.91        69.28574
728.33        69.32278
728.75        69.39646
729.17        69.50903
729.59        69.63811
730.01        69.78783
730.43        70.02061
730.85         70.3383
731.27        70.67524
731.69        70.90099
732.10        71.17663
732.52        70.85815
732.94        70.53883
733.36        70.24404
733.78        70.20284
734.20        70.47295
734.62        71.26611
735.04        72.28236
735.46        72.44071
735.88        71.79076
736.30        71.90971
736.72        73.10974
737.13        73.51121
737.55        73.00483
737.97        73.03873
738.39        73.56119
738.81         72.7293
739.23        71.09284
739.65        71.87598
740.06         74.5463
740.48        74.96452
740.90        73.17871
741.32        72.39773
741.74        72.92342
742.16        73.20791
742.57        73.28796
742.99         74.1263
743.41        75.42233
743.83        75.88644
744.25        75.52374
744.67        75.36668
745.08        75.58137
745.50        75.71972
745.92        75.84225
746.34        76.27686
746.75        76.89465
747.17        77.23034
747.59        77.23616
748.01        77.14439
748.42        77.08971
748.84        77.10165
749.26        77.34745
749.68        78.04459
750.09         79.0063
750.51         79.8493
750.93        80.29494
751.35        79.89482
751.76        78.96297
752.18        78.58425
752.60        78.76712
753.01        79.21994
753.43        78.87774
753.85        79.09742
754.27        79.57421
754.68        80.15926
755.10        80.75117
755.52        81.10203
755.93        81.55817
756.35        81.70971
756.77        81.80744
757.18        81.88149
757.60        81.98306
758.02          82.621
758.43        83.33823
758.85        82.76871
759.26        80.58302
759.68        80.26057
760.10        81.50483
760.51        82.36221
760.93        82.17605
761.34        81.59934
761.76        80.83746
762.18        80.04301
762.59         79.5677
763.01        79.87479
763.42        80.91599
763.84        81.76427
764.26        82.25051
764.67        82.48408
765.09         82.4518
765.50        82.60081
765.92        82.75958
766.33         81.5052
766.75        79.33778
767.16        79.12247
767.58        79.61121
768.00        81.16324
768.41        82.97866
768.83        84.62615
769.24        85.39862
769.66        84.75128
770.07         83.2093
770.49        81.34235
770.90        79.78925
771.32        80.75681
771.73        83.48602
772.15        83.17583
772.56        80.25146
772.97        79.68073
773.39        81.42044
773.80        82.06366
774.22        81.39488
774.63        81.45805
775.05        82.14975
775.46        82.43559
775.88        82.20712
776.29        81.79453
776.70        81.38035
777.12        81.26113
777.53        81.51965
777.95        82.00033
778.36        82.48863
778.77        82.60664
779.19        82.32245
779.60        81.77793
780.02        81.19595
780.43        81.07261
780.84        81.57845
781.26        81.89646
781.67        82.06696
782.09        83.64995
782.50        85.82518
782.91        84.83895
783.33        81.57256
783.74        80.48516
784.15        81.78757
784.57        82.87989
784.98        83.24103
785.39        82.91516
785.81        82.03614
786.22        81.49018
786.63        81.54185
787.04        81.74156
787.46        82.12199
787.87        83.10742
788.28        84.38039
788.70        85.02293
789.11        84.86916
789.52        84.38233
789.93        83.79385
790.35        83.05994
790.76        82.47792
791.17        82.75733
791.58        83.69986
792.00         84.2683
792.41        84.22029
792.82        83.93531
793.23         83.6605
793.65         83.2021
794.06        82.88422
794.47        84.05338
794.88        85.92799
795.29        85.54512
795.71        83.12418
796.12        81.18649
796.53        80.32733
796.94        79.66772
797.35        79.86568
797.76        81.09272
798.18        82.84714
798.59        83.95662
799.00        84.08136
799.41        82.68044
799.82         81.8036
800.23        81.05357
800.64        81.11062
801.06         81.5929
801.47        82.33319
801.88         82.9184
802.29        83.16465
802.70        83.21728
803.11          83.144
803.52        83.03838
803.93        82.97632
804.34        82.90839
804.75        82.81941
805.17        82.88519
805.58        83.18552
805.99        83.10033
806.40        82.71612
806.81        83.61812
807.22        85.11956
807.63        83.94711
808.04        80.81216
808.45        79.59142
808.86        80.55956
809.27        81.67881
809.68        82.47218
810.09        83.01176
810.50         83.0797
810.91        82.68286
811.32        82.08035
811.73        81.67908
812.14        81.59425
812.55        81.72844
812.96        82.03636
813.37        82.27882
813.78        82.45245
814.19        82.96029
814.60         83.5243
815.01        83.42976
815.42        82.62878
815.83        81.37624
816.24        80.17388
816.65          79.822
817.05        80.57023
817.46        82.15396
817.87        83.93449
818.28        84.76193
818.69        84.32091
819.10        82.89722
819.51        81.19695
819.92          80.423
820.33        80.89289
820.74        82.23917
821.14        83.80217
821.55        84.40972
821.96        83.80974
822.37        82.41675
822.78        80.83344
823.19        79.93975
823.60        79.96976
824.00        80.69328
824.41        81.68327
824.82        82.33562
825.23         82.3958
825.64        82.08976
826.04        81.62093
826.45        81.27598
826.86        81.14088
827.27        81.07282
827.68        81.04903
828.08        81.09389
828.49         81.1259
828.90         81.2346
829.31        81.30908
829.72         81.1244
830.12        80.68791
830.53        80.06365
830.94        79.53257
831.35        79.47839
831.75        80.00803
832.16         80.9407
832.57        82.06899
832.97        82.93601
833.38        83.28782
833.79         83.2422
834.20        82.96346
834.60        82.71188
835.01        82.60394
835.42        82.55608
835.82        82.49709
836.23        82.23608
836.64        81.79082
837.04        81.26674
837.45        80.82573
837.86        80.71276
838.26        80.97849
838.67        81.48858
839.08        82.08779
839.48        82.48911
839.89        82.55468
840.29         82.3873
840.70        82.03445
841.11        81.55355
841.51        81.00951
841.92        80.37415
842.33        79.81197
842.73        79.60391
843.14        79.76578
843.54         80.2709
843.95        80.85041
844.35        81.11011
844.76         80.9307
845.17        80.43689
845.57        79.85025
845.98        79.52863
846.38        79.56509
846.79        79.83001
847.19        80.20497
847.60        80.38773
848.00        80.32869
848.41        80.09488
848.81        79.83607
849.22        79.69469
849.62        79.76211
850.03        79.99289
850.43        80.33009
850.84        80.57501
851.24        80.71217
851.65        80.61273
852.05        80.55846
852.46        80.82803
852.86         81.4661
853.27        82.40383
853.67        83.03635
854.07        82.56331
854.48        80.98865
854.88        78.61191
855.29        76.31936
855.69        75.38819
856.10        76.07127
856.50        78.18826
856.90         81.0013
857.31        82.78732
857.71        82.96519
858.12        81.93958
858.52         80.4268
858.92        79.38565
859.33        79.04376
859.73        79.14294
860.13        79.54105
860.54        79.97099
860.94        80.38216
861.34        80.82355
861.75        81.26373
862.15        81.71566
862.55        82.12099
862.96        82.44398
863.36        82.60188
863.76        82.43466
864.17        81.96109
864.57        81.31812
864.97        80.77258
865.38        80.72059
865.78         81.2711
866.18        82.21001
866.58        83.32072
866.99        84.20735
867.39        84.78014
867.79        85.17888
868.19        85.25003
868.60        84.72731
869.00        83.65856
869.40        82.11463
869.80        80.85468
870.21        81.06021
870.61        83.02162
871.01        86.39219
871.41        90.08186
871.81         92.2002
872.22        92.22657
872.62        90.69556
873.02        88.64828
873.42        87.83627
873.82        88.55843
874.22        90.12251
874.63        91.95753
875.03        92.82902
875.43         92.1846
875.83        91.09345
876.23        89.32604
876.63        88.82598
877.03        89.80381
877.44        92.50083
877.84        100.8812
878.24        100.3573
878.64        99.90999
879.04        97.92635
879.44        94.70868
879.84        92.73017
880.24         94.5637
880.64        95.89461
881.04        96.91758
881.44         97.4331
881.84        96.85667
882.24        95.53619
882.65        94.35989
883.05        94.26133
883.45        95.41017
883.85        97.66139
884.25         100.198
884.65        101.4549
885.05        100.9691
885.45        99.27962
885.85        97.34341
886.25        96.47363
886.65        96.92944
887.05        98.28072
887.45        99.94431
887.85        100.8697
888.25        100.7137
888.65        99.89642
889.04        98.76756
889.44        97.89582
889.84        97.47003
890.24        97.25424
890.64         97.3163
891.04         97.8037
891.44        98.65601
891.84        99.85887
892.24        100.9934
892.64        101.2639
893.04        100.5673
893.44        99.26024
893.83        97.88347
894.23        97.24443
894.63        97.49897
895.03        98.33118
895.43         99.6577
895.83        101.2799
896.23        102.9552
896.63         104.718
897.02        105.9582
897.42        105.6941
897.82        103.8809
898.22        100.9127
898.62        97.84408
899.01        96.23492
899.41        96.43315
899.81        97.91584
900.21        99.99069
900.61        101.5031
901.00        102.0486
901.40        101.9754
901.80        101.4964
902.20        100.9395
902.59        100.4621
902.99        99.92762
903.39        99.38165
903.79        98.95501
904.18        98.70358
904.58        98.69027
904.98        98.93333
905.38        99.41633
905.77        100.0468
906.17        100.7447
906.57        101.3599
906.96        101.7344
907.36        101.7733
907.76        101.5499
908.15        101.0583
908.55        100.1975
908.95        99.07877
909.34        97.74277
909.74         96.5638
910.14        95.92532
910.53        95.94902
910.93        96.60622
911.33        97.64095
911.72         98.5626
912.12        99.09666
912.52        99.26862
912.91        99.34813
913.31        99.74789
913.70        100.5947
914.10        101.8127
914.49        102.9292
914.89        102.7066
915.29        100.9001
915.68        98.03585
916.08        95.47661
916.47        94.47417
916.87        95.12971
917.26        97.03146
917.66        99.20158
918.05        100.0411
918.45        99.13486
918.84        97.05123
919.24         94.7957
919.64        93.83773
920.03        94.56538
920.42         96.5006
920.82        98.92916
921.21        100.7399
921.61        101.3465
922.00        101.1392
922.40        100.3978
922.79        99.47298
923.19        98.56637
923.58        97.55785
923.98        96.49216
924.37        95.63436
924.77        95.27748
925.16        94.40678
925.55        95.05946
925.95        96.00021
926.34        97.73543
926.74        99.85258
927.13         101.806
927.52        102.4874
927.92        101.7875
928.31        100.0646
928.70        97.83696
929.10        95.99667
929.49        94.82088
929.89        94.12841
930.28        94.07255
930.67        94.89157
931.07        96.39272
931.46        98.53973
931.85        100.5931
932.24        101.4541
932.64         100.923
933.03        99.17828
933.42        96.68452
933.82        94.62939
934.21         93.4305
934.60        92.87003
934.99        92.69946
935.39        92.60046
935.78         92.5176
936.17         92.4557
936.56        92.10177
936.96        92.39913
937.35        90.98613
937.74        90.00504
938.13        89.41941
938.53        90.02131
938.92        91.81358
939.31        94.73105
939.70        97.96721
940.09        99.27616
940.49        97.88172
940.88        94.72609
941.27        91.32926
941.66        89.47034
942.05        89.40496
942.44        90.54246
942.84        92.37789
943.23        94.11357
943.62        95.26859
944.01        96.06561
944.40         96.4668
944.79        96.39964
945.18         95.8742
945.57        94.77104
945.97        93.20045
946.36        91.74398
946.75        90.82701
947.14        90.45641
947.53        90.51125
947.92         90.7691
948.31        91.15542
948.70        91.74896
949.09        92.46623
949.48        93.04607
949.87        93.33102
950.26        93.28516
950.65        93.04529
951.04        92.89371
951.43         92.8876
951.82        92.93868
952.21        92.87466
952.60        92.43515
952.99        91.59005
953.38        90.47258
953.77        89.32478
954.16        88.45453
954.55        87.95618
954.94        87.82181
955.33        87.84115
955.72        87.65068
956.11        87.18673
956.50        86.52436
956.89        86.10734
957.28        86.71621
957.66        88.54076
958.05        91.05529
958.44        93.48557
958.83        94.70378
959.22        94.45261
959.61        93.01651
960.00        90.99577
960.39        89.39056
960.78        88.53374
961.16        88.22942
961.55        88.07584
961.94        87.39786
962.33        86.09208
962.72        84.52153
963.11         83.1686
963.49        82.60702
963.88        82.92138
964.27        83.96613
964.66        85.36901
965.04         86.3385
965.43        86.44164
965.82        85.93856
966.21        85.32568
966.60        85.30331
966.98        86.00803
967.37        87.15165
967.76        88.33749
968.15        88.80285
968.53        88.31703
968.92        87.16192
969.31        85.76242
969.69        84.61882
970.08        83.88394
970.47         83.4559
970.86         83.1862
971.24        82.82853
971.63        82.32122
972.02        81.77488
972.40        81.49416
972.79        81.94087
973.17        83.31303
973.56        85.30393
973.95        87.41391
974.33        88.66655
974.72        88.63605
975.11        87.56965
975.49        86.10306
975.88        85.18741
976.26        84.97409
976.65        85.27557
977.04        85.52948
977.42        84.49825
977.81        81.96361
978.19        78.60581
978.58        76.02673
978.96        75.72746
979.35         77.8714
979.74        82.14586
980.12        87.67209
980.51        91.20958
980.89        91.68335
981.28        89.86665
981.66        87.07689
982.05        85.05111
982.43         84.1571
982.82        83.87217
983.20        84.13118
983.59        84.95127
983.97        86.33461
984.35        88.41748
984.74        90.64111
985.12        91.98074
985.51         91.6581
985.89        89.78459
986.28        86.92697
986.66        84.05338
987.04        81.91869
987.43        80.56767
987.81        79.72919
988.20        78.96149
988.58        78.03033
988.96         76.7309
989.35        75.69024
989.73        77.21675
990.12        81.78178
990.50        87.83731
990.88        91.93653
991.27        91.88324
991.65        88.25838
992.03        81.78045
992.42        74.74313
992.80        71.45474
993.18        73.17093
993.56          77.653
993.95        82.65301
994.33         86.1175
994.71        87.56378
995.10        87.97298
995.48         87.4987
995.86        86.13938
996.24        84.02222
996.63        80.79897
997.01        77.27249
997.39         76.0349
997.77         78.1453
998.15        83.01996
998.54        88.27211
998.92        90.76571
999.30        89.51236
999.68        85.39695
1000.06        79.50317
1000.45         74.6807
1000.83         72.2625
1001.21        71.41018
1001.59        71.92449
1001.97        73.69417
1002.35         76.5373
1002.73        81.08308
1003.12        85.93697
1003.50        86.69922
1003.88        81.60348
1004.26        73.04659
1004.64        65.05794
1005.02        60.94477
1005.40         60.8728
1005.78        64.36564
1006.16        72.54472
1006.54        82.91867
1006.92        89.59548
1007.30        92.29306
1007.69        92.61628
1008.07        92.24381
1008.45        91.60442
1008.83        89.38051
1009.21        83.31966
1009.59        69.15576
1009.97        42.78148
1010.35        23.86486
1010.73        42.01434
1011.11        55.96718
1011.49        61.06375
1011.86        65.21468
1012.24         67.1846
1012.62        67.37576
1013.00        66.39433
1013.38        63.48065
1013.76         60.6676
1014.14        65.44179
1014.52        83.86125
1014.90        118.7546
1015.28        159.9964
1015.66        178.3811
1016.04        157.3959
1016.41        103.6268
1016.79        47.70934
1017.17        22.19267
1017.55        22.92994
1017.93        32.91547
1018.31        43.99706
1018.69        52.36057
1019.06         58.7039
1019.44        65.51883
1019.82        74.42506
1020.20        85.04559
1020.58        95.74172
1020.95        101.9297
1021.33        94.21071
1021.71         214.627
1022.09        112.9189
1022.46         107.164
1022.84        105.3728
1023.22        107.2111
1023.60        115.3546
1023.97        197.0655
1024.35        61.05673
1024.73        82.22514
