SpectraSmart Spectrum 2.9.0.0
--------- Device Information -----------
Spectrum Name :  反射率_0
Saving Time :  2024/04/26 00:34:01
Spectro-Module Model Name : SE2030-DUVN
Spectro-Module Serial Number : OS361AC55029948
Wavelength Start : 200
Wavelength End : 1025
Wavelength Unit : Wavelength(nm)
Spectrum Unit : Reflectance(%)
-----------Spectrum Setting ------------
Integration Time : 20ms
Average : 10
Boxcar : 0
Background removal :  enabled
linearity correction :  enabled
SC :  disabled
Intensity correction :  disabled
DWT denoise :  enabled
savitzky-golay :  disabled
FFT :  disabled
Running average :  disabled
Kalman :  disabled
High pass :  disabled
---------------BEGIN--------------------
Wavelength(nm)             Reflectance(%)
200.29               0
200.75        91.22288
201.21        82.76233
201.67        73.32231
202.13        67.38411
202.58        65.45601
203.04         66.7721
203.50        69.56565
203.96        70.77198
204.42        69.74886
204.88        67.66729
205.34        66.01727
205.80        66.45754
206.26        69.90198
206.72        78.35651
207.18        95.53826
207.64        112.4929
208.10        105.8853
208.55        87.15582
209.01        74.72054
209.47        70.70269
209.93        71.70181
210.39        75.94469
210.85        80.63383
211.31        79.98845
211.77         72.6301
212.23        61.12119
212.69         50.4488
213.14        48.17342
213.60        55.41472
214.06        69.76964
214.52        86.25514
214.98        97.17666
215.44        100.2885
215.90        98.01193
216.36        92.80521
216.81        88.01959
217.27        85.24435
217.73        83.49121
218.19        81.96002
218.65        79.57172
219.11        75.66846
219.57        69.73072
220.02        62.65031
220.48        59.40569
220.94        62.12086
221.40        69.27863
221.86        74.70516
222.32        72.21986
222.77        63.17172
223.23        51.77314
223.69        42.31323
224.15        39.16573
224.61        41.74485
225.06        47.78727
225.52         54.1695
225.98        57.02234
226.44        55.63103
226.90        51.63948
227.36        47.09905
227.81        44.74137
228.27        45.41681
228.73         47.8847
229.19         51.0069
229.65        53.15581
230.10        53.89016
230.56        53.90012
231.02        53.64898
231.48        53.62274
231.93         53.8812
232.39         54.2062
232.85        54.47549
233.31        54.60604
233.77        54.53913
234.22        54.34463
234.68        53.95079
235.14        53.18379
235.60        52.11858
236.05        50.93018
236.51        49.86002
236.97        49.15423
237.43          48.883
237.88        49.07557
238.34        49.80455
238.80        51.26725
239.26         53.3748
239.71        56.11514
240.17        58.74392
240.63         60.5757
241.08        61.51876
241.54        61.59438
242.00        61.46098
242.46        62.21496
242.91        64.84431
243.37        71.14994
243.83        90.01538
244.28        148.2069
244.74        208.4605
245.20          168.34
245.66        134.5225
246.11        124.2969
246.57        126.4277
247.03        142.4768
247.48        188.7588
247.94        149.8552
248.40        96.14801
248.85        81.67825
249.31        78.20098
249.77        78.62315
250.22        81.33342
250.68        86.51237
251.14         93.8736
251.59        98.05883
252.05        94.27659
252.51        85.40623
252.96        75.80723
253.42         69.6096
253.88        66.38498
254.33        64.61838
254.79        65.23756
255.25         68.8774
255.70        74.25657
256.16        80.34749
256.62        84.37332
257.07        83.56985
257.53        79.00575
257.99          72.007
258.44        65.06033
258.90        61.87385
259.35        61.59384
259.81        62.65281
260.27        62.91627
260.72        60.36716
261.18        55.71606
261.63        49.92268
262.09        44.60897
262.55        41.00629
263.00        39.09947
263.46        38.33526
263.91        37.83135
264.37        36.86884
264.83        35.29023
265.28        33.27582
265.74        31.42358
266.19        30.39671
266.65        30.34216
267.11         30.8412
267.56        31.31506
268.02         31.0813
268.47        30.04597
268.93        28.45297
269.38        26.66516
269.84        25.52649
270.30        25.25607
270.75        25.61015
271.21        26.14485
271.66        26.20286
272.12        25.61446
272.57        24.60638
273.03        23.52736
273.48        22.81674
273.94        22.60546
274.39        22.70308
274.85        22.87763
275.31        22.79839
275.76        22.38236
276.22        21.76676
276.67        21.11547
277.13        20.73719
277.58        20.63494
278.04        20.71313
278.49        20.75363
278.95        20.49997
279.40        19.90213
279.86        19.12369
280.31        18.30859
280.77        17.76536
281.22        17.52219
281.68        17.48742
282.13        17.55693
282.59        17.60574
283.04        17.58644
283.50        17.56371
283.95        17.49431
284.41        17.32134
284.86        17.04439
285.32        16.67979
285.77         16.3502
286.22        16.29816
286.68        16.53099
287.13        16.95908
287.59        17.36223
288.04        17.41036
288.50        17.07084
288.95        16.44768
289.41         15.7805
289.86        15.33562
290.32        15.22276
290.77        15.33729
291.22        15.58455
291.68        15.78685
292.13        15.90211
292.59        15.98676
293.04        16.11214
293.50        16.38512
293.95        16.81357
294.40        17.32678
294.86        17.83084
295.31        18.20143
295.77        18.41496
296.22         18.5191
296.68        18.57757
297.13        18.66374
297.58         18.8246
298.04        19.05174
298.49        19.34994
298.95        19.75852
299.40        20.26236
299.85        20.84371
300.31        21.44103
300.76        21.96914
301.21        22.38524
301.67        22.72509
302.12        22.97385
302.58         23.1575
303.03         23.2799
303.48        23.34709
303.94        23.44385
304.39        23.66989
304.84        24.04049
305.30        24.51494
305.75        24.96328
306.20        25.19077
306.66         25.1798
307.11        24.98714
307.57        24.74839
308.02        24.60246
308.47        24.61233
308.93        24.72694
309.38        24.90331
309.83        25.10124
310.29        25.28258
310.74        25.45114
311.19        25.57318
311.65        25.59434
312.10        25.50783
312.55        25.33057
313.00        25.08389
313.46        24.81811
313.91        24.55151
314.36        24.29116
314.82         24.0847
315.27        23.99032
315.72        24.01286
316.18        24.12903
316.63        24.26375
317.08        24.27086
317.53        24.11398
317.99         23.8275
318.44        23.49742
318.89        23.26432
319.35        23.15818
319.80        23.14069
320.25        23.13532
320.70        23.01753
321.16        22.75942
321.61        22.40679
322.06        22.02754
322.51        21.71905
322.97        21.49791
323.42        21.33771
323.87        21.19114
324.32        20.98627
324.78         20.7068
325.23        20.38481
325.68        20.05697
326.13        19.77941
326.59        19.56758
327.04        19.42252
327.49        19.32261
327.94        19.23368
328.39        19.14558
328.85        19.05721
329.30        19.01231
329.75        19.05743
330.20        19.19385
330.66        19.38045
331.11        19.56551
331.56        19.62813
332.01        19.53449
332.46        19.30078
332.92        18.99308
333.37        18.75218
333.82        18.62746
334.27        18.60888
334.72        18.61806
335.17        18.51583
335.63        18.27008
336.08        17.92131
336.53        17.60684
336.98        17.54348
337.43        17.76553
337.88         18.2073
338.34        18.64085
338.79        18.73774
339.24        18.40057
339.69        17.72287
340.14        16.97678
340.59        16.63813
341.05        16.81502
341.50        17.35717
341.95        17.98117
342.40        18.26968
342.85        18.12917
343.30        17.70355
343.75        17.16051
344.20        16.79159
344.66         16.6907
345.11        16.72235
345.56        16.83109
346.01        16.93552
346.46        16.99066
346.91        17.05126
347.36        17.02229
347.81        16.74061
348.26        16.21512
348.72        15.52701
349.17        14.86904
349.62        14.64554
350.07        14.93689
350.52        15.60544
350.97        16.40594
351.42        16.95831
351.87         17.1531
352.32        17.09352
352.77        16.87687
353.22         16.6666
353.67        16.52162
354.13        16.38931
354.58        16.25246
355.03        16.12491
355.48        16.00823
355.93        15.93112
356.38         15.8659
356.83        15.75158
357.28        15.57737
357.73        15.34946
358.18        15.12969
358.63        15.01776
359.08        15.02965
359.53        15.14089
359.98        15.25001
360.43        15.19879
360.88        14.96245
361.33        14.58839
361.78        14.21473
362.23        14.06701
362.68        14.18214
363.13        14.46987
363.58        14.77309
364.03        14.84861
364.48        14.63956
364.93        14.23645
365.38        13.73747
365.83        13.29869
366.28         12.9838
366.73        12.74862
367.18        12.60441
367.63        12.57009
368.08        12.62803
368.53        12.77069
368.98        12.92667
369.43        12.97522
369.88        12.89282
370.33        12.71543
370.78        12.48863
371.23        12.30064
371.68        12.18499
372.13        12.10771
372.58        12.09456
373.03        12.18523
373.48        12.36702
373.93        12.62741
374.38        12.85814
374.83        12.89059
375.28        12.69916
375.72        12.32214
376.17        11.91562
376.62        11.69588
377.07         11.7213
377.52        11.92561
377.97        12.19837
378.42        12.35807
378.87        12.35308
379.32        12.24366
379.77        12.09617
380.22        12.00413
380.67        11.99107
381.11        12.02151
381.56        12.05612
382.01        12.04446
382.46        11.97088
382.91        11.85441
383.36        11.72464
383.81        11.62401
384.26        11.56421
384.71        11.53451
385.15        11.49944
385.60        11.41168
386.05         11.2599
386.50        11.05673
386.95        10.85428
387.40        10.74239
387.85        10.74269
388.29        10.82769
388.74        10.92412
389.19        10.93312
389.64        10.84102
390.09        10.67285
390.54        10.50618
390.98        10.46885
391.43        10.59306
391.88        10.82409
392.33         11.0562
392.78        11.13637
393.23        11.04454
393.67        10.83188
394.12        10.61499
394.57        10.51569
395.02         10.5605
395.47        10.70844
395.91        10.89318
396.36        10.98143
396.81        10.93534
397.26        10.78588
397.71        10.60536
398.15        10.48784
398.60        10.47086
399.05        10.52762
399.50        10.58085
399.95         10.4929
400.39        10.29468
400.84        9.989864
401.29         9.70438
401.74        9.644964
402.18        9.866229
402.63        10.28154
403.08        10.73253
403.53        10.96874
403.97        10.92812
404.42        10.68762
404.87        10.36318
405.32        10.15819
405.76        10.13481
406.21        10.22509
406.66        10.36461
407.11        10.46769
407.55        10.51159
408.00        10.52812
408.45        10.52062
408.90        10.48254
409.34        10.41911
409.79        10.32471
410.24        10.23601
410.68        10.20915
411.13         10.2546
411.58        10.36706
412.03        10.49315
412.47        10.53701
412.92        10.46776
413.37        10.30964
413.81        10.14529
414.26        10.11487
414.71        10.23508
415.15        10.46784
415.60        10.69009
416.05        10.72412
416.49        10.53163
416.94        10.18143
417.39        9.796563
417.83        9.586969
418.28        9.615617
418.73        9.803082
419.17        10.05346
419.62        10.21338
420.07        10.24359
420.51        10.19329
420.96        10.08683
421.41        9.960299
421.85        9.835511
422.30        9.713788
422.74        9.611157
423.19        9.580376
423.64        9.614916
424.08         9.70738
424.53        9.815089
424.98        9.880665
425.42        9.887736
425.87        9.848475
426.31        9.767624
426.76        9.688392
427.21        9.606707
427.65        9.447694
428.10        9.295856
428.54        9.339314
428.99        9.590741
429.44        9.971445
429.88        10.32428
430.33        10.43218
430.77        10.26158
431.22        9.885619
431.66        9.471519
432.11         9.30718
432.56        9.426247
433.00        9.695387
433.45         9.98109
433.89        10.17935
434.34         10.2029
434.78        9.994501
435.23        9.716602
435.67        9.686142
436.12        9.873346
436.57        9.930128
437.01        9.806499
437.46          9.6716
437.90        9.545513
438.35        9.389362
438.79        9.231509
439.24        9.140443
439.68        9.130309
440.13         9.14276
440.57        9.169228
441.02        9.316186
441.46        9.497214
441.91        9.391087
442.35        9.065469
442.80         8.90013
443.24        8.882141
443.69        8.869158
444.13        8.821254
444.58         8.68531
445.02        8.496957
445.47        8.452152
445.91        8.513012
446.36        8.465617
446.80        8.298698
447.24        8.130891
447.69        8.009417
448.13        7.949231
448.58         7.96491
449.02        8.047069
449.47        8.143325
449.91        8.166883
450.36        8.101449
450.80        7.970119
451.25        7.833066
451.69        7.776443
452.13        7.821523
452.58        7.927685
453.02        8.052904
453.47        8.122883
453.91        8.124163
454.36        8.087297
454.80        8.028036
455.24        7.974409
455.69        7.944615
456.13        7.918848
456.58        7.928347
457.02        8.009017
457.46        8.162385
457.91        8.371341
458.35        8.572031
458.79        8.650717
459.24        8.595678
459.68        8.430931
460.13        8.250869
460.57        8.172576
461.01        8.234823
461.46        8.392899
461.90        8.577426
462.34        8.662823
462.79        8.620339
463.23        8.482775
463.68        8.330781
464.12        8.294589
464.56        8.408033
465.01        8.623614
465.45         8.83689
465.89        8.927837
466.34        8.883208
466.78        8.699795
467.22        8.482916
467.67        8.485106
468.11        8.694905
468.55        8.834596
468.99        8.861077
469.44        8.886008
469.88         8.93148
470.32        9.036713
470.77        9.161662
471.21        9.177004
471.65        9.070731
472.10        8.942814
472.54        8.839212
472.98        8.813621
473.42        8.883924
473.87        9.034195
474.31        9.212297
474.75        9.326503
475.20        9.356676
475.64        9.322618
476.08        9.267133
476.52        9.257627
476.97        9.310851
477.41        9.410145
477.85        9.513854
478.29        9.574332
478.74        9.581413
479.18        9.503265
479.62        9.392101
480.06        9.486687
480.50        9.601582
480.95        9.741544
481.39        9.794044
481.83        9.791592
482.27        9.725533
482.72        9.531706
483.16        9.293046
483.60        9.271454
484.04        9.488266
484.48        9.660135
484.93        9.885287
485.37        10.21137
485.81        10.51273
486.25        10.66987
486.69        13.91263
487.14        10.88466
487.58        7.561686
488.02        9.309484
488.46        10.41447
488.90        10.33024
489.34        10.35431
489.79        10.39394
490.23        11.10016
490.67        11.50918
491.11        11.42474
491.55        11.23711
491.99        10.96501
492.43        10.72767
492.88        10.60113
493.32        10.57268
493.76        10.58652
494.20        10.76279
494.64        11.06431
495.08         11.4479
495.52        11.85198
495.96        12.19847
496.41        12.42725
496.85        12.54072
497.29         12.5595
497.73        12.40337
498.17        12.23934
498.61         12.3623
499.05        12.77866
499.49        12.89985
499.93        13.03206
500.37        13.19268
500.82        13.32617
501.26        13.53684
501.70        13.74883
502.14        13.85538
502.58        13.85012
503.02        13.85892
503.46        13.89224
503.90          13.874
504.34         13.8243
504.78        13.80998
505.22        13.84154
505.66        13.91001
506.10        13.98927
506.54        14.03102
506.98         14.0273
507.42        13.99575
507.86        13.97937
508.30        14.04512
508.74        14.20044
509.18        14.41338
509.62        14.63592
510.06        14.78937
510.50        14.85287
510.94        14.85991
511.38        14.82503
511.82        14.77172
512.26        14.71634
512.70        14.64483
513.14        14.60358
513.58        14.66946
514.02        14.83804
514.46         15.0804
514.90        15.30035
515.34        15.30605
515.78        15.03792
516.22        14.72436
516.66          14.489
517.10        14.04744
517.54        13.44206
517.98        14.38123
518.42        14.27192
518.86        14.70345
519.30        14.87721
519.74        15.05556
520.18        15.19983
520.62        15.21503
521.06        15.12561
521.50         14.9323
521.93        14.70276
522.37        14.56455
522.81        14.54727
523.25        14.61815
523.69        14.73141
524.13        14.81099
524.57        14.83146
525.01        14.81598
525.45         14.7716
525.89        14.70927
526.32        14.63613
526.76        14.54759
527.20        14.45409
527.64        14.38185
528.08        14.33739
528.52         14.3001
528.96        14.25777
529.40        14.22728
529.83        14.21319
530.27        14.07021
530.71        14.06815
531.15        13.96817
531.59        13.85787
532.03        13.73326
532.46        13.64149
532.90        13.66364
533.34        13.79862
533.78        14.01127
534.22        14.22198
534.66        14.31357
535.09        14.25722
535.53        14.09607
535.97        13.88049
536.41        13.69483
536.85        13.57304
537.28        13.49839
537.72        13.46567
538.16         13.4642
538.60        13.48746
539.04        13.52941
539.47        13.59144
539.91        13.70538
540.35        13.85182
540.79        13.96797
541.22        14.03865
541.66         14.0981
542.10        14.14529
542.54        14.14867
542.97        14.14191
543.41        14.20454
543.85        14.34568
544.29         14.5531
544.72        14.76816
545.16        14.90247
545.60         14.9402
546.04        14.90634
546.47        14.88223
546.91         15.0056
547.35        15.29026
547.79        15.68794
548.22        16.08989
548.66        16.30964
549.10        16.32073
549.53        16.21095
549.97        16.07995
550.41        16.03544
550.84        16.11827
551.28        16.30331
551.72         16.5654
552.15        16.85514
552.59        17.13611
553.03        17.41391
553.46        17.65401
553.90        17.81728
554.34        17.90616
554.77        17.91115
555.21        17.86418
555.65        17.87331
556.08        17.96736
556.52         17.9034
556.96        18.09082
557.39        18.17646
557.83         18.2823
558.27        18.39523
558.70        18.51766
559.14        18.63684
559.57        18.74045
560.01        18.83804
560.45        18.90747
560.88        18.91575
561.32        18.88115
561.75        18.80723
562.19        18.74717
562.63        18.75496
563.06        18.83767
563.50        18.97867
563.93        19.14619
564.37         19.2962
564.80        19.40755
565.24        19.50292
565.68        19.57616
566.11        19.61977
566.55        19.65468
566.98        19.67653
567.42        19.73196
567.85        19.88723
568.29        20.16059
568.72        20.46853
569.16        20.77673
569.60        21.12528
570.03        21.41131
570.47         21.3985
570.90        21.20507
571.34        21.02124
571.77        21.35337
572.21         21.4917
572.64        21.57503
573.08        21.51944
573.51        20.86038
573.95        21.81134
574.38        23.10778
574.82        22.83039
575.25        22.58521
575.69        21.81233
576.12        21.38176
576.56        21.41948
576.99        22.16915
577.42        22.94554
577.86        22.97339
578.29        22.72068
578.73        23.74853
579.16        21.82746
579.60        19.99703
580.03        20.92074
580.47        22.31029
580.90        22.60162
581.33        22.31478
581.77        22.01509
582.20        23.72353
582.64        23.49897
583.07        19.99458
583.51        19.60777
583.94        19.22015
584.37        19.94913
584.81        20.71923
585.24        21.58255
585.68        21.99007
586.11        21.39855
586.54        20.06394
586.98        19.61959
587.41        19.87383
587.85        20.62049
588.28        21.03967
588.71        20.13011
589.15        19.47813
589.58        19.75422
590.01         20.2028
590.45        20.37267
590.88        20.58895
591.31        20.21483
591.75        19.97678
592.18        19.99713
592.61        20.49437
593.05        20.92175
593.48        21.91616
593.91        21.77551
594.35        20.19895
594.78        19.88313
595.21        20.01548
595.65        21.00575
596.08        21.76912
596.51        21.05202
596.94        20.68455
597.38        21.13144
597.81        22.24364
598.24        22.71206
598.68        22.43788
599.11        22.68387
599.54        23.84413
599.97        24.60995
600.41        23.54849
600.84        23.92734
601.27        24.62422
601.70        24.50056
602.14        24.63451
602.57        24.63007
603.00        25.47335
603.43        26.58693
603.87        27.63674
604.30        27.87642
604.73        27.45409
605.16        27.59148
605.60        28.36262
606.03        29.31754
606.46        30.17613
606.89        30.38432
607.32         30.2358
607.76        30.65571
608.19         31.9454
608.62        31.85033
609.05        31.68456
609.48        32.24866
609.92        32.48615
610.35        32.82366
610.78        34.38555
611.21        35.01521
611.64        33.97382
612.07        34.68762
612.50        35.25838
612.94        35.88978
613.37        36.05431
613.80        36.48188
614.23        37.17566
614.66        37.47395
615.09        37.90586
615.52        38.16639
615.96        38.35512
616.39        38.69976
616.82        38.56292
617.25        38.75209
617.68        39.59953
618.11        40.28005
618.54        40.76847
618.97        40.67666
619.40        40.26641
619.84        40.48661
620.27        41.30814
620.70        41.95139
621.13         42.2723
621.56        42.15792
621.99        41.79254
622.42        42.40938
622.85        43.69504
623.28        43.56672
623.71        43.25808
624.14        43.24435
624.57         43.0354
625.00        43.02595
625.43        43.02079
625.86        42.56298
626.29        42.43859
626.72        42.84003
627.15         42.3276
627.58        42.26568
628.01        42.14791
628.44        41.97959
628.87         41.7553
629.30         41.5429
629.73        41.31037
630.16        41.05846
630.59        40.52859
631.02        40.00216
631.45        39.45127
631.88        38.93073
632.31        38.45427
632.74        38.01129
633.17        37.57869
633.60        37.11155
634.03        36.60157
634.46        36.06736
634.89        35.52493
635.32        34.99885
635.75        34.49914
636.18        34.01878
636.61        33.55345
637.04         33.0925
637.47        32.62754
637.89        32.16342
638.32        31.69223
638.75        31.22327
639.18        30.76834
639.61        30.33583
640.04        29.93313
640.47        29.56415
640.90          29.231
641.33        28.93262
641.76        28.66604
642.18        28.46866
642.61         28.3414
643.04        28.20706
643.47        28.04295
643.90        28.17567
644.33           28.02
644.76        28.05153
645.18        28.08522
645.61        28.11988
646.04        28.14668
646.47        28.16485
646.90        28.23503
647.33        28.43076
647.75        28.77856
648.18        29.28274
648.61        29.81981
649.04        30.20016
649.47        30.39394
649.89        30.36282
650.32        30.35466
650.75        30.89442
651.18         31.9584
651.61        33.06533
652.03        33.95302
652.46        34.52143
652.89        34.96706
653.32        35.15535
653.74        35.37254
654.17        36.94756
654.60         38.0744
655.03        37.60448
655.46        38.94687
655.88         41.6811
656.31        45.07587
656.74        103.4215
657.16        67.46156
657.59        23.88037
658.02        18.34595
658.45        32.54641
658.87        42.28979
659.30        45.14505
659.73        44.86102
660.15        43.93271
660.58        46.23444
661.01        48.02149
661.44        47.00042
661.86        47.01717
662.29        47.55938
662.72        48.48258
663.14        49.65389
663.57        49.97536
664.00        49.61106
664.42        49.82277
664.85        50.69021
665.27        51.40191
665.70        51.78633
666.13        52.05573
666.55        52.18685
666.98        52.11112
667.41        51.98468
667.83        52.10741
668.26        52.54248
668.69        53.16907
669.11        53.79033
669.54        54.34705
669.96        54.26671
670.39        54.08007
670.82        53.82747
671.24        53.78816
671.67        54.08495
672.09         54.7102
672.52        55.40614
672.94        56.07025
673.37        55.72068
673.80        55.73468
674.22        55.90872
674.65        56.05521
675.07        56.17248
675.50        56.26646
675.92        56.37173
676.35        56.57149
676.77        56.87353
677.20        57.19585
677.62        57.50028
678.05        57.72533
678.47        57.84691
678.90        57.88809
679.32        57.90887
679.75        57.88095
680.17        58.04962
680.60        58.25845
681.02         58.4914
681.45        58.46854
681.87        58.23288
682.30        58.11283
682.72        58.17114
683.15        58.25138
683.57        58.40464
684.00        58.72601
684.42        59.30954
684.85        59.62668
685.27        59.67689
685.70        59.60356
686.12        59.48019
686.54         59.4365
686.97        59.50313
687.39        59.64949
687.82        59.82037
688.24        59.97311
688.66        60.07197
689.09        60.14297
689.51         60.2114
689.94        60.30019
690.36        60.42766
690.78        60.55217
691.21        60.67126
691.63        60.85599
692.06         61.0711
692.48        61.16858
692.90        61.18748
693.33          61.298
693.75        61.50434
694.17        61.74612
694.60        61.98555
695.02        62.07123
695.44        61.99085
695.87        62.19359
696.29        62.63136
696.71        62.37078
697.14        61.66673
697.56        62.14419
697.98        63.50949
698.41        63.56189
698.83        62.76618
699.25        62.29515
699.68        62.40084
700.10        62.43093
700.52        62.41352
700.94        62.69756
701.37        63.18092
701.79        63.60003
702.21        63.85904
702.64        64.03024
703.06        64.10241
703.48        64.05555
703.90        63.91557
704.33        63.68843
704.75        63.43687
705.17        63.34723
705.59        63.46747
706.01        63.65083
706.44        63.81532
706.86        64.37357
707.28        64.43027
707.70        64.67571
708.12        64.83608
708.55        64.87481
708.97        64.78765
709.39         64.6387
709.81        64.51275
710.23        64.49624
710.66        64.62024
711.08         64.9063
711.50         65.2135
711.92        65.31461
712.34         65.1665
712.76        64.82695
713.19        64.46783
713.61         64.3953
714.03        64.66187
714.45        65.17334
714.87        65.71037
715.29        65.92529
715.71        65.74362
716.13        65.28193
716.56        64.74768
716.98        64.50172
717.40        64.63287
717.82        65.03004
718.24         65.5322
718.66        65.86214
719.08        65.93294
719.50        65.84521
719.92         65.6841
720.34        65.56387
720.76        65.55305
721.19        65.57612
721.61         65.7923
722.03         65.9292
722.45        66.01783
722.87        66.12227
723.29        66.25208
723.71        66.38369
724.13        66.50691
724.55        66.62614
724.97        66.75256
725.39        66.78948
725.81        66.71128
726.23         66.7617
726.65        67.01282
727.07        66.38011
727.49        66.78363
727.91         66.6964
728.33        66.68475
728.75        66.69624
729.17        66.73905
729.59        66.78793
730.01        66.84158
730.43         66.9425
730.85        67.09129
731.27        67.30308
731.69        67.51029
732.10        67.58339
732.52        67.50018
732.94        67.33506
733.36        67.22483
733.78        67.26031
734.20        67.46395
734.62        68.08961
735.04        68.91301
735.46        68.88087
735.88        68.22096
736.30        68.48972
736.72        69.63511
737.13        70.09486
737.55        69.64906
737.97        69.57216
738.39        69.90015
738.81        69.33889
739.23        68.28656
739.65        69.05344
740.06        71.16861
740.48        71.40504
740.90         69.8551
741.32        69.16837
741.74        69.59618
742.16        69.84502
742.57        69.95785
742.99        70.66176
743.41        71.72616
743.83        72.34898
744.25        72.39173
744.67        72.07053
745.08        71.61908
745.50        71.41623
745.92        71.58523
746.34        71.99078
746.75        72.49656
747.17        72.85424
747.59         73.0028
748.01        73.06758
748.42        73.15073
748.84        73.26779
749.26        73.51498
749.68        74.09393
750.09        74.83946
750.51        75.24572
750.93        75.25173
751.35        75.01537
751.76        74.69073
752.18        74.63869
752.60        74.82018
753.01        74.87818
753.43        74.88084
753.85         74.9664
754.27        75.08456
754.68        76.04327
755.10        76.77592
755.52        76.25823
755.93        77.24343
756.35        77.18258
756.77        77.14926
757.18        77.17837
757.60        77.32314
758.02        77.94888
758.43        78.59783
758.85        77.99992
759.26        76.06303
759.68        75.93715
760.10        77.32845
760.51         78.6685
760.93        77.47994
761.34        76.60094
761.76        76.06113
762.18        75.54137
762.59        75.37258
763.01        75.90054
763.42        77.01184
763.84        77.76183
764.26        77.99378
764.67        77.98251
765.09         77.8149
765.50         77.6749
765.92        77.51565
766.33        76.72381
766.75         75.6135
767.16        75.18301
767.58         75.6328
768.00        76.84159
768.41        78.55988
768.83        80.01697
769.24        80.59088
769.66        79.96789
770.07        78.57756
770.49        76.81453
770.90        75.25607
771.32        75.99645
771.73         78.3778
772.15        78.02088
772.56        75.35978
772.97        74.96576
773.39        76.73122
773.80        77.45728
774.22        76.93322
774.63        76.61794
775.05        77.31354
775.46        77.48912
775.88        77.31199
776.29        76.99442
776.70        76.67171
777.12        76.58306
777.53        76.78101
777.95         77.1396
778.36        77.47209
778.77        77.45813
779.19        77.08953
779.60        76.49211
780.02        75.89935
780.43        75.82088
780.84        76.41084
781.26        76.87374
781.67        77.21022
782.09         78.8172
782.50        80.90941
782.91        79.99072
783.33        76.87132
783.74        75.77508
784.15         76.9229
784.57        77.68565
784.98        77.71105
785.39        77.68796
785.81        77.57107
786.22         77.1918
786.63        76.80157
787.04        76.81417
787.46         77.2898
787.87        78.06167
788.28        78.85032
788.70        79.61643
789.11        79.28291
789.52        79.02225
789.93         78.7001
790.35        78.01183
790.76         77.2681
791.17        77.59347
791.58        78.75736
792.00        79.21996
792.41        78.80626
792.82        78.41823
793.23        78.32262
793.65        78.03408
794.06         77.8251
794.47         79.0409
794.88        80.89655
795.29        80.57486
795.71        78.27921
796.12        76.27281
796.53         75.1697
796.94        74.62621
797.35        74.81609
797.76        76.03318
798.18        77.68047
798.59        78.67721
799.00        78.64637
799.41        77.81058
799.82        76.62905
800.23        75.91725
800.64        75.88415
801.06        76.19682
801.47        76.73051
801.88        77.18193
802.29        77.41752
802.70        77.55617
803.11        77.61118
803.52        77.56746
803.93        77.46078
804.34        77.28476
804.75        77.10752
805.17        77.11832
805.58        77.42836
805.99        77.72033
806.40        77.89537
806.81        78.61098
807.22        79.34689
807.63        78.10046
808.04        75.52386
808.45        74.42134
808.86        75.04063
809.27        75.96735
809.68        76.76823
810.09        77.27578
810.50        77.27647
810.91        76.84359
811.32        76.24168
811.73        75.89966
812.14        75.93279
812.55        76.17213
812.96        76.53102
813.37         76.8475
813.78        77.04355
814.19        77.23764
814.60        77.29358
815.01        76.97883
815.42        76.29459
815.83        75.26907
816.24        74.30894
816.65        74.13145
817.05        74.92932
817.46          76.464
817.87         78.1356
818.28        78.86533
818.69        78.36568
819.10        76.90073
819.51        75.16637
819.92        74.35234
820.33        74.77246
820.74        76.07183
821.14        77.60246
821.55         78.2057
821.96        77.62917
822.37        76.28227
822.78        74.74522
823.19        73.86456
823.60        73.87081
824.00        74.54076
824.41        75.48625
824.82        76.15668
825.23        76.31099
825.64        76.14826
826.04        75.84637
826.45        75.65331
826.86        75.64619
827.27        75.70125
827.68        75.77721
828.08        75.86645
828.49        75.88782
828.90        75.91757
829.31        75.91387
829.72        75.77812
830.12        75.53373
830.53        75.20319
830.94        74.92339
831.35        74.86784
831.75        75.10806
832.16        75.52489
832.57         76.0692
832.97        76.58905
833.38        76.94402
833.79        77.16743
834.20        77.26338
834.60         77.2458
835.01        77.16146
835.42        76.99053
835.82        76.75854
836.23        76.44413
836.64        76.10446
837.04        75.77882
837.45        75.52332
837.86        75.42487
838.26        75.50381
838.67        75.69765
839.08         75.9604
839.48        76.18954
839.89        76.31137
840.29        76.36242
840.70        76.31963
841.11        76.14159
841.51        75.84501
841.92          75.415
842.33         74.9923
842.73         74.8199
843.14        74.91015
843.54          75.242
843.95        75.57588
844.35        75.57341
844.76        75.15417
845.17        74.45639
845.57        73.72512
845.98        73.33642
846.38        73.38071
846.79        73.71746
847.19        74.21223
847.60        74.53732
848.00        74.61302
848.41        74.50097
848.81        74.30659
849.22         74.1112
849.62        74.00282
850.03        73.95952
850.43        73.99773
850.84        74.07526
851.24         74.2251
851.65        74.29837
852.05        74.50645
852.46        75.00768
852.86        75.79651
853.27        76.82111
853.67        77.50353
854.07        77.08896
854.48        75.58022
854.88        73.24583
855.29        70.93951
855.69        69.89357
856.10        70.35731
856.50        72.17496
856.90        74.63393
857.31        76.08286
857.71         76.0055
858.12        74.81673
858.52        73.29304
858.92        72.45432
859.33        72.52431
859.73        73.22305
860.13        74.28831
860.54        75.17374
860.94        75.69928
861.34        75.98348
861.75        76.11909
862.15        76.34406
862.55        76.68459
862.96        77.04121
863.36        77.33382
863.76        77.40943
864.17        77.24971
864.57        76.98913
864.97        76.78328
865.38        76.84666
865.78        77.26076
866.18        77.85976
866.58        78.53686
866.99        79.10103
867.39        79.52344
867.79        79.89005
868.19        80.00763
868.60        79.52839
869.00         78.4522
869.40        76.89442
869.80         75.5784
870.21         75.6176
870.61        77.30373
871.01        80.31207
871.41        83.65891
871.81        85.64005
872.22        85.78815
872.62         84.5696
873.02        82.89735
873.42        82.39636
873.82        83.24821
874.22        84.62685
874.63        86.07182
875.03        86.63176
875.43        85.86441
875.83        85.09106
876.23        83.01159
876.63        81.83566
877.03        81.45113
877.44        81.93547
877.84        104.9393
878.24        88.41669
878.64        89.37304
879.04        90.32076
879.44        86.73375
879.84        85.20657
880.24        89.46778
880.64        91.62858
881.04        92.62452
881.44        93.14211
881.84        92.64505
882.24        91.32315
882.65        89.96533
883.05        89.29461
883.45        89.44237
883.85        90.42941
884.25         91.7741
884.65        92.39655
885.05        92.00494
885.45        90.99264
885.85         89.9366
886.25        89.61862
886.65        90.19255
887.05        91.37833
887.45        92.79965
887.85        93.78844
888.25        94.08982
888.65        93.91799
889.04         93.4711
889.44        93.11318
889.84        92.94382
890.24        92.80881
890.64        92.71367
891.04        92.69033
891.44        92.71552
891.84        92.83992
892.24        92.90517
892.64        92.59323
893.04        91.93034
893.44        91.11823
893.83        90.45785
894.23        90.39474
894.63        90.97977
895.03        91.98575
895.43        93.32938
895.83         94.8216
896.23        96.25076
896.63        97.63313
897.02        98.46178
897.42        97.95528
897.82        96.11901
898.22        93.30981
898.62        90.49792
899.01        89.09913
899.41        89.40884
899.81        90.94384
900.21        93.02142
900.61        94.49921
901.00        94.99558
901.40        94.86314
901.80         94.3298
902.20        93.75783
902.59        93.30469
902.99        92.80143
903.39        92.33641
903.79        92.10432
904.18        92.15134
904.58        92.53748
904.98        93.08288
905.38        93.46748
905.77        93.59164
906.17        93.49099
906.57        93.35987
906.96        93.55865
907.36        94.06111
907.76        94.75366
908.15        95.29037
908.55        95.00196
908.95        93.83359
909.34        92.00362
909.74        90.09783
910.14         88.8417
910.53        88.47759
910.93        88.86712
911.33        89.75585
911.72        90.67137
912.12        91.30482
912.52        91.69227
912.91        91.97919
913.31        92.37386
913.70        92.97106
914.10         93.7222
914.49        94.25314
914.89        93.69773
915.29        91.96529
915.68        89.47647
916.08        87.38876
916.47         86.7575
916.87        87.63007
917.26        89.65207
917.66        91.90394
918.05        92.86619
918.45        92.14365
918.84        90.28636
919.24        88.20335
919.64        87.22803
920.03         87.7308
920.42        89.26185
920.82        91.30983
921.21        93.11388
921.61        94.13716
922.00        94.61779
922.40        94.51873
922.79        93.79013
923.19        92.58749
923.58        90.84396
923.98         88.7482
924.37        87.26806
924.77        87.01387
925.16        85.15073
925.55        86.67723
925.95        87.79551
926.34        89.84128
926.74        92.35076
927.13        94.67833
927.52        95.49514
927.92        94.65102
928.31        92.59776
928.70        89.95493
929.10        87.81487
929.49        86.51102
929.89        85.77248
930.28        85.79314
930.67        86.86892
931.07        88.78028
931.46        91.50342
931.85        94.01278
932.24         94.7607
932.64        93.47554
933.03         90.3896
933.42        86.47781
933.82        83.94108
934.21        83.45793
934.60        84.45557
934.99        85.86852
935.39        86.53372
935.78        86.25232
936.17        84.92355
936.56        82.52589
936.96        83.28452
937.35        82.42402
937.74        83.57671
938.13        84.68306
938.53        85.66679
938.92        86.55444
939.31         87.5463
939.70         88.3848
940.09        88.25188
940.49         87.0513
940.88        85.21867
941.27        83.47257
941.66        82.64446
942.05        82.81939
942.44        83.70164
942.84        85.07468
943.23        86.60558
943.62         87.9728
944.01        89.21524
944.40        90.04626
944.79        90.05059
945.18        89.13795
945.57        87.27065
945.97        84.84879
946.36        83.05556
946.75         82.5215
947.14        82.96171
947.53         83.8112
947.92        84.41988
948.31        84.69695
948.70         84.8632
949.09        85.02371
949.48        85.34332
949.87        85.83994
950.26        86.31094
950.65        86.71577
951.04        87.08613
951.43        87.39571
951.82        87.65084
952.21        87.63838
952.60        87.03029
952.99         85.8265
953.38        84.17433
953.77        82.51938
954.16        81.48427
954.55         81.2047
954.94        81.59283
955.33        82.18472
955.72        82.17424
956.11        81.38255
956.50        80.00464
956.89        78.73473
957.28        78.83976
957.66        80.67269
958.05        83.54488
958.44        86.48706
958.83        88.08178
959.22        87.97949
959.61        86.57352
960.00        84.47243
960.39        82.67799
960.78        81.55671
961.16        80.89042
961.55        80.41509
961.94        79.70158
962.33         78.6837
962.72        77.63284
963.11        76.83412
963.49        76.59141
963.88        76.92887
964.27        77.75809
964.66        78.78186
965.04        79.40707
965.43        79.30499
965.82        78.66917
966.21        77.94876
966.60         77.7598
966.98        78.21775
967.37          79.105
967.76        80.03246
968.15        80.24634
968.53        79.56593
968.92        78.26986
969.31        76.87777
969.69        76.03997
970.08        75.89402
970.47        76.26221
970.86        76.82626
971.24        77.02642
971.63        76.68077
972.02        75.94727
972.40        75.18962
972.79        75.02876
973.17        75.75897
973.56        77.10455
973.95        78.66646
974.33        79.64246
974.72        79.66449
975.11        78.93467
975.49        78.02222
975.88        77.80405
976.26        78.41247
976.65        79.68774
977.04        80.93942
977.42        80.53687
977.81        78.07475
978.19        74.35535
978.58        71.17444
978.96        70.28725
979.35        71.91426
979.74        75.63591
980.12        80.74672
980.51        84.40258
980.89        85.57939
981.28        84.93158
981.66        83.23057
982.05        81.51129
982.43        80.13606
982.82        78.80029
983.20        77.99665
983.59        78.58063
983.97        80.76434
984.35        84.55865
984.74        88.92451
985.12        91.54019
985.51        90.98629
985.89        87.63664
986.28        82.77846
986.66        78.70184
987.04        76.52589
987.43        75.80098
987.81        75.73917
988.20        75.28983
988.58        74.03562
988.96        71.83793
989.35        69.29145
989.73         69.1552
990.12        72.77536
990.50          78.687
990.88        83.09973
991.27        83.28741
991.65          79.796
992.03        73.49483
992.42        66.84183
992.80        64.32883
993.18        67.07483
993.56        72.53322
993.95        78.29057
994.33        82.18929
994.71        83.75745
995.10        84.10491
995.48        83.31306
995.86        81.22887
996.24        77.96271
996.63        73.11196
997.01        67.87225
997.39        65.94987
997.77        68.88309
998.15        75.84369
998.54        83.40144
998.92        86.85726
999.30        84.80908
999.68        78.41761
1000.06        69.38829
1000.45        62.15829
1000.83        58.84861
1001.21         58.2495
1001.59        59.46721
1001.97        61.53628
1002.35        64.08188
1002.73        67.88587
1003.12        72.08286
1003.50        73.42583
1003.88        70.44056
1004.26        64.59409
1004.64        58.69986
1005.02        55.14065
1005.40        53.99871
1005.78        54.75397
1006.16         58.2999
1006.54        64.47507
1006.92        70.01605
1007.30        73.50752
1007.69        75.15069
1008.07        75.98915
1008.45        76.47988
1008.83        76.31631
1009.21         73.8402
1009.59        61.85436
1009.97        22.28023
1010.35       -40.84309
1010.73        -38.2598
1011.11       -2.870518
1011.49        24.40416
1011.86        44.87317
1012.24        56.58402
1012.62        61.33135
1013.00        61.79131
1013.38        58.96503
1013.76        55.01472
1014.14         57.4676
1014.52        72.62532
1014.90         102.371
1015.28        138.8403
1015.66        158.6026
1016.04        147.3683
1016.41        109.4673
1016.79        66.28931
1017.17        41.63486
1017.55        35.86516
1017.93        38.09755
1018.31        43.10329
1018.69        48.74371
1019.06        55.17389
1019.44         63.8413
1019.82        77.01263
1020.20         94.8545
1020.58        116.5174
1020.95        143.0509
1021.33        175.4207
1021.71       -177.5358
1022.09        110.8836
1022.46        130.1483
1022.84        138.9648
1023.22        147.2838
1023.60        163.8298
1023.97         311.871
1024.35        66.61433
1024.73        98.83265
