SpectraSmart Spectrum 2.9.0.0
--------- Device Information -----------
Spectrum Name :  反射率_0
Saving Time :  2024/04/26 00:35:07
Spectro-Module Model Name : SE2030-DUVN
Spectro-Module Serial Number : OS361AC55029948
Wavelength Start : 200
Wavelength End : 1025
Wavelength Unit : Wavelength(nm)
Spectrum Unit : Reflectance(%)
-----------Spectrum Setting ------------
Integration Time : 20ms
Average : 10
Boxcar : 0
Background removal :  enabled
linearity correction :  enabled
SC :  disabled
Intensity correction :  disabled
DWT denoise :  enabled
savitzky-golay :  disabled
FFT :  disabled
Running average :  disabled
Kalman :  disabled
High pass :  disabled
---------------BEGIN--------------------
Wavelength(nm)             Reflectance(%)
200.29               0
200.75         81.2188
201.21        78.29823
201.67        74.43041
202.13        72.13187
202.58        71.76197
203.04        73.00139
203.50        74.69444
203.96        74.95561
204.42         73.5603
204.88        71.37692
205.34         69.5719
205.80        69.31553
206.26        71.09163
206.72        76.06761
207.18         86.1869
207.64        94.88374
208.10        88.43487
208.55        75.71796
209.01        67.70958
209.47        65.05669
209.93        65.48582
210.39        68.04961
210.85        70.82726
211.31        69.95034
211.77        64.57935
212.23         56.2922
212.69        48.89968
213.14        48.30023
213.60        55.19165
214.06        67.81792
214.52        81.65623
214.98        89.76624
215.44        90.39906
215.90        85.78297
216.36        79.04034
216.81        74.52219
217.27        73.56331
217.73        74.64339
218.19        75.78394
218.65        74.37672
219.11        69.44427
219.57        60.57344
220.02        49.09951
220.48        42.63912
220.94        45.33787
221.40        55.06254
221.86        64.28413
222.32        65.27149
222.77        58.94664
223.23        49.76055
223.69        42.02277
224.15        40.15038
224.61        43.61763
225.06        50.11477
225.52        56.64138
225.98        59.47138
226.44        57.93982
226.90        53.79186
227.36        48.84271
227.81        45.45074
228.27        44.54641
228.73        45.10404
229.19        46.74945
229.65        48.92648
230.10        51.11874
230.56         53.3625
231.02        55.21915
231.48        56.16986
231.93        56.23061
232.39        55.57795
232.85        54.59842
233.31        53.98752
233.77        53.88169
234.22        54.09198
234.68        54.24884
235.14        53.61963
235.60        52.10338
236.05        50.14775
236.51        48.20177
236.97        46.71445
237.43        45.82307
237.88        45.46786
238.34        45.83228
238.80        47.40002
239.26        50.20274
239.71        54.15282
240.17        58.28088
240.63        61.45422
241.08        63.32286
241.54         63.8423
242.00        63.67719
242.46        63.97604
242.91        65.54213
243.37        69.28047
243.83        80.42015
244.28        114.2829
244.74        147.6116
245.20        123.8966
245.66        104.5019
246.11        98.36279
246.57        98.94339
247.03        106.9908
247.48        131.8368
247.94        115.6489
248.40        87.96257
248.85        79.87565
249.31        78.25581
249.77        79.70283
250.22        83.44189
250.68        89.85095
251.14        98.70061
251.59        103.8458
252.05        99.56651
252.51        89.23329
252.96        77.92769
253.42         70.2496
253.88        65.80782
254.33        63.03535
254.79        63.06579
255.25        66.80122
255.70        72.81847
256.16        79.77544
256.62        84.58708
257.07        84.21579
257.53        79.74863
257.99        72.65335
258.44        65.52187
258.90        62.17743
259.35        61.82629
259.81        62.90894
260.27        63.28598
260.72        60.93604
261.18        56.56455
261.63         51.1074
262.09        46.19352
262.55        43.04713
263.00        41.59441
263.46        41.24204
263.91        41.07311
264.37         40.3723
264.83        38.98561
265.28        37.11063
265.74        35.31684
266.19         34.2082
266.65        33.96309
267.11        34.20181
267.56        34.43231
268.02        34.07623
268.47         33.0359
268.93        31.53636
269.38        29.86391
269.84         28.7243
270.30           28.31
270.75        28.42482
271.21         28.7386
271.66        28.76104
272.12        28.35027
272.57        27.66697
273.03        26.93955
273.48        26.42699
273.94        26.21789
274.39        26.16841
274.85        26.14509
275.31        25.95601
275.76        25.54785
276.22        25.02165
276.67        24.45081
277.13        24.02172
277.58        23.72785
278.04        23.53915
278.49         23.3456
278.95        23.04563
279.40        22.59772
279.86         22.0989
280.31        21.58242
280.77         21.2008
281.22        20.94432
281.68        20.78436
282.13         20.6791
282.59        20.60013
283.04        20.52308
283.50        20.48463
283.95        20.42355
284.41        20.26315
284.86        19.99283
285.32         19.6431
285.77        19.32948
286.22        19.28519
286.68        19.51209
287.13        19.90747
287.59        20.26241
288.04        20.26187
288.50        19.87691
288.95        19.21056
289.41        18.47465
289.86        17.88671
290.32        17.56293
290.77        17.42206
291.22        17.43428
291.68        17.51716
292.13        17.64218
292.59        17.83119
293.04        18.09121
293.50        18.42794
293.95        18.81897
294.40        19.22157
294.86        19.57751
295.31        19.81834
295.77        19.93807
296.22        19.96621
296.68        19.95234
297.13        19.94958
297.58        20.00282
298.04        20.11959
298.49        20.31758
298.95        20.65178
299.40        21.10776
299.85        21.65514
300.31        22.22651
300.76         22.7287
301.21        23.11353
301.67        23.42131
302.12        23.61963
302.58        23.71012
303.03         23.6971
303.48        23.59502
303.94        23.52736
304.39        23.65355
304.84         23.9974
305.30        24.49872
305.75        24.98137
306.20        25.17773
306.66        25.05787
307.11        24.70761
307.57        24.30564
308.02        24.05366
308.47        24.02965
308.93        24.16182
309.38        24.38435
309.83        24.62108
310.29        24.82248
310.74        25.00441
311.19        25.14097
311.65        25.18998
312.10        25.14573
312.55        25.01311
313.00        24.80911
313.46        24.57971
313.91        24.33985
314.36        24.10158
314.82        23.90354
315.27        23.78852
315.72        23.76553
316.18        23.82157
316.63        23.91002
317.08        23.93097
317.53          23.856
317.99        23.69986
318.44        23.52207
318.89        23.42153
319.35         23.4126
319.80        23.46786
320.25        23.50485
320.70        23.39132
321.16        23.10465
321.61        22.69405
322.06        22.25848
322.51        21.94478
322.97        21.78024
323.42        21.72835
323.87        21.71158
324.32        21.60138
324.78        21.36241
325.23        21.04004
325.68        20.69305
326.13        20.41616
326.59        20.23593
327.04        20.14099
327.49        20.09254
327.94        20.02956
328.39        19.93543
328.85        19.82046
329.30        19.74696
329.75        19.78922
330.20        19.95733
330.66        20.20144
331.11        20.45621
331.56         20.5791
332.01        20.53009
332.46        20.33132
332.92        20.05497
333.37        19.85563
333.82        19.78327
334.27         19.8181
334.72        19.87551
335.17        19.80714
335.63        19.57948
336.08        19.24405
336.53        18.93232
336.98        18.85168
337.43        19.03956
337.88        19.43045
338.34        19.83425
338.79        19.98461
339.24        19.79419
339.69        19.34347
340.14         18.8316
340.59        18.60591
341.05        18.74474
341.50        19.13443
341.95        19.58734
342.40        19.83099
342.85        19.79979
343.30        19.59231
343.75        19.29189
344.20        19.04289
344.66        18.89953
345.11        18.78045
345.56        18.70146
346.01        18.68678
346.46        18.72106
346.91        18.82212
347.36        18.86766
347.81        18.65414
348.26         18.1749
348.72        17.52904
349.17        16.90549
349.62         16.6973
350.07        16.98579
350.52        17.63159
350.97        18.40965
351.42        18.97548
351.87        19.22443
352.32        19.24853
352.77        19.11996
353.22        18.96072
353.67        18.82029
354.13        18.66059
354.58        18.48341
355.03         18.3336
355.48        18.22218
355.93        18.16755
356.38        18.13508
356.83        18.05284
357.28        17.90542
357.73        17.70405
358.18        17.50729
358.63        17.40874
359.08        17.42366
359.53        17.52644
359.98        17.62403
360.43        17.57334
360.88        17.35101
361.33        16.99958
361.78        16.64445
362.23        16.48951
362.68        16.57004
363.13        16.80862
363.58        17.06156
364.03        17.10563
364.48        16.89075
364.93        16.49907
365.38        16.03205
365.83        15.65136
366.28        15.41465
366.73        15.27189
367.18        15.20804
367.63        15.19964
368.08        15.22168
368.53        15.28201
368.98        15.33769
369.43        15.31246
369.88        15.19785
370.33        15.02101
370.78        14.82064
371.23        14.67106
371.68        14.59911
372.13        14.57464
372.58        14.62012
373.03        14.76841
373.48        15.00073
373.93        15.29817
374.38        15.55006
374.83        15.58798
375.28        15.38847
375.72        14.99483
376.17        14.56196
376.62        14.30442
377.07        14.28426
377.52        14.43642
377.97        14.66876
378.42        14.82856
378.87        14.86232
379.32        14.81394
379.77         14.7176
380.22        14.61892
380.67         14.5347
381.11        14.45174
381.56        14.35002
382.01        14.21267
382.46        14.04206
382.91        13.84876
383.36         13.6833
383.81         13.6185
384.26        13.66282
384.71         13.7934
385.15        13.92066
385.60        13.92071
386.05        13.76651
386.50         13.4881
386.95        13.18649
387.40        13.03953
387.85         13.0877
388.29        13.26755
388.74        13.46137
389.19        13.50602
389.64        13.37922
390.09        13.12995
390.54         12.8676
390.98        12.77231
391.43        12.89234
391.88        13.15343
392.33        13.42671
392.78         13.5266
393.23        13.42444
393.67        13.18167
394.12        12.92828
394.57        12.79604
395.02         12.8137
395.47        12.93434
395.91        13.08807
396.36         13.1353
396.81        13.04129
397.26         12.8445
397.71        12.62372
398.15        12.47865
398.60        12.44968
399.05        12.50482
399.50        12.56656
399.95        12.49203
400.39        12.31858
400.84        12.04355
401.29        11.78253
401.74        11.71967
402.18        11.90611
402.63        12.26073
403.08        12.64957
403.53        12.86037
403.97        12.83797
404.42        12.64625
404.87        12.37673
405.32        12.19034
405.76        12.13788
406.21        12.16895
406.66         12.2356
407.11        12.27457
407.55        12.27003
408.00        12.24476
408.45        12.20499
408.90        12.15054
409.34        12.08765
409.79        12.01214
410.24        11.94813
410.68        11.93175
411.13        11.97026
411.58         12.0606
412.03         12.1637
412.47        12.21112
412.92        12.17601
413.37        12.07265
413.81        11.96148
414.26        11.95092
414.71        12.05026
415.15        12.23089
415.60        12.38967
416.05        12.38021
416.49        12.17442
416.94        11.83511
417.39        11.46939
417.83        11.25956
418.28        11.26339
418.73        11.41175
419.17        11.63206
419.62        11.80579
420.07        11.89781
420.51        11.94415
420.96        11.93856
421.41        11.86715
421.85         11.7368
422.30        11.56465
422.74        11.39582
423.19         11.3263
423.64        11.35877
424.08        11.47904
424.53        11.61923
424.98        11.68033
425.42        11.63778
425.87        11.51495
426.31        11.35931
426.76        11.28264
427.21        11.28896
427.65        11.26942
428.10         11.2536
428.54        11.35337
428.99         11.5635
429.44         11.8336
429.88        12.04827
430.33        12.06067
430.77        11.85477
431.22        11.47581
431.66        11.08556
432.11        10.97668
432.56        11.17351
433.00         11.5348
433.45        11.89033
433.89        12.09031
434.34        12.03622
434.78        11.67762
435.23        11.24438
435.67         11.1541
436.12        11.37925
436.57        11.50593
437.01        11.46532
437.46        11.42895
437.90        11.40488
438.35        11.34891
438.79         11.2685
439.24        11.20821
439.68        11.18173
440.13        11.12564
440.57         11.0699
441.02        11.21112
441.46        11.46082
441.91        11.41288
442.35        11.10535
442.80        10.93885
443.24        10.89247
443.69        10.81226
444.13        10.68263
444.58        10.49027
445.02        10.29206
445.47        10.30339
445.91        10.46058
446.36        10.47227
446.80        10.31176
447.24        10.13548
447.69        10.00193
448.13          9.9303
448.58        9.941599
449.02        10.02452
449.47        10.12458
449.91        10.15334
450.36        10.09335
450.80        9.967033
451.25        9.838992
451.69        9.799884
452.13        9.870623
452.58        10.00965
453.02        10.16004
453.47        10.22754
453.91        10.19511
454.36        10.09692
454.80        9.973083
455.24        9.891811
455.69        9.879969
456.13        9.905673
456.58        9.966738
457.02        10.04581
457.46         10.1381
457.91        10.24562
458.35        10.34269
458.79        10.37642
459.24        10.34831
459.68         10.2601
460.13        10.17203
460.57         10.1473
461.01        10.21202
461.46         10.3383
461.90        10.48026
462.34        10.55005
462.79        10.52773
463.23        10.43377
463.68        10.32951
464.12        10.31578
464.56        10.41801
465.01        10.60292
465.45        10.77992
465.89        10.85411
466.34        10.81735
466.78        10.64655
467.22        10.44089
467.67        10.46513
468.11         10.6942
468.55        10.80264
468.99        10.76377
469.44        10.75405
469.88        10.81048
470.32        10.96592
470.77        11.16224
471.21        11.22501
471.65        11.13057
472.10        11.00326
472.54        10.89357
472.98        10.85297
473.42        10.90318
473.87        11.03104
474.31        11.18501
474.75        11.27596
475.20         11.2864
475.64        11.23658
476.08        11.17369
476.52        11.17042
476.97        11.24302
477.41        11.37129
477.85        11.50537
478.29        11.58795
478.74        11.60631
479.18        11.52244
479.62        11.39223
480.06        11.49569
480.50        11.60769
480.95         11.7361
481.39         11.7669
481.83        11.77107
482.27        11.74612
482.72        11.60704
483.16        11.41604
483.60        11.45132
484.04        11.72981
484.48        11.85131
484.93        11.99478
485.37        12.42525
485.81        12.95174
486.25        13.10255
486.69        16.94541
487.14        13.16191
487.58         9.09184
488.02        11.13375
488.46        12.53714
488.90         12.4854
489.34        12.52288
489.79        12.44818
490.23        13.09527
490.67        13.51107
491.11        13.48469
491.55        13.35184
491.99        13.11245
492.43         12.9264
492.88        12.86356
493.32        12.89858
493.76        12.94751
494.20        13.13489
494.64        13.41546
495.08        13.74902
495.52        14.08603
495.96         14.3707
496.41        14.54614
496.85        14.60952
497.29        14.59008
497.73        14.39707
498.17         14.2193
498.61        14.39873
499.05        14.92194
499.49        15.06118
499.93        15.16439
500.37        15.26253
500.82        15.32054
501.26        15.50354
501.70        15.73446
502.14        15.87673
502.58        15.90324
503.02        15.92548
503.46        15.94686
503.90        15.89404
504.34         15.7988
504.78         15.7498
505.22        15.76498
505.66        15.82815
506.10        15.91618
506.54        15.98688
506.98        16.02868
507.42        16.05397
507.86         16.0932
508.30         16.1931
508.74        16.35711
509.18        16.56178
509.62        16.76158
510.06         16.8839
510.50        16.91403
510.94        16.88333
511.38         16.8263
511.82        16.79711
512.26        16.81468
512.70        16.85697
513.14        16.93198
513.58        17.05164
514.02        17.19747
514.46        17.35929
514.90        17.48437
515.34        17.45221
515.78        17.21999
516.22        16.98826
516.66        16.84529
517.10        16.46155
517.54        15.86397
517.98        16.73461
518.42        16.56998
518.86        16.94173
519.30        17.08255
519.74        17.23629
520.18        17.37084
520.62        17.40384
521.06        17.35725
521.50        17.23175
521.93        17.06869
522.37        16.94961
522.81        16.89768
523.25        16.89508
523.69        16.93197
524.13        16.98981
524.57         17.0536
525.01        17.12364
525.45        17.17894
525.89        17.18452
526.32        17.13206
526.76        17.03422
527.20        16.90526
527.64        16.77722
528.08        16.66744
528.52        16.55441
528.96        16.44927
529.40        16.41259
529.83        16.45403
530.27        16.38863
530.71        16.50341
531.15        16.47832
531.59        16.40132
532.03        16.27867
532.46        16.16478
532.90         16.1536
533.34        16.25268
533.78        16.42468
534.22        16.60024
534.66        16.67811
535.09         16.6316
535.53        16.50244
535.97        16.32935
536.41        16.17648
536.85        16.07219
537.28        16.00424
537.72        15.97375
538.16        15.98227
538.60        16.02538
539.04        16.08858
539.47        16.16877
539.91        16.29922
540.35        16.45673
540.79        16.57239
541.22        16.63278
541.66        16.68439
542.10        16.72889
542.54        16.72869
542.97        16.72472
543.41        16.81184
543.85        16.99853
544.29        17.26521
544.72        17.53837
545.16        17.70846
545.60        17.75249
546.04        17.69999
546.47        17.64069
546.91        17.72696
547.35        17.97857
547.79        18.34745
548.22        18.72038
548.66        18.90285
549.10        18.86941
549.53        18.71497
549.97        18.55173
550.41        18.49977
550.84        18.60191
551.28        18.83036
551.72        19.13921
552.15        19.44373
552.59        19.70015
553.03        19.92325
553.46        20.10554
553.90        20.25128
554.34        20.37043
554.77        20.43945
555.21        20.45953
555.65        20.49709
556.08        20.57258
556.52        20.42595
556.96         20.5615
557.39        20.63137
557.83        20.78543
558.27        20.98911
558.70        21.21193
559.14        21.38882
559.57         21.4922
560.01        21.54963
560.45        21.56134
560.88        21.52939
561.32        21.48307
561.75        21.41218
562.19         21.3605
562.63        21.36458
563.06        21.42866
563.50        21.54874
563.93        21.69632
564.37        21.83291
564.80        21.93854
565.24        22.02959
565.68        22.10915
566.11        22.18575
566.55        22.27912
566.98        22.37725
567.42        22.49416
567.85        22.64695
568.29        22.84905
568.72        23.02645
569.16         23.1957
569.60        23.48032
570.03        23.75782
570.47        23.79188
570.90        23.67729
571.34        23.44838
571.77        23.77789
572.21        23.90346
572.64        24.06042
573.08        23.78522
573.51        23.20068
573.95        24.26405
574.38        25.73515
574.82         25.2936
575.25        24.87104
575.69        23.97569
576.12        23.61118
576.56        23.63367
576.99        24.23869
577.42        25.52494
577.86        25.29153
578.29        24.97952
578.73        26.21787
579.16        24.14663
579.60        22.19445
580.03        23.20968
580.47        24.64071
580.90        25.10968
581.33        24.55902
581.77        24.22824
582.20        26.41629
582.64        25.90806
583.07        22.21564
583.51         21.7129
583.94        21.24401
584.37        22.12309
584.81        23.15554
585.24        24.27522
585.68        24.78259
586.11        23.98753
586.54        22.28564
586.98        21.74496
587.41        22.14789
587.85        23.10874
588.28        23.65308
588.71        22.61558
589.15        21.91193
589.58        22.31565
590.01        22.53705
590.45        22.93375
590.88        22.85248
591.31        22.50813
591.75        22.38943
592.18        22.56249
592.61         23.2181
593.05        23.54878
593.48        24.42942
593.91        24.35061
594.35        22.54576
594.78        22.26939
595.21        22.45761
595.65        23.60511
596.08        24.45826
596.51        23.57382
596.94        23.06356
597.38        23.47894
597.81        24.65644
598.24        25.33514
598.68        25.19314
599.11        25.12471
599.54        26.33185
599.97        26.94334
600.41        25.97665
600.84        26.39962
601.27        27.09056
601.70        26.94937
602.14        27.12509
602.57        27.12396
603.00        27.84949
603.43        28.94861
603.87        29.99754
604.30        30.19673
604.73        29.72331
605.16        29.56495
605.60         30.4003
606.03        31.41771
606.46        32.39767
606.89        32.68953
607.32        32.08511
607.76        32.33862
608.19        33.74751
608.62        33.61811
609.05        33.40495
609.48        33.95914
609.92        34.09915
610.35        34.87154
610.78        36.25579
611.21        36.72543
611.64        35.74208
612.07        36.39523
612.50        36.86346
612.94        37.40953
613.37        37.51597
613.80        37.90998
614.23        38.59365
614.66        38.91156
615.09        39.39651
615.52        39.67035
615.96        39.84196
616.39         40.1958
616.82        40.06806
617.25        40.23592
617.68        41.23235
618.11        41.72229
618.54        41.85193
618.97        41.75883
619.40        41.66286
619.84        41.99557
620.27        42.69499
620.70        43.25662
621.13        43.55214
621.56        43.43584
621.99        43.08627
622.42        43.55733
622.85        44.59203
623.28        44.57082
623.71        44.63613
624.14        44.59254
624.57        44.24009
625.00        44.16355
625.43         44.2505
625.86        43.86948
626.29        43.85704
626.72        44.02693
627.15         43.7607
627.58        43.73793
628.01        43.69037
628.44        43.57681
628.87        43.38941
629.30        43.23291
629.73         43.0738
630.16        42.76419
630.59        42.30336
631.02        41.76804
631.45        41.22166
631.88        40.73339
632.31        40.32289
632.74        39.97438
633.17        39.63876
633.60        39.23361
634.03         38.7408
634.46        38.18787
634.89        37.62364
635.32        37.12674
635.75        36.71792
636.18        36.37247
636.61          36.045
637.04        35.66162
637.47        35.19895
637.89         34.6799
638.32        34.13514
638.75        33.64064
639.18        33.22587
639.61         32.8798
640.04        32.56966
640.47        32.23538
640.90        31.86088
641.33         31.4767
641.76        31.12363
642.18        30.87008
642.61        30.72369
643.04        30.75628
643.47        30.59853
643.90        30.78054
644.33        30.55884
644.76        30.48294
645.18        30.39494
645.61        30.36967
646.04        30.41921
646.47        30.51224
646.90        30.67148
647.33        30.91488
647.75        31.25004
648.18         31.6832
648.61        32.10925
649.04          32.406
649.47        32.54393
649.89        32.39202
650.32        32.21162
650.75        32.65038
651.18        33.67181
651.61        34.63998
652.03        35.31465
652.46        35.82259
652.89        36.36449
653.32        36.52959
653.74        36.51353
654.17        38.17596
654.60        38.97881
655.03        38.05024
655.46        39.48488
655.88        42.15612
656.31        45.30174
656.74        103.1276
657.16        67.29325
657.59        23.91932
658.02        18.45906
658.45        32.30546
658.87         41.9884
659.30        44.74416
659.73         44.6683
660.15         43.4552
660.58        45.63019
661.01        47.24886
661.44        46.24595
661.86        46.20098
662.29        46.60986
662.72        47.37619
663.14        48.39997
663.57        48.74371
664.00        48.51533
664.42          48.726
664.85        49.43587
665.27        49.96846
665.70        50.20734
666.13        50.38133
666.55        50.48664
666.98        50.46206
667.41        50.41395
667.83        50.54612
668.26        50.89838
668.69        51.39264
669.11        51.88286
669.54        52.33888
669.96        52.21864
670.39        52.16302
670.82        51.95189
671.24        51.92682
671.67        52.18421
672.09        52.79824
672.52        53.45728
672.94        54.46975
673.37        53.82288
673.80        53.79285
674.22        53.90496
674.65         54.0582
675.07        54.23651
675.50        54.35492
675.92        54.45422
676.35         54.6817
676.77        55.04308
677.20        55.40676
677.62        55.72726
678.05        55.96199
678.47        56.08583
678.90        56.12421
679.32        56.14088
679.75        56.13029
680.17        56.33221
680.60        56.55799
681.02        56.80309
681.45        56.85945
681.87        56.73019
682.30        56.64015
682.72        56.64463
683.15        56.58218
683.57         56.5743
684.00        56.93301
684.42        57.72231
684.85         58.1074
685.27        58.06757
685.70        57.93358
686.12           57.79
686.54        57.71558
686.97        57.78387
687.39        57.95973
687.82         58.1199
688.24         58.6081
688.66        58.57154
689.09        58.52755
689.51         58.5463
689.94        58.82125
690.36        59.33776
690.78        59.55934
691.21        59.48354
691.63        59.53233
692.06        59.71831
692.48        59.78551
692.90        59.77701
693.33        59.88093
693.75        60.11637
694.17        60.43247
694.60        60.77337
695.02        61.04367
695.44        61.18375
695.87        61.33062
696.29        61.51761
696.71        61.41521
697.14        61.16108
697.56         61.5826
697.98          62.479
698.41        62.33555
698.83        61.80652
699.25         61.5268
699.68        61.72659
700.10        61.81288
700.52          61.791
700.94        61.98801
701.37        62.36289
701.79        62.75879
702.21         63.1032
702.64        63.44356
703.06        63.69206
703.48        63.70339
703.90        63.48048
704.33         63.0731
704.75        62.63238
705.17        62.48231
705.59        62.70286
706.01        63.10302
706.44        63.51888
706.86        64.22571
707.28         64.2922
707.70        64.44508
708.12        64.47119
708.55        64.44524
708.97        64.37872
709.39        64.25424
709.81         64.1525
710.23        64.20277
710.66        64.42849
711.08        64.82523
711.50        65.23191
711.92        65.40115
712.34        65.28244
712.76        64.93336
713.19        64.54436
713.61        64.45722
714.03        64.73467
714.45        65.27525
714.87        65.84512
715.29        66.07085
715.71        65.87309
716.13        65.38315
716.56        64.83185
716.98        64.58349
717.40        64.72638
717.82        65.20172
718.24          65.854
718.66        66.08264
719.08        66.32481
719.50        66.24393
719.92        66.07873
720.34        65.96062
720.76        65.94632
721.19        65.87169
721.61          65.937
722.03        66.02566
722.45        66.18767
722.87        66.42299
723.29        66.68613
723.71         66.8851
724.13        66.99289
724.55        67.02535
724.97        67.02563
725.39        67.07332
725.81        67.18673
726.23        67.33917
726.65        67.49271
727.07        67.58677
727.49        67.61273
727.91        67.60325
728.33        67.58685
728.75        67.60911
729.17         67.6803
729.59        67.77149
730.01        67.89402
730.43        68.05649
730.85        68.25918
731.27        68.53395
731.69        68.78345
732.10        68.84655
732.52        68.70913
732.94        68.38354
733.36        68.06229
733.78        68.15244
734.20         68.6186
734.62        69.17625
735.04        70.56412
735.46        70.53387
735.88        69.55293
736.30        69.58565
736.72        70.64994
737.13        71.25861
737.55        71.08395
737.97        71.08305
738.39        71.25954
738.81        70.48866
739.23        69.25364
739.65        69.99528
740.06        72.23389
740.48        72.51654
740.90         70.9305
741.32         70.3191
741.74        70.91286
742.16        71.24909
742.57        71.35159
742.99        72.01645
743.41        73.04251
743.83        73.65845
744.25        73.74294
744.67        73.50478
745.08        73.16735
745.50        73.08017
745.92        73.35287
746.34        73.86326
746.75        74.43713
747.17        74.77706
747.59         74.8331
748.01        74.70606
748.42        74.56908
748.84        74.72736
749.26         75.2577
749.68        75.88293
750.09        76.47022
750.51        77.17623
750.93        77.76031
751.35         77.4069
751.76        76.38663
752.18        76.00935
752.60        76.31164
753.01        76.38333
753.43        76.20978
753.85        76.34526
754.27        76.80131
754.68        77.40435
755.10        78.05205
755.52        78.47849
755.93        78.96911
756.35         79.2446
756.77        79.46675
757.18        79.65327
757.60        79.85211
758.02        80.24683
758.43        80.42055
758.85        80.33163
759.26        78.28443
759.68        77.78751
760.10         79.2186
760.51        80.23684
760.93        79.56583
761.34        78.49429
761.76         78.5695
762.18        77.88074
762.59        77.26022
763.01        77.54592
763.42        78.72256
763.84        79.71729
764.26        80.25743
764.67        80.31052
765.09        79.99469
765.50         79.9722
765.92         80.1234
766.33        79.30019
766.75         77.8586
767.16        77.22395
767.58        77.64468
768.00        78.85089
768.41        80.59445
768.83        82.10414
769.24         82.7455
769.66         82.2803
770.07        81.08403
770.49        79.34129
770.90        77.66669
771.32        78.42942
771.73        80.93868
772.15        80.53105
772.56        77.65985
772.97        77.09607
773.39        78.80655
773.80        79.65076
774.22        79.32837
774.63        79.44599
775.05        79.94243
775.46        80.22074
775.88        80.18758
776.29        79.89264
776.70        79.46503
777.12        79.25713
777.53        79.35327
777.95        79.59714
778.36        79.84052
778.77        79.82396
779.19        79.53543
779.60        79.07311
780.02        78.64073
780.43        78.64664
780.84        79.22906
781.26        79.75921
781.67        80.16959
782.09        81.46689
782.50        83.01271
782.91        81.85321
783.33        79.07769
783.74        78.13516
784.15        79.29754
784.57        80.35644
784.98        80.82814
785.39        80.77281
785.81        80.18668
786.22        79.52928
786.63        79.15157
787.04         79.0733
787.46        79.41933
787.87        80.53925
788.28        82.02191
788.70        82.74403
789.11        82.50503
789.52        81.84408
789.93        81.07908
790.35         80.3562
790.76        79.91978
791.17        80.20013
791.58        80.98505
792.00        81.35655
792.41        81.15637
792.82        80.96428
793.23        80.97042
793.65        80.61848
794.06        80.22616
794.47        81.40517
794.88        83.35436
795.29        83.00473
795.71        80.57796
796.12        78.48052
796.53        77.37968
796.94        77.01168
797.35        77.51408
797.76        78.96907
798.18        80.71318
798.59        81.77113
799.00        81.74966
799.41          80.761
799.82        79.33978
800.23        78.49542
800.64         78.4724
801.06        78.88308
801.47        79.56335
801.88        80.13379
802.29        80.43405
802.70        80.61659
803.11        80.69813
803.52        80.67172
803.93        80.57971
804.34        80.37698
804.75        80.16776
805.17        80.25454
805.58        80.72636
805.99          81.151
806.40        81.38556
806.81        82.04619
807.22        82.64812
807.63        81.34187
808.04        78.78417
808.45        77.65318
808.86        78.19893
809.27        79.09198
809.68         79.9205
810.09        80.49432
810.50        80.59579
810.91        80.31266
811.32        79.84032
811.73        79.49493
812.14         79.3739
812.55        79.33044
812.96        79.39338
813.37        79.61526
813.78        79.96915
814.19        80.50028
814.60        80.92558
815.01         80.7923
815.42        80.04727
815.83        78.78125
816.24        77.49492
816.65        77.07156
817.05        77.76686
817.46        79.29813
817.87         81.0124
818.28        81.74012
818.69        81.16952
819.10        79.60113
819.51         77.7834
819.92        76.99657
820.33        77.57111
820.74        79.07217
821.14         80.7884
821.55        81.55883
821.96        81.05888
822.37        79.51772
822.78        77.62091
823.19        76.56213
823.60         76.6186
824.00        77.40723
824.41        78.48604
824.82        79.27467
825.23        79.49332
825.64        79.34995
826.04        79.02845
826.45        78.78746
826.86        78.70781
827.27        78.65485
827.68         78.6013
828.08        78.56704
828.49        78.48404
828.90        78.44749
829.31        78.39796
829.72        78.19971
830.12        77.87357
830.53        77.44576
830.94        77.12411
831.35        77.18651
831.75        77.71376
832.16        78.55872
832.57        79.52701
832.97        80.19907
833.38        80.35352
833.79        80.09521
834.20        79.63979
834.60        79.32072
835.01        79.25761
835.42         79.3574
835.82        79.45499
836.23        79.19437
836.64        78.56046
837.04        77.71362
837.45          76.941
837.86         76.6847
838.26        77.04748
838.67        77.84785
839.08         78.8355
839.48        79.54881
839.89        79.78739
840.29         79.6948
840.70        79.38438
841.11        79.02319
841.51        78.69588
841.92        78.31948
842.33        77.99214
842.73        77.89761
843.14        78.02225
843.54        78.37473
843.95         78.7289
844.35        78.75577
844.76        78.37632
845.17        77.72036
845.57        77.00467
845.98        76.57234
846.38        76.50998
846.79        76.68417
847.19        77.02152
847.60        77.29228
848.00        77.44846
848.41        77.53901
848.81        77.58088
849.22        77.52039
849.62        77.42241
850.03         77.2857
850.43        77.24816
850.84        77.48271
851.24         78.0562
851.65        78.71248
852.05         79.4599
852.46        80.12325
852.86        80.63091
853.27        81.08664
853.67        81.05801
854.07        80.00675
854.48        78.03648
854.88         75.3623
855.29        72.90897
855.69        72.01951
856.10        72.94104
856.50        75.51364
856.90        78.83765
857.31        80.80214
857.71        80.70642
858.12        79.07668
858.52        76.91618
858.92        75.56968
859.33        75.33517
859.73        75.84303
860.13        76.81583
860.54        77.67909
860.94        78.24326
861.34        78.67434
861.75        78.99794
862.15        79.32265
862.55        79.63953
862.96        79.83857
863.36        79.95007
863.76        80.02475
864.17        80.08408
864.57        80.20869
864.97        80.36368
865.38        80.47063
865.78        80.56674
866.18        80.57798
866.58        80.64922
866.99        81.01353
867.39        81.75657
867.79        82.85151
868.19         83.8363
868.60          83.852
869.00        82.73206
869.40        80.73824
869.80         78.8297
870.21        78.50647
870.61        80.19286
871.01        83.44632
871.41        87.18459
871.81        89.54688
872.22        89.97127
872.62        88.95107
873.02        87.43208
873.42        87.02779
873.82        87.98566
874.22        89.64731
874.63        91.38402
875.03        91.88081
875.43         90.6542
875.83        88.97949
876.23        86.57077
876.63        85.77538
877.03        86.80764
877.44        90.03798
877.84        101.3175
878.24        99.81056
878.64          99.302
879.04        96.97026
879.44        92.93472
879.84        90.58237
880.24        93.12383
880.64        94.95515
881.04        96.45308
881.44        97.40917
881.84        97.00849
882.24        95.66451
882.65        94.26563
883.05        93.72762
883.45        94.22652
883.85        95.60474
884.25        97.28476
884.65        98.13521
885.05        97.81639
885.45        96.74583
885.85        95.55746
886.25        95.10199
886.65        95.55685
887.05        96.63138
887.45        97.94359
887.85        98.81446
888.25        98.99483
888.65        98.72131
889.04        98.20343
889.44        97.81248
889.84        97.65055
890.24        97.55833
890.64        97.53389
891.04        97.60506
891.44        97.73449
891.84        97.94987
892.24         98.0854
892.64        97.81303
893.04        97.15018
893.44        96.31277
893.83        95.56009
894.23        95.27777
894.63        95.51962
895.03        96.08541
895.43        97.01687
895.83        98.35072
896.23         99.9454
896.63         101.765
897.02        103.1536
897.42        103.0639
897.82        101.4182
898.22        98.63361
898.62        95.78163
899.01        94.44118
899.41        94.94562
899.81        96.73879
900.21        99.06458
900.61        100.6755
901.00        101.1542
901.40        100.8931
901.80        100.1653
902.20        99.39069
902.59        98.75881
902.99        98.10825
903.39        97.49741
903.79        97.07416
904.18        96.88416
904.58        96.99106
904.98        97.34468
905.38        97.81172
905.77        98.29782
906.17        98.78136
906.57        99.19523
906.96        99.51163
907.36        99.65796
907.76        99.63589
908.15        99.42739
908.55        98.91502
908.95        98.15842
909.34        97.17873
909.74        96.20921
910.14         95.4128
910.53        94.88344
910.93        94.67361
911.33        94.73151
911.72        94.96246
912.12        95.25338
912.52        95.54582
912.91        95.96107
913.31        96.71226
913.70        97.87892
914.10        99.43255
914.49         100.941
914.89        101.1952
915.29        99.86293
915.68        97.37959
916.08        94.96843
916.47         93.7634
916.87        93.89676
917.26        95.01852
917.66        96.37015
918.05        96.74342
918.45        95.83769
918.84        94.12002
919.24        92.36707
919.64         91.6769
920.03        92.34355
920.42        93.99985
920.82        96.09034
921.21        97.79554
921.61        98.60327
922.00        98.75358
922.40        98.40902
922.79        97.80007
923.19         97.0958
923.58        96.21869
923.98         95.1636
924.37        94.14799
924.77         93.5164
925.16        91.89809
925.55        92.27319
925.95        93.03021
926.34        94.99614
926.74        97.64771
927.13        100.2506
927.52        101.3844
927.92        100.8451
928.31        99.06109
928.70        96.64127
929.10         94.6366
929.49        93.36907
929.89        92.60146
930.28        92.41862
930.67        92.95776
931.07        94.02325
931.46        95.65898
931.85        97.22015
932.24        97.72444
932.64        97.00656
933.03        95.20281
933.42        92.79111
933.82        90.94915
934.21        90.07013
934.60        89.94347
934.99        90.18932
935.39         90.4137
935.78          90.564
936.17        90.53081
936.56        90.17392
936.96         91.1573
937.35        90.58309
937.74        90.60506
938.13        90.59682
938.53        90.92371
938.92        91.61822
939.31         92.7019
939.70        93.79279
940.09        93.86573
940.49        92.70313
940.88        90.80325
941.27        89.00505
941.66        88.27671
942.05        88.71987
942.44         90.0079
942.84         91.7225
943.23        93.20134
943.62        94.06248
944.01        94.45326
944.40        94.46505
944.79        94.26665
945.18        93.91656
945.57        93.28383
945.97        92.34521
946.36        91.26421
946.75        90.29935
947.14        89.62729
947.53        89.26011
947.92        89.08021
948.31        89.03339
948.70        89.14007
949.09         89.4144
949.48        89.86398
949.87         90.4101
950.26        90.91682
950.65        91.32066
951.04         91.5867
951.43        91.69179
951.82        91.66225
952.21        91.32036
952.60        90.42553
952.99        89.02274
953.38        87.22898
953.77        85.55891
954.16        84.74026
954.55        84.88365
954.94        85.84334
955.33        86.96204
955.72        87.10732
956.11         86.0196
956.50         83.9938
956.89        81.89944
957.28        81.35168
957.66        82.88299
958.05        85.75558
958.44        88.98196
958.83        91.10022
959.22        91.69501
959.61        91.11991
960.00        89.89804
960.39        88.88557
960.78        88.37021
961.16        88.14792
961.55        87.81394
961.94        86.75869
962.33        84.95517
962.72        82.79715
963.11        80.92093
963.49        80.07529
963.88        80.35815
964.27        81.60571
964.66         83.2889
965.04         84.2642
965.43        84.00674
965.82        82.91975
966.21        81.71969
966.60        81.37116
966.98        82.06288
967.37         83.4369
967.76        85.02529
968.15        85.91729
968.53        85.79243
968.92         84.9368
969.31         83.8111
969.69        82.98819
970.08         82.6241
970.47        82.57206
970.86        82.58011
971.24        82.22993
971.63        81.41644
972.02        80.31132
972.40        79.35148
972.79        79.24253
973.17        80.29028
973.56        82.16648
973.95        84.35055
974.33        85.79449
974.72        85.99773
975.11         85.1897
975.49         83.9626
975.88        83.21098
976.26        83.10329
976.65        83.50985
977.04        83.81358
977.42        82.69521
977.81        79.92966
978.19        76.15904
978.58        73.29562
978.96        73.25592
979.35        76.24542
979.74         81.9513
980.12          88.872
980.51         92.3552
980.89        91.01817
981.28        86.31144
981.66        80.82298
982.05         77.8075
982.43        77.74215
982.82        79.48476
983.20        82.19425
983.59        84.77325
983.97        86.92776
984.35        89.10395
984.74        90.98721
985.12        92.13218
985.51        92.03325
985.89        90.51209
986.28        87.97013
986.66        85.19932
987.04        82.89087
987.43        81.24345
987.81        80.02594
988.20        78.72131
988.58         77.0276
988.96        74.62995
989.35        72.06106
989.73        72.04382
990.12        75.85179
990.50        82.05464
990.88        86.97085
991.27        88.08965
991.65        85.93387
992.03        81.24908
992.42        76.01202
992.80        73.78608
993.18        75.56756
993.56        79.42067
993.95        83.49949
994.33        86.18609
994.71        87.11171
995.10        87.18029
995.48        86.47252
995.86        84.87293
996.24        82.47359
996.63        78.94354
997.01        75.27531
997.39        74.44749
997.77        77.60928
998.15        84.01171
998.54        90.64122
998.92        93.54053
999.30        91.54321
999.68        85.62545
1000.06        77.47214
1000.45        71.35313
1000.83        69.12064
1001.21        69.50254
1001.59        71.42057
1001.97        73.72441
1002.35        76.06521
1002.73        79.25227
1003.12        82.37756
1003.50         82.6115
1003.88        78.85072
1004.26         72.5723
1004.64        66.69973
1005.02        63.68468
1005.40        63.66873
1005.78         66.5065
1006.16        72.87288
1006.54        80.29238
1006.92        84.35608
1007.30        85.21445
1007.69        84.81657
1008.07         84.9871
1008.45        86.24631
1008.83        88.86505
1009.21        93.49364
1009.59        97.00459
1009.97         80.8987
1010.35        24.01263
1010.73      -0.4464774
1011.11        19.18694
1011.49        41.53952
1011.86        60.19877
1012.24        70.63722
1012.62        72.78693
1013.00        68.97698
1013.38        59.93655
1013.76        47.65625
1014.14        42.36853
1014.52         53.9502
1014.90        85.95625
1015.28        131.7449
1015.66        165.1301
1016.04        168.1626
1016.41        142.6217
1016.79        104.7844
1017.17        76.70439
1017.55        63.61842
1017.93         58.1249
1018.31        57.27183
1018.69        60.10158
1019.06        66.34906
1019.44        77.43829
1019.82        95.97795
1020.20        120.8424
1020.58        149.6118
1020.95        181.9507
1021.33        227.7563
1021.71       -532.2646
1022.09        66.78239
1022.46        98.30535
1022.84        109.0675
1023.22        117.0228
1023.60        131.0903
1023.97        247.7847
1024.35        53.71347
1024.73        76.66224
