SpectraSmart Spectrum 2.9.0.0
--------- Device Information -----------
Spectrum Name :  反射率_0
Saving Time :  2024/04/26 00:55:35
Spectro-Module Model Name : SE2030-DUVN
Spectro-Module Serial Number : OS361AC55029948
Wavelength Start : 200
Wavelength End : 1025
Wavelength Unit : Wavelength(nm)
Spectrum Unit : Reflectance(%)
-----------Spectrum Setting ------------
Integration Time : 20ms
Average : 10
Boxcar : 0
Background removal :  enabled
linearity correction :  enabled
SC :  disabled
Intensity correction :  disabled
DWT denoise :  enabled
savitzky-golay :  disabled
FFT :  disabled
Running average :  disabled
Kalman :  disabled
High pass :  disabled
---------------BEGIN--------------------
Wavelength(nm)             Reflectance(%)
200.29               0
200.75        96.80962
201.21        90.09212
201.67        82.03401
202.13        77.22502
202.58         76.3296
203.04        78.62298
203.50        81.86681
203.96        82.37477
204.42        79.72646
204.88        75.51425
205.34        72.29011
205.80         72.8839
206.26        78.69447
206.72        93.19638
207.18        122.3228
207.64        148.5027
208.10        132.8516
208.55        99.17033
209.01        77.53819
209.47        69.79958
209.93        70.03391
210.39        75.00952
210.85        81.69504
211.31         83.8578
211.77         79.4622
212.23        71.11931
212.69        62.98173
213.14        61.35124
213.60        67.18645
214.06        78.29575
214.52        90.92592
214.98        99.46883
215.44        102.2324
215.90        101.0903
216.36        97.70431
216.81        94.22412
217.27        91.93904
217.73        90.21629
218.19        88.77441
218.65        87.22861
219.11         85.3008
219.57        82.84572
220.02        80.51838
220.48        81.14478
220.94         85.3307
221.40        91.82213
221.86        96.70056
222.32        96.46514
222.77        91.90701
223.23         85.7914
223.69         80.8314
224.15        79.97614
224.61        82.91531
225.06        88.34142
225.52        94.06474
225.98        97.28945
226.44        97.50139
226.90        95.76812
227.36        93.78496
227.81        93.83503
228.27        96.56906
228.73        100.8094
229.19        105.0285
229.65        107.0249
230.10        106.4933
230.56        104.7967
231.02        102.9706
231.48        102.2297
231.93         102.642
232.39        103.7447
232.85        105.2058
233.31        106.7083
233.77        108.0232
234.22        109.3106
234.68        110.0519
235.14        109.3503
235.60         107.124
236.05         103.761
236.51        100.0957
236.97        97.16487
237.43        95.09106
237.88        93.64285
238.34        92.49919
238.80        91.60214
239.26        90.90333
239.71        90.93678
240.17        90.72842
240.63        89.14503
241.08        86.17312
241.54        82.12491
242.00        78.37874
242.46        76.65466
242.91         77.9101
243.37        83.76759
243.83        103.1845
244.28        160.5519
244.74        212.0631
245.20        167.5359
245.66        134.7938
246.11        126.8095
246.57        133.1855
247.03        160.2956
247.48        244.1377
247.94        213.3439
248.40        126.4844
248.85        98.62443
249.31        89.97189
249.77        88.43085
250.22        90.70144
250.68        96.48495
251.14          105.79
251.59        113.3275
252.05        113.1734
252.51        107.2729
252.96        100.2121
253.42        97.39333
253.88        98.50043
254.33        101.3548
254.79        105.2669
255.25        108.7158
255.70        110.9615
256.16          112.99
256.62        113.9973
257.07        113.0103
257.53        110.8798
257.99        107.6407
258.44        104.3535
258.90        103.4183
259.35        103.6776
259.81        104.4786
260.27        104.2326
260.72           101.4
261.18        96.96002
261.63        91.50645
262.09        86.47101
262.55        82.60406
263.00        79.87449
263.46        78.09528
263.91        76.71346
264.37        75.68711
264.83        74.67613
265.28        73.59309
265.74        72.42815
266.19         70.7645
266.65        68.92776
267.11        67.06674
267.56        65.32878
268.02        63.94335
268.47        62.76628
268.93        61.73079
269.38        60.80897
269.84        60.15361
270.30        59.75235
270.75        59.58634
271.21        59.39798
271.66        58.77697
272.12         57.6797
272.57        56.22539
273.03        54.80854
273.48        53.91964
273.94        53.69172
274.39        53.87177
274.85        54.18607
275.31        54.16705
275.76        53.67887
276.22        52.93203
276.67        52.01017
277.13        51.19834
277.58        50.49385
278.04        49.86869
278.49        49.24673
278.95        48.66406
279.40        48.04459
279.86        47.49162
280.31        46.88564
280.77         46.2069
281.22        45.41062
281.68        44.58274
282.13        43.81701
282.59        43.34031
283.04        43.13467
283.50        43.16739
283.95        43.22476
284.41        43.04541
284.86        42.54838
285.32        41.83562
285.77        41.08671
286.22        40.66191
286.68         40.6007
287.13        40.74736
287.59        40.85179
288.04        40.49986
288.50         39.6778
288.95        38.52219
289.41         37.3336
289.86        36.41517
290.32        35.90812
290.77        35.66418
291.22        35.60646
291.68        35.57711
292.13        35.51265
292.59        35.47271
293.04         35.4446
293.50        35.41842
293.95        35.38401
294.40        35.30945
294.86        35.22948
295.31        35.20831
295.77        35.26336
296.22        35.38885
296.68        35.51435
297.13        35.49352
297.58        35.32344
298.04        35.06863
298.49        34.86932
298.95        34.98269
299.40        35.43037
299.85        36.11562
300.31        36.84832
300.76         37.3392
301.21        37.50161
301.67        37.45979
302.12        37.28279
302.58        37.14198
303.03        37.06385
303.48        37.00934
303.94        37.03254
304.39         37.1781
304.84        37.44553
305.30        37.81584
305.75        38.14361
306.20        38.21917
306.66        38.03078
307.11        37.62787
307.57        37.18415
308.02        36.87402
308.47        36.77613
308.93        36.83799
309.38        36.97772
309.83        37.10201
310.29        37.16692
310.74        37.18544
311.19        37.18331
311.65        37.19477
312.10        37.21961
312.55        37.24427
313.00        37.20214
313.46        37.00298
313.91        36.63422
314.36        36.15023
314.82        35.69457
315.27        35.46245
315.72        35.49793
316.18        35.73692
316.63        36.04216
317.08        36.16146
317.53        36.02665
317.99        35.70499
318.44        35.33199
318.89        35.12555
319.35        35.13132
319.80        35.28666
320.25        35.46089
320.70        35.44404
321.16        35.18641
321.61        34.76113
322.06        34.29264
322.51        33.96643
322.97        33.81753
323.42        33.79871
323.87        33.81116
324.32        33.69484
324.78        33.40792
325.23        33.01663
325.68        32.60336
326.13        32.30345
326.59        32.14877
327.04        32.11445
327.49        32.14325
327.94        32.14649
328.39        32.09661
328.85        32.01451
329.30        31.95509
329.75        31.95988
330.20         32.0438
330.66        32.16539
331.11        32.32775
331.56        32.49245
332.01        32.64224
332.46        32.77378
332.92        32.86744
333.37        32.93548
333.82        32.96087
334.27        32.95224
334.72        32.89372
335.17        32.76608
335.63        32.57711
336.08        32.34771
336.53        32.15347
336.98        32.11846
337.43        32.26332
337.88        32.55886
338.34        32.86849
338.79        33.01762
339.24        32.93628
339.69        32.67003
340.14        32.36119
340.59        32.26132
341.05        32.42012
341.50          32.754
341.95        33.10634
342.40        33.25089
342.85         33.1428
343.30        32.86842
343.75        32.52674
344.20        32.29004
344.66        32.21894
345.11        32.22772
345.56        32.29928
346.01        32.40395
346.46        32.51505
346.91        32.66031
347.36        32.74478
347.81        32.61374
348.26        32.26429
348.72        31.76586
349.17         31.2765
349.62        31.13749
350.07        31.41388
350.52        31.98936
350.97         32.6464
351.42        33.04912
351.87        33.11118
352.32        32.93396
352.77        32.63045
353.22        32.38614
353.67        32.25969
354.13        32.18971
354.58         32.1359
355.03        32.07685
355.48        31.99928
355.93        31.93871
356.38        31.85856
356.83        31.68771
357.28        31.42141
357.73        31.07144
358.18        30.73348
358.63         30.5622
359.08        30.58204
359.53         30.7486
359.98        30.92627
360.43        30.90128
360.88        30.63174
361.33          30.182
361.78        29.70054
362.23        29.43041
362.68        29.42383
363.13        29.59336
363.58        29.79564
364.03        29.80843
364.48         29.5778
364.93        29.18479
365.38        28.72305
365.83        28.33989
366.28         28.0852
366.73        27.90755
367.18        27.78777
367.63        27.69839
368.08        27.62009
368.53        27.57075
368.98        27.51539
369.43        27.38915
369.88        27.18607
370.33        26.92392
370.78        26.65658
371.23         26.4823
371.68        26.42624
372.13        26.45355
372.58        26.53156
373.03        26.60107
373.48        26.63345
373.93        26.64663
374.38         26.6172
374.83        26.50907
375.28         26.3243
375.72        26.06021
376.17        25.80098
376.62        25.64735
377.07        25.62122
377.52        25.68867
377.97        25.78209
378.42        25.78895
378.87        25.68114
379.32        25.50038
379.77        25.28551
380.22        25.09017
380.67        24.93101
381.11        24.78953
381.56        24.66306
382.01        24.55833
382.46        24.47258
382.91        24.40641
383.36        24.34303
383.81        24.25104
384.26        24.12675
384.71        23.98459
385.15        23.82979
385.60        23.68848
386.05         23.5567
386.50        23.42002
386.95        23.29892
387.40        23.23022
387.85        23.21962
388.29        23.25159
388.74        23.28653
389.19        23.22475
389.64         23.0577
390.09        22.80319
390.54        22.55764
390.98        22.48373
391.43        22.61961
391.88        22.89918
392.33         23.1814
392.78         23.2583
393.23        23.10559
393.67        22.79206
394.12         22.4812
394.57        22.32606
395.02        22.36085
395.47        22.52458
395.91        22.75145
396.36        22.89281
396.81        22.90444
397.26        22.81963
397.71        22.67877
398.15        22.51884
398.60        22.39156
399.05        22.29057
399.50        22.19518
399.95        22.01418
400.39        21.84192
400.84        21.62502
401.29        21.45282
401.74        21.43936
402.18        21.61303
402.63        21.90391
403.08        22.21835
403.53        22.40486
403.97        22.42112
404.42        22.31048
404.87        22.11287
405.32        21.90406
405.76        21.72177
406.21        21.55937
406.66        21.44053
407.11         21.4042
407.55         21.4564
408.00        21.58546
408.45        21.74411
408.90        21.82255
409.34         21.7863
409.79        21.66608
410.24        21.52806
410.68        21.46908
411.13        21.51492
411.58        21.63462
412.03        21.78119
412.47        21.87751
412.92         21.8812
413.37         21.8189
413.81        21.72944
414.26        21.68956
414.71        21.70569
415.15        21.75727
415.60        21.78406
416.05        21.70996
416.49         21.5236
416.94         21.2681
417.39        21.00231
417.83        20.82298
418.28        20.76784
418.73        20.79759
419.17        20.89044
419.62        21.01034
420.07        21.13571
420.51        21.27517
420.96        21.38301
421.41         21.3814
421.85         21.2553
422.30        21.05411
422.74        20.83908
423.19        20.74626
423.64        20.78294
424.08        20.92425
424.53        21.09848
424.98        21.21616
425.42        21.25383
425.87        21.22395
426.31        21.15374
426.76         21.1449
427.21        21.18393
427.65        21.10193
428.10        20.98422
428.54        21.10547
428.99        21.47468
429.44        21.96307
429.88          22.361
430.33        22.41772
430.77        22.09705
431.22        21.49039
431.66        20.83411
432.11        20.59965
432.56        20.82414
433.00        21.17594
433.45        21.47288
433.89        21.88358
434.34        22.17141
434.78         21.8113
435.23        20.87118
435.67        20.79224
436.12        21.41544
436.57        21.71866
437.01        21.58457
437.46        21.51579
437.90        21.54931
438.35        21.53861
438.79        21.47468
439.24        21.40473
439.68        21.34922
440.13        21.21742
440.57        21.08507
441.02        21.34729
441.46        21.84526
441.91        21.81157
442.35        21.32089
442.80        21.09021
443.24        21.10773
443.69        21.16524
444.13         21.1834
444.58        20.94504
445.02        20.54287
445.47        20.48654
445.91         20.7084
446.36        20.69995
446.80        20.43684
447.24        20.21158
447.69        20.09061
448.13        20.04317
448.58        20.08808
449.02        20.22127
449.47        20.38323
449.91        20.47583
450.36         20.4762
450.80        20.40566
451.25        20.31272
451.69        20.26262
452.13        20.27734
452.58        20.32291
453.02        20.38095
453.47        20.42562
453.91        20.44899
454.36        20.46928
454.80        20.47209
455.24        20.42643
455.69        20.34449
456.13        20.22851
456.58        20.14802
457.02        20.17611
457.46        20.33061
457.91        20.57574
458.35        20.83808
458.79        20.99849
459.24        21.03745
459.68        20.97264
460.13        20.87599
460.57         20.8136
461.01        20.82491
461.46        20.88198
461.90        20.95324
462.34        20.98553
462.79        20.96034
463.23        20.89241
463.68         20.8284
464.12         20.8507
464.56        20.97403
465.01        21.18447
465.45        21.36567
465.89        21.42668
466.34        21.36609
466.78        21.09527
467.22        20.77103
467.67        20.85861
468.11        21.29041
468.55        21.44288
468.99         21.2718
469.44         21.1404
469.88        21.13266
470.32        21.30835
470.77        21.59075
471.21        21.69424
471.65        21.58419
472.10        21.47789
472.54        21.42316
472.98        21.41971
473.42        21.48523
473.87        21.62363
474.31        21.78294
474.75        21.88015
475.20        21.90154
475.64        21.86084
476.08        21.80264
476.52        21.79366
476.97        21.85244
477.41        21.96258
477.85        22.08014
478.29         22.1775
478.74        22.24717
479.18        22.18948
479.62        22.05433
480.06        22.29287
480.50        22.45336
480.95        22.58944
481.39        22.52785
481.83        22.47248
482.27        22.42547
482.72        22.18818
483.16         21.8674
483.60        21.92542
484.04        22.36831
484.48         22.5615
484.93        22.75632
485.37        23.20474
485.81        23.80122
486.25        23.94189
486.69        31.39021
487.14        25.26324
487.58        16.38651
488.02        20.23941
488.46        22.78822
488.90        22.65007
489.34        23.18312
489.79        22.92988
490.23        23.82281
490.67        24.47267
491.11        24.57193
491.55        24.46765
491.99        24.10962
492.43        23.81966
492.88         23.7026
493.32        23.74564
493.76        23.77719
494.20        23.98041
494.64        24.27818
495.08        24.62654
495.52        24.99174
495.96        25.34892
496.41        25.61451
496.85        25.76228
497.29        25.79757
497.73         25.4777
498.17        25.11173
498.61        25.32013
499.05         26.0999
499.49         26.2279
499.93        26.33398
500.37        26.45822
500.82        26.51544
501.26        26.74616
501.70         27.0137
502.14        27.10501
502.58        27.01418
503.02        26.98938
503.46         27.0475
503.90        27.03993
504.34        26.98602
504.78        26.98474
505.22        27.04523
505.66        27.14756
506.10         27.2567
506.54        27.31105
506.98        27.30005
507.42        27.24774
507.86        27.20839
508.30        27.26504
508.74        27.43075
509.18        27.67064
509.62        27.93115
510.06        28.12475
510.50        28.22484
510.94         28.2625
511.38        28.25557
511.82        28.23262
512.26           28.21
512.70        28.17419
513.14        28.15365
513.58        28.19796
514.02        28.30241
514.46        28.44775
514.90        28.57823
515.34        28.56961
515.78        28.37868
516.22        28.19006
516.66        28.07145
517.10        27.72364
517.54        27.16977
517.98        27.86516
518.42        27.67468
518.86        28.01219
519.30         28.2187
519.74        28.49092
520.18        28.74576
520.62        28.82305
521.06        28.72443
521.50        28.47725
521.93        28.18272
522.37        28.01892
522.81        28.03085
523.25        28.16585
523.69        28.35364
524.13        28.48336
524.57        28.51897
525.01        28.49355
525.45        28.42735
525.89        28.35172
526.32        28.27809
526.76        28.19533
527.20        28.10062
527.64        28.00282
528.08        27.91194
528.52        27.80861
528.96        27.69427
529.40        27.64363
529.83        27.67277
530.27        27.47668
530.71        27.58372
531.15        27.53461
531.59        27.48894
532.03        27.43546
532.46        27.40807
532.90        27.45794
533.34        27.57881
533.78        27.74693
534.22        27.90374
534.66        27.96552
535.09          27.911
535.53        27.78024
535.97        27.61005
536.41        27.46664
536.85        27.37735
537.28        27.32858
537.72        27.31955
538.16        27.34978
538.60        27.41331
539.04        27.48881
539.47        27.56476
539.91        27.69395
540.35        27.84109
540.79        27.89239
541.22        27.86442
541.66         27.8968
542.10        27.99712
542.54        28.08415
542.97        28.16202
543.41        28.28461
543.85        28.44757
544.29        28.64966
544.72        28.83884
545.16         28.9448
545.60        28.95528
546.04        28.88671
546.47        28.83126
546.91        28.94706
547.35         29.2489
547.79        29.69438
548.22        30.14202
548.66        30.34716
549.10        30.28161
549.53        30.06832
549.97        29.85953
550.41        29.81717
550.84        29.99439
551.28        30.35101
551.72        30.80209
552.15        31.18942
552.59        31.45198
553.03        31.63002
553.46         31.7399
553.90        31.83589
554.34        31.94093
554.77        32.00464
555.21         32.0252
555.65        32.10273
556.08        32.25909
556.52        32.08045
556.96         32.3264
557.39         32.3998
557.83        32.53127
558.27        32.68475
558.70        32.85302
559.14        33.00711
559.57        33.12275
560.01        33.22237
560.45        33.28497
560.88        33.27389
561.32        33.21684
561.75        33.12359
562.19        33.05766
562.63        33.04268
563.06        33.09871
563.50         33.2769
563.93        33.52549
564.37        33.72392
564.80         33.8367
565.24        33.92773
565.68        33.99874
566.11        34.04052
566.55         34.0863
566.98        34.13234
567.42         34.2098
567.85        34.36169
568.29        34.61478
568.72        34.84954
569.16        35.09788
569.60        35.52989
570.03        35.98266
570.47        36.05309
570.90         35.8736
571.34        35.46202
571.77        35.90844
572.21        35.92255
572.64        35.90931
573.08        35.42956
573.51        34.35455
573.95        35.81778
574.38         37.9848
574.82        37.17271
575.25         37.0469
575.69        35.84309
576.12        35.04898
576.56        34.97745
576.99        36.03239
577.42        37.47804
577.86        37.35538
578.29        37.05562
578.73        38.94931
579.16        35.87062
579.60         32.8097
580.03        34.31392
580.47        36.65879
580.90        36.92416
581.33         36.2677
581.77        35.97905
582.20        39.23354
582.64        39.03693
583.07        33.24681
583.51           32.64
583.94        32.12082
584.37        33.51397
584.81        35.00928
585.24        36.65786
585.68        37.40623
586.11        36.43877
586.54        33.79331
586.98        32.88264
587.41        33.24972
587.85        34.78992
588.28        35.82763
588.71        34.26645
589.15         33.0689
589.58        33.75018
590.01        34.17269
590.45         34.4832
590.88        34.93493
591.31        34.48143
591.75        34.26289
592.18        34.34662
592.61        35.10183
593.05        35.77767
593.48        37.20224
593.91        37.10833
594.35        34.41726
594.78        33.83274
595.21        33.85411
595.65        35.52333
596.08         36.9817
596.51        35.54105
596.94        34.73042
597.38        35.27242
597.81        37.02411
598.24        37.84643
598.68        37.54347
599.11         37.2409
599.54        39.10752
599.97        39.91938
600.41        37.89159
600.84        38.29145
601.27        39.30775
601.70        39.11546
602.14        39.35562
602.57        39.21226
603.00        40.05264
603.43        41.38691
603.87        42.58945
604.30        42.76696
604.73        41.95488
605.16        41.85115
605.60        42.51928
606.03        43.71402
606.46        45.01413
606.89        44.90819
607.32        44.29771
607.76        44.60364
608.19        46.38188
608.62        46.12823
609.05        45.71049
609.48        46.38574
609.92        46.64037
610.35        46.77868
610.78         48.8772
611.21        49.63767
611.64        47.79218
612.07        48.52616
612.50        49.09306
612.94        49.70889
613.37        49.62098
613.80        50.39927
614.23        51.08919
614.66        51.40385
615.09        51.79964
615.52        52.03261
615.96        52.22443
616.39        52.54361
616.82        52.12807
617.25        52.25688
617.68        53.13829
618.11        53.96097
618.54        54.59143
618.97         54.3484
619.40        53.59492
619.84        53.75264
620.27        54.78737
620.70        55.61261
621.13        55.99635
621.56        55.67849
621.99        54.94851
622.42         55.6905
622.85        57.29191
623.28         57.3091
623.71        56.88456
624.14          56.724
624.57        56.53561
625.00        56.42747
625.43        56.44827
625.86        55.95526
626.29        56.09247
626.72        56.21059
627.15         56.0087
627.58        55.98621
628.01        55.95256
628.44        55.86755
628.87        55.72856
629.30        55.63333
629.73        55.52555
630.16         55.2906
630.59        54.79656
631.02         54.2463
631.45        53.67019
631.88        53.14051
632.31        52.68148
632.74        52.27571
633.17        51.90062
633.60        51.51281
634.03        51.09981
634.46        50.68171
634.89        50.25202
635.32        49.80011
635.75        49.32983
636.18        48.83575
636.61        48.34872
637.04        47.92931
637.47        47.57478
637.89        47.24731
638.32        46.89802
638.75        46.50369
639.18        46.06119
639.61        45.58522
640.04        45.11158
640.47         44.6964
640.90        44.35695
641.33        44.07402
641.76        43.83341
642.18        43.67593
642.61        43.59518
643.04        43.48252
643.47         43.2961
643.90        43.52849
644.33         43.2756
644.76        43.27117
645.18        43.25261
645.61        43.24994
646.04        43.25672
646.47        43.25958
646.90        43.31695
647.33        43.48602
647.75        43.79463
648.18        44.26824
648.61        44.75276
649.04        45.01804
649.47        45.03708
649.89        44.74006
650.32        44.47749
650.75        44.99343
651.18         46.2305
651.61        47.48999
652.03        48.39484
652.46        48.80262
652.89        49.04107
653.32        48.95659
653.74        48.85484
654.17        50.77503
654.60        51.88645
655.03        50.27782
655.46        51.83013
655.88        54.89413
656.31         58.5255
656.74        134.3895
657.16        87.08705
657.59        30.56652
658.02        23.35616
658.45        41.43917
658.87        54.01762
659.30         57.1013
659.73        56.70803
660.15        55.11361
660.58        57.74621
661.01        59.69567
661.44        58.17202
661.86        57.91693
662.29        58.29328
662.72        59.24068
663.14        60.58541
663.57        60.89588
664.00        60.34161
664.42        60.45902
664.85        61.32363
665.27        61.93067
665.70        62.11166
666.13        62.18892
666.55        62.15683
666.98        61.92934
667.41        61.67384
667.83        61.70407
668.26        62.08571
668.69        62.69604
669.11        63.31726
669.54        63.89814
669.96        63.76624
670.39        63.53013
670.82        63.21753
671.24        63.13117
671.67        63.40442
672.09        64.03224
672.52        64.72354
672.94        65.37576
673.37        64.85367
673.80         64.7585
674.22        64.86271
674.65        64.96722
675.07        65.07576
675.50        65.19304
675.92        65.34374
676.35        65.60122
676.77        65.96337
677.20        66.33171
677.62        66.67575
678.05        66.94811
678.47        67.12608
678.90        67.24566
679.32        67.33363
679.75        67.30968
680.17        67.44832
680.60        67.52163
681.02        67.61143
681.45        67.63556
681.87        67.58736
682.30        67.67076
682.72        67.86897
683.15        67.71786
683.57        67.44407
684.00        67.97681
684.42         69.2524
684.85        69.81543
685.27        69.59299
685.70        69.28391
686.12        69.06841
686.54        69.00647
686.97        69.15896
687.39        69.51839
687.82        69.94271
688.24        70.24619
688.66        70.35079
689.09        70.31327
689.51        70.24955
689.94        70.32185
690.36        70.57915
690.78         70.9561
691.21        71.34866
691.63        71.59909
692.06        71.67327
692.48        71.64114
692.90        71.59779
693.33         71.6609
693.75        71.85732
694.17        72.17966
694.60        72.57594
695.02        72.82016
695.44        72.87054
695.87        73.24521
696.29        73.87104
696.71        73.60944
697.14        72.77302
697.56        73.35795
697.98        75.04099
698.41        75.08386
698.83         74.2359
699.25        73.76088
699.68        73.97945
700.10        74.03815
700.52        73.96051
700.94        74.16934
701.37        74.59131
701.79        75.03741
702.21        75.42915
702.64        75.65207
703.06        75.94199
703.48        75.94151
703.90        75.75257
704.33        75.38515
704.75         74.9852
705.17        74.90746
705.59        75.21431
706.01        75.64037
706.44        76.02812
706.86        76.79346
707.28        76.83579
707.70         77.0368
708.12        77.14788
708.55        76.95731
708.97        76.99699
709.39        76.83852
709.81        76.71614
710.23        76.73904
710.66        76.93829
711.08        77.31076
711.50        77.71057
711.92        77.93265
712.34         77.9267
712.76        77.73172
713.19        77.50014
713.61        77.51599
714.03        77.82409
714.45        78.34569
714.87        78.86401
715.29        79.03574
715.71        78.79767
716.13        78.26711
716.56        77.69256
716.98        77.50371
717.40        77.79451
717.82        78.43434
718.24        79.18932
718.66        79.64103
719.08        79.70525
719.50        79.48408
719.92        79.13702
720.34        78.92429
720.76         78.9315
721.19        78.94267
721.61        79.17004
722.03        79.40741
722.45         79.6884
722.87        80.02236
723.29        80.35463
723.71        80.57683
724.13        80.66154
724.55           80.63
724.97        80.53519
725.39        80.47813
725.81        80.49278
726.23        80.55561
726.65         80.6538
727.07        80.76154
727.49        80.87144
727.91          81.003
728.33        81.14399
728.75         81.2685
729.17        81.36604
729.59        81.42517
730.01        81.47571
730.43        81.58562
730.85        81.77554
731.27        82.01705
731.69        82.21375
732.10        82.43267
732.52        82.24737
732.94        82.06812
733.36        81.95042
733.78        82.01369
734.20        82.28767
734.62        83.10852
735.04        84.17625
735.46           84.13
735.88        83.24679
736.30        83.44988
736.72        84.81153
737.13        85.35487
737.55        84.83081
737.97        85.04205
738.39         85.8592
738.81        84.86632
739.23        82.76876
739.65        83.68154
740.06        86.96479
740.48        87.63519
740.90        85.39066
741.32        84.49207
741.74        85.17009
742.16         85.5392
742.57        85.64452
742.99        86.49297
743.41        87.82325
743.83        88.62755
744.25        88.76611
744.67        88.58615
745.08        88.32878
745.50        88.29079
745.92        88.59061
746.34          89.132
746.75        89.75278
747.17        90.13226
747.59        90.21433
748.01        90.17778
748.42        90.16157
748.84        90.22574
749.26        90.51588
749.68        91.19112
750.09        92.09259
750.51        92.85287
750.93        93.23911
751.35        92.93912
751.76        92.24783
752.18        91.71642
752.60        92.27732
753.01        92.37163
753.43        92.31235
753.85        92.49163
754.27        92.87531
754.68        94.32656
755.10        94.65484
755.52        95.35757
755.93        95.73347
756.35        95.76946
756.77        95.65721
757.18        95.61319
757.60        95.72964
758.02        96.39896
758.43        97.09801
758.85         96.4679
759.26        94.08262
759.68        93.55258
760.10         95.2373
760.51        96.13165
760.93        95.96918
761.34        95.03481
761.76        94.68416
762.18        93.81033
762.59        93.16005
763.01        93.57246
763.42        94.99875
763.84        96.12248
764.26        96.67175
764.67         96.8709
765.09        96.76571
765.50        96.72977
765.92        96.63484
766.33        95.41743
766.75        93.59896
767.16        92.81111
767.58        93.36569
768.00        95.08505
768.41        97.53129
768.83        99.27459
769.24        99.62046
769.66        98.78867
770.07        97.34188
770.49        95.49683
770.90        93.88132
771.32        94.90347
771.73        97.70789
772.15        97.28086
772.56        94.18374
772.97        93.28084
773.39        95.61738
773.80        96.33437
774.22         95.5078
774.63        95.47731
775.05        96.17725
775.46        96.49216
775.88        96.29131
776.29        95.90573
776.70        95.50295
777.12        95.39371
777.53        95.66386
777.95        96.13937
778.36         96.6115
778.77        96.71509
779.19        96.42304
779.60        95.86019
780.02         95.2776
780.43        95.19872
780.84        95.79179
781.26        96.25318
781.67         96.5725
782.09         98.1036
782.50        100.0778
782.91        99.00019
783.33        95.74575
783.74        94.65978
784.15        95.96188
784.57        96.84464
784.98        96.91987
785.39        96.98788
785.81         96.9507
786.22        96.39789
786.63        95.70158
787.04        95.65917
787.46        96.35638
787.87        97.43859
788.28        98.48222
788.70        99.34389
789.11         98.8534
789.52        98.21729
789.93        97.48345
790.35         96.8143
790.76        96.49384
791.17        97.18687
791.58         98.5691
792.00        99.22707
792.41         98.9249
792.82        98.53605
793.23        98.35948
793.65        97.68253
794.06        96.99304
794.47        98.49248
794.88         101.141
795.29        100.8848
795.71        97.95699
796.12        95.41244
796.53        94.06657
796.94        93.65395
797.35        94.29034
797.76         95.7957
798.18          97.465
798.59        98.56863
799.00        98.69266
799.41        97.75224
799.82        96.28687
800.23        95.43658
800.64        95.45319
801.06        95.88754
801.47        96.58288
801.88        97.16491
802.29        97.46725
802.70        97.64426
803.11        97.70055
803.52          97.604
803.93        97.40777
804.34        97.08779
804.75        96.76782
805.17        96.83002
805.58        97.39417
805.99         97.8334
806.40        98.03177
806.81        99.05946
807.22        100.2274
807.63        98.75576
808.04        95.45554
808.45        94.03675
808.86        94.81763
809.27        95.89832
809.68        96.80761
810.09        97.51823
810.50         97.7822
810.91        97.64428
811.32        97.25582
811.73        96.86417
812.14         96.5554
812.55        96.19643
812.96        95.91135
813.37        95.92454
813.78        96.26817
814.19        96.96495
814.60        97.61104
815.01        97.55838
815.42        96.71561
815.83        95.22419
816.24        93.73014
816.65        93.36457
817.05        94.44608
817.46        96.60049
817.87        98.98048
818.28        100.0896
818.69        99.51965
819.10        97.64295
819.51        95.40867
819.92        94.44497
820.33        95.17918
820.74        97.06785
821.14        99.19088
821.55        100.0821
821.96        99.32247
822.37        97.15609
822.78        94.54562
823.19        93.18929
823.60        93.45525
824.00         94.7966
824.41        96.49442
824.82        97.53194
825.23        97.48521
825.64        96.72809
826.04        95.69518
826.45        95.02151
826.86        94.88647
827.27        95.02857
827.68        95.32735
828.08        95.65712
828.49        95.85683
828.90         96.0862
829.31        96.23045
829.72        96.04571
830.12        95.54415
830.53        94.77229
830.94         94.0786
831.35        93.95422
831.75        94.53117
832.16        95.61456
832.57        96.91225
832.97        97.80147
833.38        97.97732
833.79        97.61704
834.20        97.03154
834.60        96.70085
835.01        96.77956
835.42        97.11011
835.82        97.46911
836.23        97.38867
836.64        96.82263
837.04        95.97723
837.45        95.15111
837.86        94.80413
838.26        95.05789
838.67         95.6975
839.08        96.53239
839.48        97.20953
839.89        97.52454
840.29        97.58548
840.70        97.38466
841.11        96.88659
841.51          96.147
841.92        95.16544
842.33         94.1675
842.73        93.54826
843.14         93.3702
843.54         93.6001
843.95        93.98217
844.35         94.1421
844.76         93.9558
845.17        93.54752
845.57        93.08513
845.98        92.84796
846.38        92.90268
846.79        93.11842
847.19         93.4182
847.60        93.55889
848.00        93.52212
848.41        93.37222
848.81         93.2112
849.22        93.11086
849.62        93.16342
850.03        93.33472
850.43        93.68172
850.84        94.16713
851.24        94.80497
851.65        95.35241
852.05        95.91997
852.46        96.48943
852.86        97.03469
853.27        97.61311
853.67        97.69154
854.07        96.59405
854.48        94.41559
854.88        91.42856
855.29        88.67476
855.69        87.65356
856.10        88.64266
856.50        91.46615
856.90        95.13573
857.31        97.34559
857.71        97.33065
858.12        95.65967
858.52        93.39883
858.92        92.01093
859.33        91.81626
859.73        92.43257
860.13        93.55865
860.54        94.56312
860.94        95.26464
861.34        95.82233
861.75        96.28217
862.15        96.79172
862.55        97.34086
862.96          97.785
863.36        98.11716
863.76        98.29923
864.17        98.33482
864.57        98.33361
864.97        98.31056
865.38        98.26111
865.78         98.2504
866.18        98.20367
866.58        98.26003
866.99        98.62357
867.39        99.39972
867.79        100.5754
868.19        101.7038
868.60        101.9391
869.00        101.1195
869.40        99.43651
869.80         97.8187
870.21        97.73465
870.61        99.58624
871.01        102.9268
871.41         106.582
871.81        108.5505
872.22        108.2686
872.62        106.3532
873.02        104.0074
873.42        103.0339
873.82         103.911
874.22        106.3497
874.63        109.3923
875.03        110.8595
875.43        109.8767
875.83        106.9773
876.23        104.9123
876.63        104.7983
877.03        107.5026
877.44        113.4986
877.84        93.16786
878.24        122.6956
878.64        119.9603
879.04        113.1055
879.44        112.0429
879.84        111.4097
880.24        109.6085
880.64        111.2537
881.04        115.6533
881.44        118.7682
881.84        118.6069
882.24        116.2912
882.65        113.4401
883.05        112.2729
883.45        113.1969
883.85        115.4113
884.25        117.9439
884.65        119.2476
885.05        118.7976
885.45        117.2174
885.85        115.4812
886.25        114.8707
886.65        115.6395
887.05        117.3274
887.45        119.3248
887.85        120.5561
888.25        120.6372
888.65        119.9627
889.04        118.8657
889.44        117.9073
889.84        117.2907
890.24         116.821
890.64        116.5804
891.04        116.7235
891.44        117.2179
891.84         118.066
892.24        118.9607
892.64        119.2871
893.04        118.9602
893.44        118.2556
893.83        117.5284
894.23        117.3625
894.63        117.8549
895.03        118.7451
895.43        120.0527
895.83        121.7661
896.23        123.7056
896.63        125.8501
897.02        127.4894
897.42        127.4742
897.82        125.7072
898.22        122.5992
898.62        119.3247
899.01        117.6111
899.41        117.8447
899.81        119.4624
900.21        121.5732
900.61        122.7035
901.00        122.4391
901.40        121.2925
901.80        119.8093
902.20        118.8279
902.59        118.6133
902.99        118.8466
903.39        119.3037
903.79        119.6285
904.18        119.6886
904.58        119.6741
904.98        119.6723
905.38        119.7886
905.77        120.0117
906.17        120.2475
906.57        120.4625
906.96        120.6866
907.36        120.8669
907.76        121.0432
908.15        121.0732
908.55        120.6038
908.95        119.6523
909.34        118.2677
909.74        116.9402
910.14        116.2602
910.53         116.404
910.93        117.3016
911.33        118.4658
911.72        119.0059
912.12        118.6632
912.52        117.6914
912.91         116.791
913.31        116.9378
913.70         118.333
914.10         120.771
914.49        123.5023
914.89         124.315
915.29        122.5323
915.68        118.9512
916.08        115.4248
916.47        113.7071
916.87        114.0393
917.26        115.8208
917.66        118.0033
918.05        118.9013
918.45        118.0515
918.84        116.0732
919.24        113.9727
919.64        113.1859
920.03        114.0961
920.42        116.2174
920.82         118.771
921.21        120.5921
921.61         121.095
922.00        120.6932
922.40        119.8059
922.79         118.887
923.19        118.0805
923.58        117.4833
923.98         117.136
924.37        116.3031
924.77        114.9819
925.16        116.2891
925.55        115.1183
925.95        116.1085
926.34        117.6503
926.74         119.471
927.13        121.1431
927.52        121.8828
927.92          121.65
928.31        120.6366
928.70        119.0722
929.10        117.3513
929.49        115.6616
929.89        114.0022
930.28        112.8362
930.67        112.9178
931.07        114.2273
931.46        116.5751
931.85        119.1205
932.24        120.6035
932.64         120.738
933.03        119.8242
933.42        118.1466
933.82        116.5195
934.21        115.2647
934.60         114.247
934.99        113.7051
935.39        113.6372
935.78        114.0262
936.17        115.5738
936.56        118.0521
936.96        116.5196
937.35        115.9544
937.74        112.8758
938.13        110.5249
938.53        110.1691
938.92        111.7341
939.31        114.9293
939.70         118.584
940.09         119.854
940.49        117.7731
940.88        113.5659
941.27        109.2036
941.66        106.9583
942.05        107.1317
942.44        108.9824
942.84        111.6672
943.23        113.8314
943.62        114.8086
944.01        114.9677
944.40        114.6855
944.79        114.5467
945.18        114.7382
945.57        115.0168
945.97        114.9761
946.36        114.1063
946.75        112.4577
947.14        110.6149
947.53        109.2066
947.92        108.7029
948.31        109.0746
948.70        110.1701
949.09        111.7313
949.48        113.0723
949.87        113.8033
950.26        114.0334
950.65        113.9398
951.04         113.879
951.43        113.9516
951.82        113.9631
952.21        113.8572
952.60        113.6122
952.99        113.2039
953.38        112.6999
953.77         112.062
954.16         111.158
954.55         110.027
954.94         108.815
955.33        107.6407
955.72        106.6888
956.11        106.0698
956.50         105.739
956.89         105.921
957.28        106.9552
957.66        108.8742
958.05         111.289
958.44        113.5843
958.83        114.8644
959.22        114.9223
959.61        113.9128
960.00         112.361
960.39        111.1702
960.78        110.6262
961.16        110.5992
961.55        110.6009
961.94        109.8421
962.33        108.2293
962.72        106.1719
963.11        104.3552
963.49        103.6403
963.88        104.1459
964.27        105.6431
964.66        107.5502
965.04        108.6219
965.43        108.2597
965.82        106.9605
966.21        105.4352
966.60        104.6158
966.98        104.6927
967.37         105.275
967.76        106.0779
968.15        106.5601
968.53        106.4901
968.92        106.0721
969.31        105.4043
969.69        104.5203
970.08         103.527
970.47         102.449
970.86        101.4223
971.24        100.7583
971.63        100.5356
972.02        100.6951
972.40        101.3656
972.79        102.6029
973.17        104.4708
973.56        106.7729
973.95         108.899
974.33        109.6726
974.72        108.7666
975.11         106.543
975.49        104.1148
975.88        103.0837
976.26        103.6827
976.65        105.6208
977.04         107.919
977.42         108.133
977.81        105.4421
978.19        100.9339
978.58        96.95614
978.96        95.90391
979.35        98.10027
979.74        102.9414
980.12        109.3836
980.51         113.629
980.89        114.3364
981.28        112.4983
981.66        109.3865
982.05        106.6911
982.43        104.8651
982.82        103.5332
983.20        102.9005
983.59        103.4817
983.97        105.3976
984.35        108.6538
984.74        112.5835
985.12        115.8902
985.51        117.3372
985.89        117.0918
986.28         115.055
986.66        111.3727
987.04         106.993
987.43        102.5835
987.81        98.96507
988.20        96.95168
988.58         96.5761
988.96        97.79566
989.35        101.2667
989.73        107.5621
990.12        114.3855
990.50         120.072
990.88        122.5899
991.27         121.715
991.65        118.0925
992.03        111.8779
992.42        104.6841
992.80        99.90348
993.18        98.89429
993.56        100.2878
993.95        102.5947
994.33        104.2988
994.71        104.9631
995.10        105.3197
995.48        105.2034
995.86        104.1728
996.24        102.2257
996.63        99.08948
997.01        95.81736
997.39        95.34355
997.77        98.75916
998.15        105.1313
998.54        111.7503
998.92        115.2011
999.30        114.4599
999.68        110.5838
1000.06         104.467
1000.45        98.69955
1000.83        94.82076
1001.21         92.2177
1001.59        91.47849
1001.97        93.35062
1002.35        97.83378
1002.73        105.8009
1003.12        115.1329
1003.50        118.8207
1003.88        113.2957
1004.26        101.5599
1004.64        90.32384
1005.02        85.74315
1005.40        88.54861
1005.78        98.83295
1006.16        116.3799
1006.54        129.4679
1006.92        128.6462
1007.30        120.5641
1007.69        113.1323
1008.07        110.7115
1008.45        113.8507
1008.83        123.6002
1009.21        147.7822
1009.59        201.1863
1009.97        284.4416
1010.35        319.3697
1010.73        228.3202
1011.11        158.4759
1011.49        127.9716
1011.86        114.2032
1012.24        108.3507
1012.62        106.3507
1013.00        106.5841
1013.38        108.5272
1013.76         114.376
1014.14        128.9482
1014.52        155.1117
1014.90        193.6878
1015.28        233.8799
1015.66        250.8548
1016.04        229.9704
1016.41        175.5541
1016.79        114.6995
1017.17        78.17187
1017.55        66.97253
1017.93        67.59003
1018.31        72.97408
1018.69        79.86376
1019.06        88.55959
1019.44        101.7719
1019.82        123.0783
1020.20        153.5867
1020.58        194.2039
1020.95        248.6277
1021.33        350.7704
1021.71         -1373.5
1022.09       -7.329759
1022.46        62.51503
1022.84        82.89338
1023.22        89.55656
1023.60        88.33343
1023.97        27.70269
1024.35        139.4048
1024.73        131.3093
