SpectraSmart Spectrum 2.9.0.0
--------- Device Information -----------
Spectrum Name :  反射率_0
Saving Time :  2024/04/25 23:02:34
Spectro-Module Model Name : SE2030-DUVN
Spectro-Module Serial Number : OS361AC55029948
Wavelength Start : 200
Wavelength End : 1025
Wavelength Unit : Wavelength(nm)
Spectrum Unit : Reflectance(%)
-----------Spectrum Setting ------------
Integration Time : 20ms
Average : 10
Boxcar : 0
Background removal :  enabled
linearity correction :  enabled
SC :  disabled
Intensity correction :  disabled
DWT denoise :  enabled
savitzky-golay :  disabled
FFT :  disabled
Running average :  disabled
Kalman :  disabled
High pass :  disabled
---------------BEGIN--------------------
Wavelength(nm)             Reflectance(%)
200.29               0
200.75        85.16953
201.21        77.11636
201.67        67.76847
202.13        62.03842
202.58         60.5455
203.04        62.15534
203.50        65.48103
203.96        68.04439
204.42        68.92583
204.88         68.9494
205.34        68.82359
205.80        69.32799
206.26        71.00004
206.72        74.69855
207.18         81.7167
207.64        87.78815
208.10        83.58119
208.55        74.69501
209.01        69.47036
209.47         68.8799
209.93        71.23988
210.39         75.9551
210.85        80.62439
211.31        79.98023
211.77        72.73273
212.23          61.005
212.69        49.61728
213.14        45.96587
213.60        51.16847
214.06        63.22956
214.52         77.1943
214.98        85.26511
215.44        85.49984
215.90        80.47613
216.36        73.55458
216.81        69.40212
217.27        69.30749
217.73        71.43537
218.19        73.71184
218.65        73.57451
219.11        70.14914
219.57        63.24298
220.02        54.01169
220.48        48.95729
220.94        51.44281
221.40        59.58653
221.86        66.94143
222.32        66.96968
222.77        60.59222
223.23        51.81849
223.69        44.54689
224.15        42.76478
224.61        45.97736
225.06         52.1355
225.52        58.38051
225.98        61.18098
226.44        59.90427
226.90        56.12217
227.36        51.73404
227.81        49.23572
228.27        49.51007
228.73        51.49492
229.19        54.30428
229.65        56.64389
230.10        58.04163
230.56        58.94313
231.02        59.63752
231.48        60.46401
231.93        61.43533
232.39        62.39172
232.85        63.11904
233.31        63.39362
233.77        63.13294
234.22        62.42001
234.68        61.31636
235.14        59.97324
235.60         58.5913
236.05        57.29906
236.51        56.14684
236.97         55.0357
237.43        53.89706
237.88        52.75884
238.34        51.80326
238.80         51.7825
239.26        53.00734
239.71        55.42413
240.17        58.04641
240.63        59.64058
241.08         59.8947
241.54        59.00875
242.00        57.69705
242.46        56.91369
242.91        57.09646
243.37        58.33444
243.83        63.59614
244.28        85.11506
244.74        117.0247
245.20        110.1509
245.66        98.61309
246.11        95.00653
246.57        96.45315
247.03        103.6893
247.48        125.7251
247.94        116.1223
248.40        92.72216
248.85        85.34241
249.31        83.43047
249.77        83.59836
250.22        85.03137
250.68         87.7297
251.14        91.19898
251.59        91.79448
252.05        87.14371
252.51        79.74756
252.96        72.81877
253.42        69.25746
253.88        68.37761
254.33         68.9652
254.79        71.14867
255.25        74.45163
255.70        77.96658
256.16        81.55695
256.62        83.60614
257.07        82.47295
257.53        79.03468
257.99        73.96355
258.44        69.02952
258.90        67.14179
259.35        67.38296
259.81        68.59263
260.27        68.92082
260.72        66.61205
261.18        62.40992
261.63        57.10642
262.09        52.24046
262.55        48.90574
263.00         47.0703
263.46        46.28447
263.91         45.7275
264.37        44.80872
264.83        43.35182
265.28        41.49457
265.74        39.75336
266.19        38.63507
266.65        38.31976
267.11        38.46992
267.56        38.61427
268.02         38.2121
268.47         37.1627
268.93        35.67792
269.38        34.05761
269.84        33.03045
270.30         32.7838
270.75        33.10789
271.21        33.62318
271.66        33.76491
272.12        33.38069
272.57        32.64655
273.03        31.84545
273.48        31.31442
273.94        31.16485
274.39        31.22767
274.85        31.32649
275.31         31.1977
275.76        30.77097
276.22        30.17088
276.67        29.51657
277.13        29.07286
277.58        28.83326
278.04        28.74639
278.49        28.62691
278.95        28.28572
279.40        27.66957
279.86        26.92346
280.31        26.15689
280.77        25.64744
281.22        25.40157
281.68        25.34963
282.13        25.37582
282.59        25.35953
283.04        25.25074
283.50        25.12403
283.95        24.95154
284.41        24.71605
284.86        24.41675
285.32        24.06087
285.77        23.74297
286.22         23.6741
286.68        23.85085
287.13        24.18192
287.59        24.46053
288.04        24.36374
288.50         23.8717
288.95        23.08703
289.41        22.24771
289.86         21.6026
290.32        21.27402
290.77        21.16672
291.22        21.22378
291.68        21.31878
292.13        21.41401
292.59        21.54987
293.04        21.75672
293.50        22.08009
293.95        22.50727
294.40        22.98101
294.86        23.43427
295.31        23.78384
295.77        24.01779
296.22        24.17109
296.68        24.28428
297.13        24.39363
297.58        24.54213
298.04        24.74238
298.49        25.03097
298.95        25.49739
299.40        26.13441
299.85        26.90351
300.31        27.71535
300.76         28.4385
301.21        29.00913
301.67        29.47269
302.12        29.81094
302.58        30.06046
303.03        30.22741
303.48        30.32409
303.94        30.44394
304.39        30.69464
304.84        31.09868
305.30        31.61396
305.75        32.11699
306.20        32.42655
306.66        32.52257
307.11        32.44861
307.57        32.31627
308.02        32.21629
308.47        32.21155
308.93         32.2714
309.38        32.38127
309.83        32.55165
310.29        32.76123
310.74        32.99706
311.19        33.21643
311.65        33.34968
312.10        33.37856
312.55        33.32273
313.00        33.19431
313.46        33.02747
313.91        32.83587
314.36        32.63159
314.82        32.46774
315.27        32.40741
315.72        32.46701
316.18        32.62526
316.63        32.82577
317.08        32.94918
317.53        32.95757
317.99        32.86755
318.44        32.73973
318.89        32.67814
319.35        32.69614
319.80        32.76658
320.25        32.80255
320.70        32.66579
321.16        32.33882
321.61        31.88236
322.06        31.40455
322.51        31.06531
322.97        30.89355
323.42        30.84859
323.87        30.86161
324.32        30.81723
324.78        30.67553
325.23        30.48202
325.68        30.25146
326.13        30.01211
326.59        29.77638
327.04        29.55158
327.49        29.36207
327.94        29.25894
328.39        29.25258
328.85        29.32033
329.30        29.45716
329.75         29.6003
330.20        29.72527
330.66        29.82843
331.11        29.91633
331.56        29.95656
332.01        29.94394
332.46        29.86224
332.92        29.75135
333.37        29.73034
333.82        29.81248
334.27        29.99034
334.72        30.15059
335.17        30.09531
335.63        29.78996
336.08        29.30899
336.53        28.83699
336.98        28.67575
337.43        28.88805
337.88         29.3796
338.34        29.94068
338.79        30.27355
339.24        30.26702
339.69        30.01452
340.14        29.66344
340.59          29.474
341.05        29.51693
341.50        29.70006
341.95        29.93694
342.40        30.10995
342.85        30.18172
343.30        30.20865
343.75        30.17785
344.20        30.06141
344.66        29.87029
345.11        29.58348
345.56        29.29964
346.01        29.16889
346.46        29.20825
346.91        29.38638
347.36        29.54836
347.81        29.44319
348.26        29.04316
348.72        28.46734
349.17        27.88739
349.62        27.66146
350.07        27.87107
350.52        28.38379
350.97        29.02696
351.42        29.54006
351.87        29.83313
352.32        29.97523
352.77        29.98095
353.22        29.87796
353.67        29.69398
354.13        29.42108
354.58        29.11082
355.03        28.89041
355.48        28.79099
355.93        28.80286
356.38        28.85014
356.83        28.79775
357.28        28.61283
357.73        28.32742
358.18        28.03045
358.63        27.86106
359.08        27.84729
359.53        27.95015
359.98        28.05115
360.43        27.96913
360.88        27.67275
361.33         27.2165
361.78        26.75633
362.23        26.54458
362.68        26.62477
363.13        26.90141
363.58        27.19205
364.03        27.21294
364.48        26.90246
364.93        26.36612
365.38        25.74053
365.83         25.2436
366.28         24.9499
366.73        24.79011
367.18        24.73499
367.63        24.73791
368.08        24.76133
368.53        24.81951
368.98        24.85853
369.43        24.78428
369.88        24.58589
370.33        24.29204
370.78        23.96065
371.23        23.70082
371.68        23.55133
372.13        23.47928
372.58        23.49109
373.03        23.58978
373.48         23.7511
373.93        23.96629
374.38        24.14845
374.83        24.16397
375.28        23.99188
375.72        23.65863
376.17        23.28346
376.62        23.02832
377.07        22.94006
377.52        22.96746
377.97        23.04903
378.42        23.08101
378.87        23.02985
379.32        22.93654
379.77        22.81082
380.22        22.66073
380.67        22.49539
381.11        22.30677
381.56        22.12037
382.01        21.99224
382.46        21.93261
382.91        21.92777
383.36        21.93637
383.81        21.88719
384.26        21.76636
384.71         21.6017
385.15        21.41975
385.60        21.27499
386.05        21.17029
386.50        21.08013
386.95        21.00725
387.40        20.95876
387.85        20.93441
388.29         20.9355
388.74        20.93402
389.19        20.85125
389.64        20.68226
390.09        20.43662
390.54        20.20758
390.98        20.15341
391.43        20.30647
391.88        20.60002
392.33        20.88581
392.78        20.94511
393.23        20.75485
393.67        20.39294
394.12        20.02771
394.57          19.824
395.02        19.81968
395.47        19.95251
395.91        20.16106
396.36        20.30717
396.81        20.34585
397.26        20.30587
397.71        20.21705
398.15        20.10234
398.60        20.00621
399.05         19.9258
399.50        19.84198
399.95         19.6743
400.39        19.50848
400.84        19.29558
401.29        19.12894
401.74        19.13364
402.18        19.34013
402.63         19.6811
403.08        20.04334
403.53        20.24514
403.97        20.24007
404.42         20.0774
404.87        19.83397
405.32        19.64764
405.76        19.56421
406.21        19.55136
406.66        19.57682
407.11        19.60009
407.55        19.61293
408.00        19.62724
408.45        19.64457
408.90        19.65013
409.34        19.64018
409.79        19.61369
410.24        19.58982
410.68        19.59975
411.13        19.65365
411.58        19.74418
412.03        19.84602
412.47         19.9172
412.92        19.93143
413.37        19.90265
413.81        19.86201
414.26        19.87658
414.71        19.94844
415.15        20.05927
415.60        20.15102
416.05         20.1495
416.49        20.04135
416.94        19.86749
417.39        19.67343
417.83        19.53537
418.28         19.4879
418.73        19.49847
419.17        19.56703
419.62        19.68986
420.07        19.85222
420.51        20.05295
420.96        20.22853
421.41        20.26811
421.85        20.14931
422.30        19.93578
422.74        19.70231
423.19        19.60086
423.64        19.64564
424.08        19.80519
424.53        20.01424
424.98        20.19156
425.42        20.31002
425.87        20.37845
426.31         20.4034
426.76        20.45481
427.21          20.514
427.65        20.42282
428.10         20.2829
428.54        20.39315
428.99        20.77265
429.44        21.29097
429.88        21.73087
430.33        21.82433
430.77        21.53302
431.22        20.95728
431.66         20.3406
432.11        20.15759
432.56        20.44942
433.00        20.89371
433.45        21.29666
433.89        21.76043
434.34        22.07109
434.78         21.7191
435.23        21.03717
435.67        20.90321
436.12        21.30189
436.57        21.56391
437.01        21.58501
437.46        21.57857
437.90        21.56919
438.35        21.57898
438.79        21.58669
439.24        21.54424
439.68        21.46968
440.13        21.30043
440.57        21.12977
441.02        21.38874
441.46         21.9274
441.91        21.93853
442.35        21.49168
442.80        21.35106
443.24        21.48293
443.69         21.5844
444.13        21.57814
444.58        21.33805
445.02        20.96399
445.47        20.91465
445.91        21.14171
446.36        21.18629
446.80        21.02349
447.24        20.93199
447.69        20.93714
448.13        20.93724
448.58        20.93969
449.02        20.96711
449.47        21.00438
449.91        21.02542
450.36        21.02845
450.80        21.01209
451.25        21.00126
451.69        21.02256
452.13        21.08346
452.58         21.1627
453.02         21.2408
453.47        21.28993
453.91        21.30412
454.36        21.29847
454.80        21.26996
455.24        21.20968
455.69        21.13457
456.13        21.04111
456.58        20.98491
457.02        21.01567
457.46        21.14722
457.91        21.35178
458.35        21.56777
458.79         21.6952
459.24        21.72033
459.68        21.65553
460.13        21.56575
460.57        21.50471
461.01        21.51113
461.46        21.56445
461.90        21.63909
462.34        21.69182
462.79        21.70473
463.23        21.68358
463.68        21.67373
464.12        21.75582
464.56        21.93663
465.01         22.2018
465.45        22.41356
465.89        22.45521
466.34        22.32845
466.78        21.95199
467.22        21.52081
467.67        21.56562
468.11        22.02774
468.55        22.24864
468.99        22.15476
469.44        22.07667
469.88        22.08779
470.32        22.26484
470.77        22.53465
471.21        22.61133
471.65        22.46631
472.10        22.31968
472.54        22.23251
472.98        22.22353
473.42         22.3136
473.87        22.50466
474.31        22.72186
474.75        22.84485
475.20        22.85405
475.64        22.77425
476.08        22.67799
476.52        22.67516
476.97         22.7934
477.41        23.00254
477.85        23.22979
478.29        23.40269
478.74        23.49998
479.18        23.42764
479.62        23.26273
480.06        23.51544
480.50        23.72034
480.95        23.93241
481.39        23.94046
481.83        23.91121
482.27        23.84073
482.72        23.54467
483.16         23.1794
483.60        23.25587
484.04        23.78842
484.48        24.16834
484.93        24.59204
485.37        25.01673
485.81         25.4952
486.25        25.62784
486.69        34.79745
487.14        27.85981
487.58        17.48114
488.02        21.65833
488.46        24.67884
488.90        24.48457
489.34        24.88425
489.79        24.55959
490.23        25.73489
490.67        26.32646
491.11        26.12106
491.55        26.11738
491.99        26.20308
492.43        26.13311
492.88        25.96963
493.32        26.02844
493.76        26.14304
494.20        26.39357
494.64        26.69969
495.08        27.07062
495.52        27.46658
495.96        27.79457
496.41        27.99726
496.85        28.18914
497.29        28.35416
497.73        28.06193
498.17        27.64108
498.61        27.86383
499.05        28.73537
499.49        28.88463
499.93        29.00721
500.37        29.14987
500.82        29.22475
501.26        29.50673
501.70        29.84652
502.14        30.00715
502.58        29.96259
503.02        29.95767
503.46        30.00659
503.90        29.95227
504.34        29.84638
504.78        29.84675
505.22        29.97332
505.66        30.19009
506.10        30.42212
506.54        30.53976
506.98        30.51405
507.42        30.38833
507.86        30.25906
508.30        30.27533
508.74        30.46578
509.18        30.77587
509.62        31.11486
510.06        31.33398
510.50        31.39372
510.94        31.34995
511.38        31.25722
511.82        31.20018
512.26        31.20914
512.70        31.24914
513.14        31.32673
513.58        31.45516
514.02        31.61618
514.46        31.80399
514.90        31.96025
515.34        31.95904
515.78        31.76083
516.22        31.53751
516.66        31.38111
517.10        31.05305
517.54        30.58397
517.98        31.35117
518.42          31.273
518.86        31.61881
519.30        31.74945
519.74        31.87503
520.18        31.97907
520.62        32.00904
521.06        31.98812
521.50        31.91125
521.93        31.80796
522.37        31.73814
522.81        31.71745
523.25        31.73126
523.69        31.77352
524.13        31.83128
524.57        31.89352
525.01        31.96247
525.45        32.01231
525.89        32.00158
526.32        31.92155
526.76        31.78557
527.20        31.62805
527.64          31.515
528.08        31.46864
528.52        31.44271
528.96        31.40292
529.40         31.3811
529.83        31.38511
530.27        31.09336
530.71        31.13235
531.15        31.02394
531.59        30.96109
532.03        30.91621
532.46         30.9225
532.90        31.02718
533.34        31.21551
533.78        31.46416
534.22        31.68977
534.66        31.77201
535.09        31.68335
535.53          31.472
535.97        31.20707
536.41        31.00942
536.85        30.91917
537.28         30.9105
537.72        30.94612
538.16         30.9662
538.60        30.95499
539.04        30.91197
539.47        30.87144
539.91        30.96162
540.35         31.1567
540.79        31.30685
541.22        31.38887
541.66        31.49521
542.10        31.61713
542.54        31.68254
542.97        31.72655
543.41        31.85685
543.85        32.08007
544.29        32.37707
544.72        32.66513
545.16        32.82976
545.60        32.84861
546.04        32.75369
546.47        32.66706
546.91        32.79384
547.35        33.15685
547.79        33.69611
548.22        34.23844
548.66         34.4894
549.10        34.41019
549.53        34.14655
549.97        33.87365
550.41        33.77925
550.84        33.92827
551.28        34.27709
551.72         34.7338
552.15        35.12578
552.59        35.39001
553.03        35.57341
553.46         35.6995
553.90        35.83744
554.34        36.00946
554.77        36.15149
555.21        36.24766
555.65        36.38982
556.08        36.59607
556.52         36.4031
556.96        36.67464
557.39        36.73677
557.83        36.85675
558.27        36.99384
558.70         37.1556
559.14        37.33437
559.57        37.50373
560.01        37.68204
560.45        37.82187
560.88        37.83149
561.32        37.73148
561.75         37.5834
562.19        37.47727
562.63        37.38473
563.06        37.37687
563.50        37.68687
563.93        38.19355
564.37        38.49755
564.80        38.53676
565.24        38.52251
565.68        38.50322
566.11        38.49076
566.55        38.53923
566.98        38.63059
567.42         38.7835
567.85        39.02141
568.29         39.3618
568.72        39.67756
569.16         39.9921
569.60        40.46641
570.03        40.91385
570.47        40.90709
570.90        40.63923
571.34        40.08176
571.77        40.61712
572.21        40.70248
572.64        40.82365
573.08        40.24606
573.51        38.89512
573.95        40.65144
574.38        43.47765
574.82        42.12906
575.25        42.00629
575.69        40.70049
576.12        39.80369
576.56         39.6434
576.99        40.55582
577.42        42.59633
577.86        42.59984
578.29        42.25365
578.73        44.34115
579.16        40.73945
579.60        37.29366
580.03        38.90966
580.47        41.29611
580.90        42.23652
581.33          41.361
581.77        40.78967
582.20        45.07947
582.64        44.60999
583.07        38.06694
583.51         37.0876
583.94        36.11736
584.37        37.62658
584.81        39.44256
585.24         41.6373
585.68        42.73753
586.11        41.85934
586.54        38.91473
586.98         37.4459
587.41        37.89316
587.85        39.65897
588.28        41.14222
588.71        38.92844
589.15        37.79512
589.58        38.52182
590.01        38.76963
590.45        39.50882
590.88        39.84123
591.31        39.41017
591.75        39.12234
592.18        39.13821
592.61        39.99376
593.05        40.55648
593.48        42.42678
593.91        42.81684
594.35        39.47568
594.78        38.73312
595.21         38.5945
595.65        40.44897
596.08        42.17662
596.51        40.64091
596.94        39.66311
597.38        40.24974
597.81         42.1588
598.24        42.95214
598.68        42.51112
599.11        42.03536
599.54        44.22223
599.97        45.55144
600.41        42.73899
600.84        43.18715
601.27        44.44204
601.70        44.14122
602.14        44.50809
602.57        44.09353
603.00        44.61705
603.43        46.18979
603.87        47.82762
604.30        48.00601
604.73        46.92466
605.16        46.11872
605.60        47.26353
606.03        48.43848
606.46        49.60846
606.89         49.6502
607.32         48.7161
607.76        49.03811
608.19        50.88698
608.62         50.4254
609.05        49.71374
609.48        50.41747
609.92        50.89621
610.35        50.87999
610.78        53.10161
611.21        53.95153
611.64        51.49329
612.07        52.25755
612.50        52.99415
612.94        53.61769
613.37        53.29296
613.80         53.7901
614.23        54.43278
614.66        54.64301
615.09        55.02039
615.52        55.34251
615.96        55.65493
616.39        56.00069
616.82        55.43765
617.25        55.19276
617.68        55.94857
618.11        56.63501
618.54        57.24476
618.97         57.2116
619.40        56.85841
619.84        56.60519
620.27        57.81427
620.70        58.44052
621.13        58.73397
621.56        58.20573
621.99        57.16449
622.42        58.02039
622.85        59.84737
623.28        59.52767
623.71        59.09753
624.14        59.15376
624.57        59.18431
625.00         58.8588
625.43        59.09013
625.86        58.49216
626.29        58.57555
626.72        58.65821
627.15        58.46217
627.58         58.4707
628.01        58.43999
628.44        58.40789
628.87        58.35621
629.30         58.0321
629.73        58.32282
630.16        58.21151
630.59        57.66148
631.02        57.11228
631.45        56.57507
631.88        56.11578
632.31         55.7565
632.74        55.49223
633.17        55.27361
633.60        55.00724
634.03        54.66863
634.46        54.29221
634.89         53.8955
635.32        53.50312
635.75        53.13008
636.18        52.76836
636.61        52.42706
637.04        52.11591
637.47         51.8274
637.89        51.56467
638.32        51.27853
638.75        50.92111
639.18        50.48982
639.61        50.01422
640.04        49.53267
640.47         49.0981
640.90        48.73296
641.33        48.42583
641.76        48.16511
642.18         48.0007
642.61        47.92646
643.04        47.81605
643.47        47.63204
643.90        47.93055
644.33        47.71378
644.76        47.78681
645.18        47.82515
645.61        47.80107
646.04        47.70354
646.47        47.54289
646.90        47.43736
647.33        47.53992
647.75        47.89157
648.18        48.47523
648.61         49.0901
649.04         49.4061
649.47        49.37016
649.89        49.01627
650.32        48.67415
650.75        48.92188
651.18        49.78583
651.61        50.83286
652.03        51.71542
652.46        52.23333
652.89        52.60107
653.32        52.35683
653.74        51.89267
654.17        53.67412
654.60         54.7203
655.03        53.29349
655.46        54.19802
655.88        57.92132
656.31        62.53525
656.74        146.2447
657.16         94.3389
657.59        32.54858
658.02        24.55141
658.45         42.8259
658.87        55.39182
659.30        58.32886
659.73        57.81443
660.15        56.36066
660.58        58.71315
661.01        60.46028
661.44        58.61692
661.86        58.22108
662.29        58.59165
662.72        59.46653
663.14        60.66004
663.57        60.85981
664.00        60.25196
664.42        60.33038
664.85        61.16201
665.27        61.72861
665.70        61.87378
666.13           61.96
666.55        61.97982
666.98        61.81998
667.41        61.61778
667.83        61.64922
668.26        61.97187
668.69         62.4763
669.11        62.97315
669.54        63.46189
669.96        63.29285
670.39        63.04465
670.82        62.73691
671.24        62.69661
671.67        63.02789
672.09        63.63477
672.52        64.25323
672.94        64.89986
673.37        64.45265
673.80        64.43725
674.22         64.5901
674.65        64.67751
675.07        64.69317
675.50        64.65655
675.92        64.64211
676.35        64.79738
676.77        65.13645
677.20        65.55096
677.62        65.97117
678.05        66.25725
678.47        66.36054
678.90        66.44158
679.32        66.38261
679.75        66.31299
680.17        66.46577
680.60         66.6007
681.02         66.7535
681.45        66.80344
681.87        66.74057
682.30        66.70242
682.72        66.72781
683.15        66.65099
683.57        66.61507
684.00         67.0379
684.42        67.93346
684.85        68.39126
685.27        68.37122
685.70        68.29615
686.12        68.23141
686.54         68.1536
686.97        68.13366
687.39        68.22809
687.82        68.39532
688.24        68.69106
688.66        69.04862
689.09        69.00596
689.51          69.151
689.94        69.25556
690.36        69.50117
690.78        69.73637
691.21        69.91192
691.63        70.01038
692.06        70.01814
692.48        69.95559
692.90         69.8942
693.33        69.92113
693.75          70.061
694.17        70.33245
694.60        70.66212
695.02        70.84238
695.44        70.84119
695.87        70.99458
696.29        71.32647
696.71        71.27788
697.14        71.00962
697.56        71.57644
697.98        72.68885
698.41        72.67879
698.83        71.85891
699.25        71.37823
699.68        71.42796
700.10        71.41258
700.52         71.3633
700.94        71.64467
701.37        72.16666
701.79        72.65856
702.21          73.016
702.64        73.31696
703.06        73.50788
703.48        73.50082
703.90          73.314
704.33        72.96576
704.75        72.57456
705.17        72.44929
705.59        72.65163
706.01         72.9381
706.44        73.19067
706.86        73.88708
707.28        73.98413
707.70        74.26462
708.12        74.42618
708.55        74.43301
708.97        74.29945
709.39        74.15009
709.81        74.05661
710.23        74.02443
710.66        74.08255
711.08        74.30552
711.50        74.58171
711.92        74.70737
712.34        74.64496
712.76        74.44633
713.19        74.25049
713.61        74.28332
714.03         74.6257
714.45        75.15868
714.87        75.69321
715.29         75.9095
715.71        75.74397
716.13        75.30212
716.56         74.7914
716.98        74.58015
717.40        74.75476
717.82         75.2036
718.24        75.75249
718.66        76.10474
719.08        76.16969
719.50        76.03856
719.92        75.80925
720.34        75.65762
720.76        75.64256
721.19        75.58317
721.61        75.69147
722.03        75.78363
722.45         75.9089
722.87        76.07703
723.29        76.26876
723.71        76.43381
724.13        76.55048
724.55        76.63115
724.97         76.7204
725.39        76.76268
725.81        76.73984
726.23         76.9062
726.65        77.31104
727.07        76.69032
727.49        77.18234
727.91        77.09868
728.33        77.09142
728.75        77.13197
729.17        77.23828
729.59        77.36328
730.01        77.50813
730.43        77.72794
730.85        78.01459
731.27        78.37867
731.69        78.69981
732.10        78.77063
732.52        78.57054
732.94        78.15807
733.36        77.73009
733.78        77.62378
734.20        77.93643
734.62        78.26037
735.04        79.53194
735.46        79.44958
735.88        78.64886
736.30        78.98399
736.72        80.40659
737.13        81.07212
737.55        80.64544
737.97         80.5097
738.39        80.71735
738.81        79.83106
739.23        78.40119
739.65        79.29089
740.06        81.92376
740.48        82.28575
740.90        80.45396
741.32        79.66353
741.74        80.20754
742.16        80.49586
742.57         80.5732
742.99        81.33777
743.41        82.52612
743.83        83.15254
744.25         83.0988
744.67         82.7616
745.08        82.39653
745.50        82.28276
745.92        82.53391
746.34         83.0616
746.75        83.70345
747.17        84.11146
747.59        84.22441
748.01        84.27652
748.42        84.33946
748.84        84.31871
749.26        84.40923
749.68        84.86156
750.09        85.60442
750.51        86.62283
750.93        87.54192
751.35        87.23421
751.76        86.01574
752.18         85.6494
752.60        86.16619
753.01        86.31774
753.43        86.08746
753.85        86.21018
754.27        86.70453
754.68        87.52728
755.10        88.08117
755.52        88.62138
755.93        88.91798
756.35        88.91402
756.77        88.82167
757.18         88.8556
757.60         89.0697
758.02        89.93005
758.43        90.81363
758.85        90.29538
759.26        87.22073
759.68        87.10139
760.10        89.22643
760.51         90.3251
760.93        89.80879
761.34        88.89436
761.76        88.19797
762.18        87.37654
762.59        86.89919
763.01        87.40092
763.42        88.77277
763.84        89.75963
764.26        90.14087
764.67        90.29905
765.09        90.23582
765.50         90.0693
765.92        89.73314
766.33        88.39987
766.75        86.62487
767.16        86.11333
767.58        86.92694
768.00        88.59878
768.41        90.76767
768.83        92.05839
769.24        93.10652
769.66        92.37824
770.07         90.8121
770.49        88.94036
770.90        87.39516
771.32        88.43366
771.73        91.22922
772.15        90.75684
772.56        87.50488
772.97        86.76653
773.39        88.48898
773.80        89.04579
774.22         88.2244
774.63        88.21341
775.05        88.92783
775.46        89.31315
775.88         89.2354
776.29         88.9845
776.70        88.69442
777.12        88.61934
777.53        88.83429
777.95        89.19368
778.36        89.51238
778.77         89.4753
779.19        89.07509
779.60        88.42399
780.02        87.80479
780.43        87.76811
780.84        88.47584
781.26        89.18533
781.67        89.77962
782.09        91.29368
782.50         93.0127
782.91        91.73345
783.33        88.67008
783.74        87.58313
784.15        88.78873
784.57        89.79967
784.98        90.19065
785.39        90.15441
785.81         90.1608
786.22        89.42759
786.63        88.58353
787.04        88.44861
787.46        89.11893
787.87        90.30666
788.28        91.59552
788.70        92.25403
789.11        92.10145
789.52        91.52135
789.93        90.79506
790.35        90.08863
790.76        89.65136
791.17        89.83654
791.58        90.52562
792.00        91.13729
792.41        91.40182
792.82        91.41669
793.23        91.33372
793.65         90.7159
794.06        90.04123
794.47        91.39747
794.88        93.85445
795.29        93.53345
795.71        90.65843
796.12        88.33071
796.53        87.23592
796.94         86.6087
797.35        86.69401
797.76        88.10922
798.18         90.1348
798.59        91.43331
799.00        91.60719
799.41        90.12039
799.82        89.13066
800.23        88.20289
800.64        88.06364
801.06        88.30088
801.47        88.81969
801.88        89.32389
802.29        89.65905
802.70        89.96999
803.11        90.19737
803.52        90.19643
803.93        89.98148
804.34        89.57406
804.75        89.16984
805.17        89.09929
805.58        89.74706
805.99        90.31986
806.40        90.68175
806.81        91.60388
807.22        92.43769
807.63        90.76243
808.04        87.44362
808.45        86.00938
808.86         86.7914
809.27        88.03822
809.68        89.20766
810.09         90.0489
810.50           90.27
810.91         89.9802
811.32        89.43726
811.73        89.06028
812.14        88.97927
812.55        89.00468
812.96        89.15249
813.37        89.45651
813.78        89.87255
814.19        90.46288
814.60        90.91338
815.01        90.71233
815.42        89.80965
815.83         88.3242
816.24        86.81966
816.65        86.29183
817.05        87.03416
817.46        88.72105
817.87        90.67109
818.28        91.65583
818.69        91.32617
819.10        89.98817
819.51        88.34162
819.92        87.59459
820.33        88.06854
820.74        89.34277
821.14        90.78509
821.55         91.3765
821.96        90.83418
822.37        89.34368
822.78        87.53951
823.19        86.54388
823.60        86.60735
824.00        87.36506
824.41        88.39294
824.82        89.17977
825.23        89.46059
825.64        89.41933
826.04         89.1841
826.45         88.9393
826.86        88.75185
827.27        88.50988
827.68         88.2597
828.08         88.1501
828.49        88.13715
828.90        88.29045
829.31        88.46474
829.72        88.36427
830.12        87.96574
830.53        87.35226
830.94        86.82526
831.35        86.79378
831.75        87.37656
832.16        88.38424
832.57        89.57882
832.97        90.45681
833.38        90.74344
833.79        90.56225
834.20        90.15504
834.60         89.8955
835.01        89.91923
835.42        90.12637
835.82        90.31033
836.23        90.04156
836.64         89.2991
837.04        88.26171
837.45        87.31837
837.86        87.07025
838.26        87.64713
838.67         88.8164
839.08        90.17158
839.48        90.97478
839.89         90.9539
840.29        90.34913
840.70         89.4631
841.11        88.74249
841.51        88.33959
841.92        88.08737
842.33        87.96909
842.73        87.97669
843.14        88.04034
843.54        88.24875
843.95        88.42879
844.35        88.34616
844.76        87.94679
845.17        87.29562
845.57        86.61726
845.98        86.28409
846.38        86.37009
846.79        86.74939
847.19        87.22807
847.60        87.34841
848.00        87.04361
848.41        86.44347
848.81        85.80899
849.22        85.44994
849.62        85.50846
850.03         85.8963
850.43        86.53276
850.84        87.14532
851.24        87.67398
851.65        87.97488
852.05        88.29301
852.46        88.84258
852.86        89.64559
853.27        90.63811
853.67        91.20531
854.07        90.55761
854.48        88.72585
854.88        86.01502
855.29        83.40087
855.69        82.27773
856.10        82.91956
856.50        85.15617
856.90        88.13545
857.31        89.89024
857.71        89.79144
858.12        88.32773
858.52        86.41947
858.92        85.30333
859.33        85.24387
859.73        85.92105
860.13         87.0182
860.54        87.88108
860.94        88.32827
861.34        88.51353
861.75        88.59947
862.15        88.92851
862.55        89.53277
862.96        90.24015
863.36        90.89291
863.76        91.18964
864.17        91.06339
864.57        90.70372
864.97        90.27671
865.38        90.01093
865.78        90.02717
866.18        90.17532
866.58        90.47363
866.99        90.93272
867.39        91.58623
867.79        92.47421
868.19        93.25639
868.60        93.28205
869.00        92.44881
869.40        90.91264
869.80        89.48183
870.21        89.43298
870.61         91.1194
871.01        94.15172
871.41        97.51283
871.81        99.45798
872.22        99.48335
872.62        98.09618
873.02        96.26654
873.42        95.54368
873.82        96.25957
874.22        97.97317
874.63        99.98719
875.03        100.8018
875.43        99.82328
875.83        97.87317
876.23        95.93237
876.63        95.48591
877.03        96.97452
877.44        100.7175
877.84        97.94414
878.24        108.8796
878.64        107.8216
879.04        104.2371
879.44        102.3041
879.84        101.1608
880.24         101.368
880.64        102.7263
881.04        105.0224
881.44        106.3834
881.84        105.7024
882.24        103.6972
882.65        101.5999
883.05        100.8764
883.45        101.7804
883.85        103.9199
884.25        106.4546
884.65        107.8584
885.05        107.6271
885.45        106.2979
885.85        104.7382
886.25        104.1264
886.65        104.7116
887.05        106.0951
887.45        107.7627
887.85        108.8012
888.25        108.8946
888.65        108.3893
889.04        107.5834
889.44        106.9827
889.84        106.7228
890.24        106.5629
890.64         106.528
891.04        106.6895
891.44         107.003
891.84        107.5314
892.24        107.9154
892.64        107.4882
893.04        106.2436
893.44        104.5169
893.83        102.9776
894.23        102.6093
894.63        103.5466
895.03        105.4296
895.43        107.8442
895.83        109.9716
896.23        111.3973
896.63        112.3162
897.02        112.5392
897.42        111.8199
897.82        110.3057
898.22        108.1255
898.62        106.0283
899.01        105.1214
899.41        105.6187
899.81        107.1572
900.21        109.0724
900.61        110.2334
901.00        110.3055
901.40        109.6459
901.80        108.6188
902.20        107.8048
902.59        107.4141
902.99        107.2473
903.39         107.232
903.79        107.2608
904.18        107.2862
904.58        107.4135
904.98        107.6575
905.38        108.0132
905.77        108.4163
906.17         108.795
906.57        109.0749
906.96        109.2187
907.36        109.1694
907.76        108.9869
908.15        108.6179
908.55        107.8693
908.95        106.8137
909.34        105.4882
909.74        104.3091
910.14        103.7335
910.53        103.8946
910.93        104.7494
911.33        105.9122
911.72        106.6693
912.12        106.7577
912.52        106.3346
912.91        105.9115
913.31        106.2172
913.70        107.4259
914.10        109.3858
914.49        111.4992
914.89        112.0446
915.29         110.508
915.68        107.5258
916.08        104.6162
916.47        103.1941
916.87        103.4426
917.26         104.886
917.66        106.6348
918.05        107.2728
918.45         106.419
918.84        104.5981
919.24        102.6733
919.64        101.8714
920.03        102.5136
920.42        104.1758
920.82        106.2142
921.21        107.6863
921.61        108.0874
922.00        107.7747
922.40         107.005
922.79         106.062
923.19        105.1041
923.58        104.1127
923.98        103.2024
924.37        102.4409
924.77        102.0304
925.16         102.342
925.55        102.7372
925.95        103.9103
926.34         105.543
926.74        107.3399
927.13        108.9251
927.52        109.5031
927.92        109.0509
928.31         107.827
928.70        106.1631
929.10        104.6413
929.49        103.4545
929.89        102.4883
930.28        102.0996
930.67        102.8604
931.07        104.6518
931.46        107.3377
931.85        109.9154
932.24        110.8846
932.64        109.9639
933.03        107.4721
933.42          104.17
933.82        101.8349
934.21        101.0395
934.60        101.3083
934.99        102.1005
935.39        102.6552
935.78        102.8124
936.17        103.0198
936.56        103.0958
936.96        102.0429
937.35        100.8156
937.74        99.13506
938.13        98.01846
938.53        98.20032
938.92        99.63004
939.31        102.2305
939.70        105.2262
940.09        106.5236
940.49        105.3793
940.88        102.6312
941.27        99.67455
941.66        98.16751
942.05        98.35853
942.44        99.71252
942.84        101.6851
943.23        103.4374
943.62        104.4829
944.01        105.0203
944.40         105.202
944.79        105.2687
945.18        105.2949
945.57        105.1417
945.97        104.5143
946.36        103.1355
946.75        101.2409
947.14        99.33079
947.53        97.95143
947.92        97.47929
948.31         97.8547
948.70         98.9677
949.09        100.5382
949.48        101.8316
949.87        102.4382
950.26        102.4364
950.65        102.0924
951.04         101.909
951.43         102.002
951.82        102.1622
952.21        102.1502
952.60        101.6312
952.99         100.571
953.38        99.19192
953.77        97.76252
954.16        96.60374
954.55        95.82833
954.94        95.40903
955.33        95.23466
955.72         95.1035
956.11        94.98254
956.50        94.94022
956.89        95.19678
957.28        96.10245
957.66        97.74979
958.05        99.73726
958.44        101.6537
958.83        102.9387
959.22         103.419
959.61        103.1421
960.00        102.3836
960.39        101.6095
960.78        100.9821
961.16        100.5112
961.55        99.83273
961.94         98.3891
962.33        96.23433
962.72        93.73594
963.11        91.67584
963.49        91.03569
963.88        91.94033
964.27        94.18544
964.66        97.00897
965.04        98.70676
965.43        98.47847
965.82        96.86429
966.21        94.88131
966.60        93.89561
966.98        94.18002
967.37        95.27919
967.76        96.59291
968.15        96.99513
968.53        96.17579
968.92        94.59099
969.31        92.90255
969.69        91.92258
970.08        91.82441
970.47        92.33277
970.86        93.05527
971.24        93.33321
971.63        92.92522
972.02        92.06818
972.40        91.14207
972.79        90.74328
973.17        91.21169
973.56        92.20009
973.95        93.49935
974.33          94.614
974.72        95.17766
975.11        95.25664
975.49        95.01247
975.88        94.83794
976.26        94.80723
976.65        94.83231
977.04        94.57269
977.42        93.35098
977.81        91.12051
978.19        88.30855
978.58        86.26266
978.96        86.17997
979.35        88.15819
979.74        92.01066
980.12        96.88258
980.51        99.59413
980.89        99.27575
981.28        96.75051
981.66        93.54413
982.05        91.64043
982.43        91.35705
982.82        92.09565
983.20        93.49728
983.59        95.18316
983.97        97.06158
984.35        99.29462
984.74        101.5233
985.12        103.2825
985.51        103.9078
985.89        103.3861
986.28         101.606
986.66        98.51965
987.04        94.85863
987.43        91.25834
987.81        88.33086
988.20        86.59679
988.58        86.02059
988.96        86.46745
989.35        88.46045
989.73        92.73676
990.12        97.88987
990.50        102.6433
990.88        105.0309
991.27        104.4511
991.65        101.4804
992.03        96.34748
992.42        90.58188
992.80        87.16972
993.18        87.22401
993.56        89.38421
993.95        92.23004
994.33        94.47684
994.71        95.70788
995.10         96.5294
995.48        96.83539
995.86         96.2807
996.24        94.86108
996.63        92.37248
997.01        89.51537
997.39        88.46539
997.77        90.11835
998.15        93.88532
998.54        97.90356
998.92        99.86642
999.30        98.96172
999.68        95.93578
1000.06        91.40508
1000.45         87.1517
1000.83        84.17125
1001.21        82.05493
1001.59        81.16827
1001.97        81.94608
1002.35        84.28681
1002.73        88.68367
1003.12        93.60394
1003.50        94.45318
1003.88        89.28175
1004.26        80.49268
1004.64        72.45326
1005.02         68.8614
1005.40        70.04922
1005.78        75.93723
1006.16        87.05291
1006.54        97.67057
1006.92        100.9661
1007.30         99.0799
1007.69        96.18597
1008.07        95.11469
1008.45        96.32214
1008.83        99.95397
1009.21        107.6421
1009.59        117.9978
1009.97        112.7604
1010.35        63.35912
1010.73         30.2561
1011.11        41.50126
1011.49         59.9075
1011.86        76.12017
1012.24        85.97411
1012.62        89.63643
1013.00        89.21232
1013.38        85.76622
1013.76        81.33588
1014.14        83.24397
1014.52        97.69955
1014.90        126.2015
1015.28        161.2547
1015.66        180.6581
1016.04        170.4424
1016.41        134.5017
1016.79        91.81551
1017.17        64.23203
1017.55         53.9523
1017.93        51.77726
1018.31        53.37563
1018.69        56.86851
1019.06        62.09322
1019.44        70.43214
1019.82        83.50862
1020.20        99.46847
1020.58        114.7024
1020.95        124.2237
1021.33          121.65
1021.71        78.65324
1022.09        100.6066
1022.46         99.8413
1022.84        99.08048
1023.22        101.1062
1023.60        108.8156
1023.97        180.5594
1024.35        62.23543
1024.73         81.8068
