SpectraSmart Spectrum 2.9.0.0
--------- Device Information -----------
Spectrum Name :  反射率_0
Saving Time :  2024/04/25 23:52:10
Spectro-Module Model Name : SE2030-DUVN
Spectro-Module Serial Number : OS361AC55029948
Wavelength Start : 200
Wavelength End : 1025
Wavelength Unit : Wavelength(nm)
Spectrum Unit : Reflectance(%)
-----------Spectrum Setting ------------
Integration Time : 20ms
Average : 10
Boxcar : 0
Background removal :  enabled
linearity correction :  enabled
SC :  disabled
Intensity correction :  disabled
DWT denoise :  enabled
savitzky-golay :  disabled
FFT :  disabled
Running average :  disabled
Kalman :  disabled
High pass :  disabled
---------------BEGIN--------------------
Wavelength(nm)             Reflectance(%)
200.29               0
200.75        93.81316
201.21        83.15926
201.67        71.39452
202.13        64.92181
202.58        64.41995
203.04        68.33946
203.50        74.31799
203.96        78.03477
204.42        78.25812
204.88        76.67816
205.34        74.83102
205.80        74.23644
206.26        75.43897
206.72        78.84827
207.18        85.83218
207.64         92.4771
208.10        89.10563
208.55        81.10194
209.01        75.84461
209.47        73.83292
209.93        73.68526
210.39        74.85054
210.85        76.08185
211.31        75.02289
211.77        71.24944
212.23        65.63074
212.69        60.91212
213.14        61.45773
213.60        67.50673
214.06        77.72723
214.52        88.26159
214.98        93.18736
215.44        91.37174
215.90        85.11773
216.36        77.44244
216.81         72.5799
217.27        71.74979
217.73        73.20873
218.19        75.43755
218.65        76.64586
219.11        76.21304
219.57         74.2827
220.02        70.89091
220.48        68.03867
220.94        66.74601
221.40        67.01059
221.86        66.93567
222.32        64.42895
222.77        59.90291
223.23        55.06483
223.69        51.81884
224.15         52.2592
224.61        55.87622
225.06        61.52809
225.52        66.96892
225.98        69.41583
226.44        68.42371
226.90        65.16501
227.36         61.3868
227.81        59.45971
228.27        60.15199
228.73        62.41667
229.19        65.21397
229.65        67.00732
230.10        67.41369
230.56        67.16382
231.02        66.70675
231.48        66.53461
231.93        66.69696
232.39        66.99747
232.85        67.32776
233.31        67.64603
233.77        67.88587
234.22        68.09376
234.68        68.10032
235.14        67.58105
235.60        66.52579
236.05        65.10674
236.51        63.62267
236.97        62.38707
237.43        61.45212
237.88        60.82126
238.34        60.40872
238.80        60.35249
239.26        60.68501
239.71         61.5258
240.17        62.53107
240.63        63.60377
241.08        64.74031
241.54        65.85025
242.00        66.89796
242.46        67.93882
242.91        69.41171
243.37        71.72182
243.83          79.075
244.28        110.3632
244.74        159.4761
245.20        149.0674
245.66         131.165
246.11         125.141
246.57         126.223
247.03         135.269
247.48        156.8148
247.94        119.2365
248.40        89.45844
248.85        83.07768
249.31        82.84621
249.77        85.27488
250.22        89.97243
250.68        98.11587
251.14        109.0755
251.59        114.1842
252.05        106.2518
252.51         90.0261
252.96        74.56323
253.42        67.80611
253.88        68.75404
254.33        74.24187
254.79        82.07346
255.25        88.52224
255.70        92.15189
256.16        94.41787
256.62        94.80306
257.07        92.62681
257.53        88.88526
257.99        83.76871
258.44        78.75453
258.90        76.57814
259.35        76.29812
259.81          76.976
260.27         76.8923
260.72        74.37257
261.18        70.17934
261.63        65.01497
262.09        60.29411
262.55         56.9268
263.00        54.88286
263.46        53.80619
263.91        53.03267
264.37         52.2081
264.83         51.1053
265.28        49.76057
265.74        48.44246
266.19        47.24528
266.65        46.38216
267.11        45.73449
267.56        45.11748
268.02        44.32566
268.47        43.25684
268.93        42.00192
269.38        40.70943
269.84        39.84017
270.30        39.49619
270.75        39.56369
271.21        39.74638
271.66        39.59701
272.12        39.00616
272.57        38.09351
273.03        37.15518
273.48        36.54843
273.94        36.37862
274.39        36.47535
274.85        36.59962
275.31        36.37601
275.76        35.72832
276.22        34.83236
276.67        33.89635
277.13        33.33076
277.58        33.14083
278.04        33.21479
278.49         33.2879
278.95        33.07793
279.40        32.49596
279.86        31.72215
280.31        30.86704
280.77        30.22319
281.22        29.80697
281.68        29.55417
282.13        29.37496
282.59         29.1971
283.04        28.97648
283.50        28.78973
283.95        28.57994
284.41        28.28781
284.86        27.90348
285.32        27.44844
285.77        27.05241
286.22        26.98383
286.68        27.24339
287.13        27.71125
287.59        28.12671
288.04        28.08182
288.50        27.54636
288.95        26.64886
289.41         25.6816
289.86        24.96847
290.32        24.64776
290.77        24.58949
291.22        24.70245
291.68        24.80785
292.13        24.85284
292.59        24.90338
293.04        24.99756
293.50         25.1936
293.95        25.49044
294.40        25.82894
294.86        26.16749
295.31        26.46086
295.77        26.69995
296.22        26.90637
296.68        27.08082
297.13        27.19401
297.58        27.26982
298.04        27.33545
298.49        27.45694
298.95          27.774
299.40        28.29075
299.85        28.95399
300.31        29.65459
300.76        30.22963
301.21        30.61646
301.67        30.88639
302.12        31.04198
302.58        31.14748
303.03        31.21352
303.48        31.23776
303.94        31.31311
304.39        31.54712
304.84         31.9535
305.30        32.48606
305.75        32.99046
306.20        33.23979
306.66        33.21073
307.11        32.96467
307.57        32.65519
308.02        32.43427
308.47        32.37887
308.93        32.44106
309.38        32.57774
309.83        32.75398
310.29        32.93435
310.74        33.11635
311.19         33.2747
311.65        33.36653
312.10        33.37684
312.55        33.31271
313.00        33.16396
313.46        32.93108
313.91        32.62595
314.36        32.28162
314.82        31.97875
315.27        31.81904
315.72        31.82949
316.18        31.97612
316.63        32.19813
317.08        32.36723
317.53        32.43707
317.99        32.42662
318.44        32.37522
318.89        32.35381
319.35        32.37037
319.80        32.40181
320.25        32.39243
320.70        32.26097
321.16        31.99991
321.61        31.64852
322.06        31.27637
322.51        30.98347
322.97         30.7853
323.42        30.66349
323.87        30.57306
324.32        30.43929
324.78        30.24166
325.23        30.01598
325.68        29.78054
326.13        29.56846
326.59        29.38767
327.04        29.24293
327.49        29.14029
327.94        29.09775
328.39        29.11483
328.85        29.17438
329.30        29.27722
329.75        29.37671
330.20        29.45657
330.66        29.50821
331.11        29.54935
331.56        29.56422
332.01        29.55074
332.46        29.49516
332.92        29.41602
333.37        29.38933
333.82        29.41891
334.27        29.50727
334.72        29.57892
335.17        29.50274
335.63        29.25736
336.08        28.89147
336.53        28.54565
336.98        28.45072
337.43        28.65274
337.88        29.08596
338.34        29.56199
338.79        29.81923
339.24        29.76244
339.69        29.46672
340.14        29.10455
340.59        28.97786
341.05        29.15398
341.50        29.52865
341.95        29.93853
342.40        30.15148
342.85        30.11659
343.30        29.92436
343.75        29.65558
344.20        29.44874
344.66        29.35443
345.11          29.291
345.56        29.26735
346.01        29.29678
346.46        29.36059
346.91        29.47702
347.36        29.52555
347.81        29.30666
348.26        28.81791
348.72        28.16078
349.17         27.5277
349.62        27.31496
350.07        27.60355
350.52        28.24788
350.97        29.03062
351.42        29.61921
351.87        29.90535
352.32        29.97635
352.77        29.87259
353.22         29.6658
353.67        29.40275
354.13        29.06903
354.58        28.71379
355.03        28.45954
355.48        28.33641
355.93        28.33821
356.38        28.39851
356.83        28.39287
357.28        28.28521
357.73        28.09949
358.18         27.8949
358.63        27.76671
359.08        27.73502
359.53        27.77267
359.98        27.79747
360.43        27.68635
360.88        27.42108
361.33        27.03997
361.78        26.66479
362.23        26.49167
362.68        26.55073
363.13         26.7655
363.58        26.98549
364.03        26.97572
364.48        26.68655
364.93        26.20775
365.38        25.65026
365.83        25.19125
366.28        24.89552
366.73        24.70895
367.18         24.6237
367.63        24.62724
368.08        24.68975
368.53        24.80977
368.98        24.91909
369.43        24.90309
369.88        24.74438
370.33        24.48075
370.78        24.16685
371.23        23.90661
371.68        23.73916
372.13        23.62732
372.58         23.5979
373.03        23.68993
373.48        23.88395
373.93        24.16266
374.38         24.3999
374.83        24.39926
375.28        24.13302
375.72         23.6536
376.17        23.13066
376.62        22.80809
377.07        22.75412
377.52        22.88887
377.97        23.11656
378.42        23.27696
378.87        23.31298
379.32        23.27898
379.77        23.18453
380.22        23.03893
380.67        22.85629
381.11        22.62579
381.56        22.38836
382.01        22.22852
382.46        22.16486
382.91        22.18104
383.36        22.22085
383.81         22.1855
384.26        22.05467
384.71        21.86352
385.15        21.65367
385.60        21.50297
386.05        21.41584
386.50        21.35464
386.95        21.30353
387.40        21.24056
387.85        21.16186
388.29        21.08649
388.74        21.00164
389.19        20.84247
389.64        20.60951
390.09        20.31069
390.54        20.04783
390.98         19.9937
391.43        20.18208
391.88        20.53896
392.33        20.90254
392.78        21.03428
393.23        20.90177
393.67        20.58233
394.12        20.24635
394.57        20.06322
395.02        20.07409
395.47         20.2188
395.91        20.43196
396.36         20.5688
396.81        20.58598
397.26        20.51494
397.71        20.40471
398.15        20.30585
398.60         20.2609
399.05        20.25162
399.50        20.22956
399.95        20.07203
400.39        19.86057
400.84        19.56043
401.29        19.28355
401.74        19.19144
402.18        19.33189
402.63        19.62836
403.08        19.97151
403.53        20.18228
403.97        20.21029
404.42        20.10775
404.87         19.9259
405.32        19.75802
405.76        19.64096
406.21        19.55216
406.66        19.49723
407.11        19.49258
407.55        19.53977
408.00        19.63642
408.45        19.74319
408.90        19.76845
409.34        19.68882
409.79        19.53182
410.24        19.36936
410.68        19.30411
411.13        19.36023
411.58        19.50919
412.03        19.68875
412.47        19.79211
412.92        19.77239
413.37        19.66345
413.81        19.53036
414.26        19.49014
414.71        19.55719
415.15        19.69822
415.60         19.8258
416.05        19.82013
416.49        19.65807
416.94        19.39557
417.39        19.11276
417.83        18.94321
418.28        18.93208
418.73        19.02247
419.17        19.17401
419.62        19.32412
420.07        19.44539
420.51        19.55829
420.96        19.62275
421.41          19.569
421.85        19.39314
422.30        19.14682
422.74        18.90356
423.19        18.81185
423.64        18.88139
424.08        19.08202
424.53        19.33513
424.98        19.53323
425.42        19.63813
425.87        19.65871
426.31        19.61847
426.76         19.6146
427.21        19.63979
427.65        19.54209
428.10        19.39846
428.54         19.4722
428.99        19.78487
429.44        20.18475
429.88        20.51194
430.33        20.67779
430.77        20.59057
431.22         20.0933
431.66        19.43607
432.11        19.25066
432.56        19.57415
433.00        20.05579
433.45        20.45959
433.89        20.70892
434.34        20.68285
434.78        20.23974
435.23        19.69333
435.67        19.67915
436.12        20.13107
436.57         20.3504
437.01        20.25914
437.46        20.23117
437.90        20.29871
438.35        20.35059
438.79         20.3574
439.24        20.33364
439.68        20.29413
440.13        20.15658
440.57        20.00758
441.02        20.25552
441.46        20.75873
441.91        20.75944
442.35         20.3199
442.80        20.15686
443.24        20.23692
443.69        20.27233
444.13        20.21087
444.58        19.96917
445.02        19.64387
445.47         19.6558
445.91        19.91884
446.36        19.93334
446.80        19.66733
447.24        19.40783
447.69        19.23587
448.13        19.14853
448.58        19.17173
449.02        19.29464
449.47         19.4505
449.91        19.52878
450.36        19.50459
450.80        19.40734
451.25        19.29247
451.69        19.23381
452.13        19.25672
452.58        19.32483
453.02        19.41681
453.47        19.50264
453.91        19.57148
454.36        19.63841
454.80        19.68979
455.24        19.69619
455.69        19.66535
456.13        19.59602
456.58        19.54404
457.02        19.56496
457.46        19.67706
457.91        19.85391
458.35        20.04403
458.79        20.16154
459.24        20.19572
459.68        20.15616
460.13        20.09926
460.57        20.06729
461.01        20.09188
461.46        20.15062
461.90         20.2205
462.34        20.26105
462.79        20.25687
463.23         20.2177
463.68        20.17846
464.12        20.20258
464.56        20.30186
465.01        20.46945
465.45        20.60886
465.89        20.65281
466.34        20.60341
466.78        20.36996
467.22        20.08822
467.67        20.18427
468.11         20.5863
468.55        20.69532
468.99        20.48913
469.44         20.3506
469.88        20.36628
470.32        20.58463
470.77        20.90558
471.21        21.00973
471.65        20.85704
472.10        20.67667
472.54        20.54691
472.98        20.51889
473.42        20.62103
473.87        20.83656
474.31        21.09315
474.75        21.27594
475.20        21.35889
475.64        21.36511
476.08        21.33682
476.52        21.33791
476.97         21.3891
477.41        21.47168
477.85        21.55671
478.29         21.6427
478.74        21.72648
479.18        21.70475
479.62        21.60739
480.06         21.8441
480.50        21.96963
480.95        22.05512
481.39        21.94821
481.83        21.87083
482.27           21.83
482.72        21.62274
483.16        21.36296
483.60        21.49309
484.04        21.99883
484.48        22.35144
484.93        22.76815
485.37        23.15662
485.81        23.38011
486.25        23.85426
486.69        31.20655
487.14        24.96689
487.58        16.17844
488.02         20.3049
488.46        22.57731
488.90        22.60598
489.34        22.89231
489.79        22.77649
490.23        23.93617
490.67        24.51873
491.11        24.29369
491.55        24.18707
491.99        24.13991
492.43        23.98573
492.88        23.80318
493.32        23.85042
493.76        23.95656
494.20        24.18804
494.64        24.46474
495.08        24.77106
495.52        25.09407
495.96        25.43863
496.41        25.72752
496.85        25.93983
497.29        26.05482
497.73         25.7453
498.17        25.33628
498.61        25.56028
499.05        26.41805
499.49        26.58941
499.93         26.7066
500.37          26.858
500.82        26.95917
501.26        27.23317
501.70        27.54065
502.14        27.67431
502.58        27.61301
503.02         27.5858
503.46         27.6096
503.90        27.53959
504.34        27.42968
504.78         27.4349
505.22        27.57183
505.66        27.80501
506.10        28.06554
506.54        28.18864
506.98        28.13451
507.42        28.03605
507.86         28.0016
508.30        27.77242
508.74         28.0605
509.18        28.27072
509.62        28.54345
510.06        28.76027
510.50        28.89263
510.94        28.97144
511.38          29.005
511.82        29.02345
512.26        29.03912
512.70        29.03346
513.14        29.03626
513.58        29.10208
514.02        29.22637
514.46        29.38879
514.90        29.52685
515.34        29.50673
515.78          29.285
516.22        29.04829
516.66        28.87939
517.10        28.50667
517.54        27.96037
517.98        28.67743
518.42        28.52778
518.86        28.87922
519.30        29.07477
519.74        29.31566
520.18        29.54507
520.62        29.64627
521.06        29.62476
521.50        29.48817
521.93        29.29952
522.37        29.17529
522.81        29.14746
523.25        29.18929
523.69        29.26033
524.13        29.29408
524.57        29.27267
525.01        29.21895
525.45        29.15773
525.89        29.12695
526.32        29.13124
526.76        29.15212
527.20        29.16363
527.64        29.13782
528.08        29.07313
528.52        28.95608
528.96        28.79402
529.40        28.67787
529.83        28.63443
530.27         28.3508
530.71        28.38677
531.15        28.28858
531.59        28.22535
532.03        28.18221
532.46        28.18617
532.90         28.2725
533.34        28.42727
533.78        28.62877
534.22        28.81179
534.66        28.88529
535.09        28.82603
535.53        28.67155
535.97        28.47057
536.41        28.31006
536.85        28.22171
537.28        28.19009
537.72        28.19353
538.16        28.19727
538.60        28.19244
539.04        28.17109
539.47        28.15884
539.91        28.26417
540.35        28.46054
540.79        28.61478
541.22        28.70279
541.66        28.80391
542.10        28.91028
542.54        28.95622
542.97        28.98286
543.41        29.10356
543.85        29.32731
544.29         29.6343
544.72        29.93582
545.16        30.10615
545.60        30.12103
546.04         30.0146
546.47        29.91614
546.91        30.04221
547.35        30.41683
547.79        30.97343
548.22        31.53011
548.66        31.77962
549.10        31.68096
549.53        31.38473
549.97        31.07223
550.41        30.94585
550.84        31.07498
551.28        31.40979
551.72        31.86629
552.15        32.28544
552.59        32.60258
553.03        32.85988
553.46         33.0582
553.90        33.23062
554.34        33.39442
554.77        33.49664
555.21        33.54925
555.65        33.68206
556.08        33.92074
556.52         33.8211
556.96        34.15544
557.39        34.25328
557.83        34.35418
558.27        34.43534
558.70        34.52917
559.14        34.66922
559.57         34.8428
560.01        35.05061
560.45         35.2293
560.88        35.28029
561.32        35.21755
561.75        35.05997
562.19        34.90305
562.63        34.84348
563.06        34.90077
563.50        35.05156
563.93        35.25015
564.37        35.44178
564.80        35.59283
565.24        35.73401
565.68        35.85755
566.11        35.95647
566.55        36.05868
566.98        36.14691
567.42        36.25934
567.85        36.46143
568.29        36.77801
568.72        37.06024
569.16        37.32087
569.60        37.74512
570.03        38.16321
570.47        38.11219
570.90        37.77726
571.34        37.39861
571.77        37.88138
572.21        38.05229
572.64        38.17083
573.08        37.72591
573.51        36.39718
573.95        37.86082
574.38        40.09594
574.82        39.44801
575.25         39.0301
575.69        37.70649
576.12        37.10169
576.56        36.88304
576.99         37.7819
577.42        39.81007
577.86        39.35182
578.29        39.07664
578.73        40.90289
579.16        37.66367
579.60        34.59852
580.03        36.17052
580.47        38.36629
580.90        39.37885
581.33        38.67274
581.77        38.02685
582.20        41.49717
582.64         41.1589
583.07        34.93278
583.51        34.14808
583.94        33.67187
584.37        35.19133
584.81        36.84182
585.24        38.61995
585.68        39.44767
586.11        38.32404
586.54         35.7429
586.98        34.83121
587.41        35.22073
587.85        36.73057
588.28        37.89888
588.71         35.9786
589.15        34.83162
589.58        35.71608
590.01        36.09757
590.45        36.46907
590.88        36.86934
591.31        36.39893
591.75        36.17525
592.18        36.14207
592.61        36.80477
593.05        37.34763
593.48        39.02909
593.91        39.48191
594.35        36.29929
594.78        35.71667
595.21        35.78365
595.65         37.5672
596.08        39.07068
596.51        37.66875
596.94         36.7215
597.38        37.30024
597.81        39.12793
598.24        40.08139
598.68        39.63237
599.11        39.47416
599.54        41.12778
599.97        42.35966
600.41        40.00296
600.84        40.47165
601.27        41.54395
601.70        41.13447
602.14        41.39563
602.57        41.17253
603.00         41.9446
603.43        43.61291
603.87        44.66451
604.30        44.82154
604.73        44.10242
605.16        43.59151
605.60        44.78695
606.03        46.00283
606.46        47.34868
606.89        47.12114
607.32        46.20568
607.76        46.75111
608.19        48.35057
608.62        48.10048
609.05        47.66887
609.48        48.37134
609.92        48.54833
610.35        48.95168
610.78        50.54935
611.21         51.4888
611.64        49.54834
612.07        50.39029
612.50        50.90615
612.94        51.69001
613.37        51.51891
613.80        51.84087
614.23        52.55486
614.66        52.73803
615.09        53.15522
615.52         53.4256
615.96        53.64698
616.39        54.01826
616.82         53.6303
617.25        53.64258
617.68        54.52434
618.11        55.30899
618.54        55.94434
618.97        55.73947
619.40        55.01949
619.84        55.11344
620.27        56.01235
620.70        56.72936
621.13        57.08853
621.56        56.87226
621.99        56.27326
622.42        56.99548
622.85        58.72815
623.28        58.25785
623.71        57.94424
624.14        58.32816
624.57        57.68063
625.00        57.16385
625.43        57.70556
625.86        57.22495
626.29        57.19679
626.72        57.79434
627.15        57.25329
627.58         57.2686
628.01        57.20654
628.44        57.02753
628.87        56.78567
629.30        56.66904
629.73        56.90498
630.16        56.72469
630.59        56.17228
631.02        55.56836
631.45        55.03314
631.88        54.45845
632.31        53.83919
632.74        53.91695
633.17         53.3456
633.60        53.11572
634.03        52.81221
634.46        52.48777
634.89        52.12317
635.32        51.71386
635.75        51.27744
636.18        50.80222
636.61        50.32187
637.04        49.88988
637.47        49.51433
637.89        49.18483
638.32        48.86665
638.75        48.53553
639.18        48.18457
639.61        47.82969
640.04         47.4719
640.47        47.10627
640.90        46.73938
641.33        46.37374
641.76        46.01841
642.18        45.75793
642.61        45.60526
643.04        45.43781
643.47        45.22439
643.90        45.49692
644.33        45.30874
644.76        45.42456
645.18        45.53699
645.61        45.61823
646.04        45.64906
646.47        45.63116
646.90        45.65572
647.33        45.83597
647.75        46.20864
648.18        46.77313
648.61        47.35395
649.04        47.67084
649.47        47.68102
649.89          47.379
650.32        47.10032
650.75        47.45442
651.18        48.42699
651.61        49.57331
652.03        50.55895
652.46        50.91302
652.89        50.90618
653.32        50.88254
653.74        51.21202
654.17        52.23317
654.60        53.63666
655.03        52.20101
655.46        53.42316
655.88        56.89671
656.31        60.63368
656.74        138.4052
657.16        90.14856
657.59        31.41371
658.02        24.19266
658.45        42.46215
658.87        54.77973
659.30         57.9674
659.73        57.31865
660.15        56.12943
660.58         58.3736
661.01        60.20963
661.44        58.52922
661.86        58.28859
662.29        58.79893
662.72        59.75292
663.14         60.9682
663.57        61.16231
664.00        60.54797
664.42        60.62939
664.85        61.48656
665.27        62.12368
665.70        62.35169
666.13        62.45788
666.55         62.4283
666.98         62.1859
667.41        61.90684
667.83        61.92249
668.26        62.30056
668.69        62.90514
669.11         63.5242
669.54        64.10619
669.96        63.97083
670.39        63.76981
670.82        63.49791
671.24        63.30622
671.67        63.37414
672.09        63.93847
672.52          64.696
672.94        65.34061
673.37        64.72755
673.80        64.55283
674.22        64.61624
674.65        64.73086
675.07        64.90221
675.50        65.11642
675.92        65.35567
676.35        65.63426
676.77        65.93789
677.20        66.19106
677.62        66.40699
678.05         66.5764
678.47        66.68496
678.90        66.81716
679.32        67.02142
679.75         66.8436
680.17        67.20927
680.60        67.37856
681.02        67.55473
681.45        67.57927
681.87        67.45171
682.30        67.21746
682.72         67.0142
683.15         67.0322
683.57        67.34983
684.00         67.8992
684.42         68.6581
684.85        69.07181
685.27        69.10126
685.70        68.92715
686.12        68.67041
686.54        68.54894
686.97        68.64015
687.39        68.84058
687.82        69.07431
688.24        69.47437
688.66        69.92912
689.09        69.78328
689.51        69.74246
689.94        69.74319
690.36        70.01543
690.78        70.30368
691.21        70.53101
691.63        70.67018
692.06        70.69991
692.48        70.65438
692.90         70.6179
693.33        70.70491
693.75        70.93807
694.17        71.28343
694.60        71.67374
695.02        71.95674
695.44        72.05126
695.87        72.23162
696.29        72.50986
696.71        72.19428
697.14        71.57088
697.56        72.20019
697.98        73.74672
698.41        73.76447
698.83         72.9858
699.25        72.51315
699.68        72.67924
700.10        72.74015
700.52        72.72182
700.94        73.01636
701.37        73.53406
701.79        74.01864
702.21          74.369
702.64        74.66108
703.06        74.82198
703.48        74.73997
703.90        74.43377
704.33        73.91989
704.75        73.36552
705.17        73.18332
705.59        73.43947
706.01        73.81096
706.44        74.13276
706.86        74.87415
707.28        74.96455
707.70        75.16248
708.12         75.2233
708.55        75.27315
708.97        75.31817
709.39        75.33014
709.81        75.34525
710.23        75.41528
710.66        75.55094
711.08        75.77763
711.50        76.00536
711.92        76.10185
712.34         76.0443
712.76        75.85843
713.19        75.67002
713.61        75.71564
714.03        76.02383
714.45        76.52458
714.87        77.02537
715.29        77.22002
715.71         77.0482
716.13        76.61182
716.56        76.10912
716.98        75.89346
717.40        76.04797
717.82        76.46632
718.24         76.9865
718.66        77.33051
719.08        77.41508
719.50        77.32993
719.92        77.16018
720.34        77.06302
720.76        77.09167
721.19        77.06142
721.61        77.20871
722.03        77.37991
722.45        77.62628
722.87        77.94383
723.29        78.26371
723.71        78.45852
724.13        78.49706
724.55        78.40838
724.97        78.27242
725.39        78.22816
725.81        78.30946
726.23        78.48333
726.65        78.69118
727.07        78.81155
727.49        78.82054
727.91          78.865
728.33         78.8162
728.75        78.86787
729.17        78.98602
729.59        79.13482
730.01        79.32951
730.43        79.59283
730.85        79.91855
731.27        80.32507
731.69         80.6908
732.10        80.79591
732.52        80.59726
732.94         80.1991
733.36        79.82428
733.78        79.66354
734.20         79.7796
734.62        80.52147
735.04        81.55959
735.46        81.43497
735.88        80.45908
736.30        80.69704
736.72        82.13136
737.13        82.88844
737.55        82.60789
737.97        82.61163
738.39        82.89696
738.81        82.02121
739.23        80.60904
739.65        81.49309
740.06        83.98562
740.48        84.87157
740.90        82.62144
741.32        81.37508
741.74        82.07151
742.16         82.3281
742.57        82.50973
742.99         83.5916
743.41        85.22725
743.83        85.97998
744.25        85.76901
744.67        85.55534
745.08        85.54517
745.50        85.49188
745.92        85.49553
746.34        85.76955
746.75        86.24009
747.17         86.5561
747.59        86.67806
748.01        86.86852
748.42         87.1322
748.84        87.16528
749.26         87.1554
749.68        87.60968
750.09        88.44283
750.51        89.32127
750.93        89.95491
751.35        89.66013
751.76        88.70882
752.18        88.46001
752.60        88.92157
753.01        89.04617
753.43        88.83821
753.85        88.94113
754.27        89.37142
754.68        90.04425
755.10        90.85703
755.52        90.86234
755.93        91.49849
756.35        91.45983
756.77        91.40439
757.18        91.51112
757.60        91.82784
758.02        92.74734
758.43        93.61377
758.85         93.2057
759.26         90.0735
759.68        89.89053
760.10        91.82099
760.51        92.75304
760.93        92.25359
761.34        90.69357
761.76        90.58515
762.18        89.77065
762.59        89.26198
763.01        89.66709
763.42        90.93176
763.84        92.06946
764.26        92.78801
764.67        92.90497
765.09        92.51733
765.50        92.53741
765.92        92.75879
766.33        91.44627
766.75        89.22127
767.16        88.52214
767.58        89.60712
768.00        91.47514
768.41        93.66422
768.83         95.4078
769.24        95.99289
769.66        95.19541
770.07        93.56843
770.49         91.4711
770.90        89.61738
771.32        90.52504
771.73        93.36169
772.15        93.01001
772.56        90.00586
772.97        88.94301
773.39        91.33405
773.80        92.00175
774.22        91.16725
774.63        91.07762
775.05        91.70694
775.46         92.0451
775.88        91.96722
776.29        91.76632
776.70        91.53237
777.12        91.45844
777.53        91.60326
777.95        91.83075
778.36         92.0146
778.77        91.93424
779.19        91.61288
779.60        91.14001
780.02        90.69594
780.43        90.74989
780.84        91.48055
781.26        91.91373
781.67        92.06073
782.09        93.91153
782.50        96.60336
782.91         94.7786
783.33        91.36488
783.74        90.01117
784.15        91.53305
784.57        92.85802
784.98        93.39056
785.39        93.25574
785.81        92.49101
786.22        91.83263
786.63        91.62044
787.04        91.64886
787.46        91.99009
787.87        92.97739
788.28        94.22791
788.70        94.80045
789.11        94.52652
789.52        93.74474
789.93        92.82642
790.35        92.24723
790.76        92.15631
791.17        92.52209
791.58        93.14754
792.00        93.47852
792.41        93.36317
792.82        93.42381
793.23         93.2914
793.65        93.01089
794.06        92.76101
794.47        94.07812
794.88        96.05103
795.29        96.05967
795.71        93.15794
796.12        90.98696
796.53        89.88541
796.94        89.49731
797.35        89.93382
797.76        91.28474
798.18        92.92287
798.59        93.96286
799.00        94.01563
799.41        93.12401
799.82        91.79015
800.23        91.01205
800.64        91.02142
801.06        91.42433
801.47        92.07098
801.88        92.59635
802.29        92.84941
802.70        92.97926
803.11        93.01862
803.52        92.98394
803.93        92.92163
804.34        92.78973
804.75         92.6691
805.17        92.80259
805.58        93.28316
805.99        93.71459
806.40         93.9592
806.81        94.64157
807.22        95.26154
807.63        93.90546
808.04        91.26049
808.45        90.10565
808.86        90.69926
809.27        91.67194
809.68        92.55833
810.09        93.09173
810.50        93.03989
810.91        92.51842
811.32         91.8191
811.73        91.40749
812.14        91.41344
812.55         91.6572
812.96        92.07251
813.37        92.50354
813.78        92.87431
814.19        93.34987
814.60         93.6914
815.01        93.45767
815.42        92.62567
815.83        91.30078
816.24        90.00057
816.65        89.62301
817.05        90.42861
817.46        92.12431
817.87         94.0275
818.28         94.9062
818.69        94.42502
819.10        92.88264
819.51        91.03461
819.92         90.2103
820.33        90.75742
820.74        92.15669
821.14         93.6962
821.55        94.40806
821.96        93.88894
822.37        91.94579
822.78        89.42167
823.19        88.12215
823.60        88.37867
824.00        89.51953
824.41        90.95346
824.82        91.97958
825.23        92.24136
825.64        91.99316
826.04        91.51281
826.45         91.2151
826.86        91.22204
827.27        91.33349
827.68        91.51544
828.08         91.7881
828.49         92.0396
828.90        92.37618
829.31        92.62042
829.72        92.42055
830.12         91.7647
830.53        90.76553
830.94        89.82013
831.35        89.46973
831.75        89.86501
832.16        90.79539
832.57        91.99944
832.97        92.91266
833.38        93.23676
833.79        93.12231
834.20        92.79871
834.60        92.62449
835.01          92.727
835.42        92.97605
835.82        93.19955
836.23        93.03431
836.64        92.45947
837.04        91.63652
837.45        90.84087
837.86        90.49352
838.26        90.70243
838.67        91.29292
839.08        92.04237
839.48        92.53661
839.89        92.59274
840.29        92.35227
840.70        91.93626
841.11        91.50774
841.51        91.14162
841.92        90.75505
842.33        90.42015
842.73        90.27709
843.14        90.30567
843.54        90.54003
843.95        90.77959
844.35        90.75307
844.76        90.39417
845.17        89.80061
845.57        89.19125
845.98        88.92285
846.38        89.06735
846.79        89.48292
847.19        90.01308
847.60        90.26385
848.00        90.16692
848.41        89.82598
848.81         89.4028
849.22        89.05981
849.62        88.91989
850.03        88.93519
850.43        89.14802
850.84        89.51225
851.24        90.03831
851.65        90.50202
852.05        91.04894
852.46        91.71141
852.86        92.45892
853.27        93.32013
853.67        93.67505
854.07        92.72165
854.48        90.53134
854.88        87.41087
855.29        84.49906
855.69        83.44841
856.10        84.58125
856.50        87.69616
856.90        91.70998
857.31        94.09312
857.71        93.99587
858.12        92.05782
858.52        89.51368
858.92        88.04727
859.33        88.01674
859.73        88.96992
860.13        90.46884
860.54        91.60354
860.94        92.07948
861.34        92.14706
861.75        92.00237
862.15        92.02053
862.55        92.27575
862.96        92.58601
863.36        92.88605
863.76        93.04358
864.17        93.02431
864.57         92.9582
864.97        92.92093
865.38        92.99165
865.78        93.24011
866.18        93.56059
866.58        93.94172
866.99        94.35316
867.39        94.83513
867.79        95.40882
868.19        95.87222
868.60          95.833
869.00        95.26372
869.40        94.28258
869.80        93.45451
870.21        93.64744
870.61        95.12665
871.01        97.60009
871.41        100.3587
871.81        102.1844
872.22         102.677
872.62        102.1535
873.02        101.2274
873.42        100.8754
873.82        101.3768
874.22        102.6006
874.63        103.9856
875.03         104.404
875.43         103.446
875.83        101.5665
876.23        100.1504
876.63         100.251
877.03        102.4086
877.44         107.074
877.84        95.72353
878.24        114.8279
878.64        112.6567
879.04        107.4533
879.44         105.466
879.84        104.1554
880.24           103.6
880.64        104.9614
881.04         107.829
881.44        109.7552
881.84        109.3859
882.24        107.5329
882.65        105.4695
883.05         104.833
883.45        105.9229
883.85        108.1938
884.25        110.8139
884.65        112.3561
885.05         112.323
885.45        111.2611
885.85        109.9224
886.25        109.3167
886.65        109.6745
887.05        110.6063
887.45        111.8289
887.85        112.8438
888.25        113.4071
888.65         113.745
889.04        113.7237
889.44        113.1631
889.84        112.1232
890.24        110.6602
890.64         109.311
891.04        108.9205
891.44        109.6055
891.84        111.1235
892.24        112.8499
892.64        113.6127
893.04        113.1529
893.44        111.9794
893.83        110.6122
894.23        109.8242
894.63        109.8027
895.03        110.2149
895.43        111.1776
895.83        112.8896
896.23        115.1852
896.63        117.9555
897.02        120.2971
897.42        120.7145
897.82        119.0085
898.22        115.7311
898.62        112.0644
899.01        109.7621
899.41        109.2939
899.81        110.0992
900.21        111.6294
900.61        112.9572
901.00        113.7127
901.40        114.2062
901.80        114.4365
902.20        114.3861
902.59        114.1109
902.99        113.5014
903.39         112.774
903.79        112.3733
904.18        112.4172
904.58        112.8633
904.98        113.4547
905.38        113.7579
905.77        113.6463
906.17        113.2528
906.57        112.8007
906.96        112.6712
907.36        112.8818
907.76        113.3192
908.15        113.6986
908.55        113.4501
908.95        112.5251
909.34        111.0824
909.74        109.6326
910.14        108.7883
910.53        108.7534
910.93        109.4154
911.33        110.4515
911.72        111.2661
912.12        111.5893
912.52        111.5333
912.91        111.4517
913.31        111.8818
913.70        112.9651
914.10        114.5702
914.49        116.2029
914.89        116.4085
915.29        114.8269
915.68        112.0143
916.08        109.3637
916.47        108.1174
916.87        108.4476
917.26        109.9436
917.66        111.7595
918.05        112.5452
918.45        111.9197
918.84        110.3351
919.24         108.648
919.64        108.0928
920.03        108.9773
920.42         110.892
920.82        113.0529
921.21        114.2884
921.61        114.0986
922.00        112.9647
922.40        111.4395
922.79        110.1699
923.19        109.3501
923.58        108.9125
923.98        108.7951
924.37        108.4158
924.77        107.7245
925.16        108.3677
925.55        107.8496
925.95        108.7035
926.34        110.1321
926.74         111.832
927.13        113.3912
927.52        114.0053
927.92        113.6322
928.31        112.4845
928.70        110.9465
929.10        109.6587
929.49        108.8095
929.89        108.3047
930.28        108.2408
930.67        108.7699
931.07        109.7324
931.46        111.1083
931.85        112.4685
932.24         113.199
932.64        113.1883
933.03        112.5622
933.42        111.3584
933.82        109.8853
934.21        108.3224
934.60        106.7727
934.99        105.6341
935.39        105.1742
935.78        105.4332
936.17        106.7106
936.56        108.7029
936.96        108.2663
937.35        107.6072
937.74        105.2948
938.13         103.492
938.53         103.324
938.92        104.7709
939.31        107.5788
939.70        110.8357
940.09        112.2367
940.49        110.9248
940.88        107.8315
941.27        104.4893
941.66        102.6755
942.05        102.6576
942.44        103.8963
942.84        105.7134
943.23        107.0663
943.62         107.461
944.01        107.1755
944.40        106.6893
944.79        106.7343
945.18         107.526
945.57        108.9086
945.97        110.1571
946.36        109.8964
946.75        107.9131
947.14        105.0786
947.53        102.6962
947.92        101.9532
948.31        102.8743
948.70          105.16
949.09         108.112
949.48        110.0324
949.87        110.1272
950.26        108.7838
950.65        106.9416
951.04        106.0916
951.43        106.5852
951.82        107.9306
952.21        109.3256
952.60        109.5042
952.99        108.1825
953.38        105.8909
953.77        103.4146
954.16        101.8237
954.55        101.3948
954.94        101.8622
955.33        102.6733
955.72        102.9124
956.11        102.3505
956.50         101.257
956.89        100.3132
957.28        100.7161
957.66        102.7952
958.05        105.8342
958.44        108.9116
958.83        110.7114
959.22        110.8894
959.61        109.7782
960.00        107.9295
960.39        106.2558
960.78        105.0845
961.16        104.2433
961.55        103.4165
961.94        102.1437
962.33        100.4277
962.72        98.63785
963.11        97.19125
963.49        96.53796
963.88        96.71675
964.27        97.57138
964.66        98.81519
965.04         99.8403
965.43        100.2048
965.82        100.0829
966.21        99.70808
966.60         99.4375
966.98        99.38836
967.37        99.40064
967.76        99.37998
968.15        99.17016
968.53        98.74773
968.92        98.18079
969.31        97.66192
969.69        97.37466
970.08        97.37781
970.47        97.67133
970.86        98.01711
971.24        98.01767
971.63        97.53407
972.02         96.6207
972.40         95.8319
972.79        96.08584
973.17        97.74545
973.56        100.4415
973.95        103.2268
974.33        104.2687
974.72        103.0494
975.11        100.2222
975.49        97.14619
975.88        95.65858
976.26         96.0381
976.65        97.88844
977.04        100.2123
977.42        100.5649
977.81        98.10315
978.19        93.90074
978.58        90.21298
978.96        89.34428
979.35        91.61816
979.74        96.44305
980.12        102.7974
980.51        106.9919
980.89        107.7216
981.28         105.956
981.66        102.9435
982.05        100.3398
982.43        98.57038
982.82        97.19717
983.20        96.46112
983.59        96.89577
983.97        98.61989
984.35        101.7135
984.74        105.3155
985.12         107.679
985.51        107.6008
985.89        105.4322
986.28        101.9975
986.66        98.84443
987.04        96.88128
987.43        95.86881
987.81        95.57611
988.20        95.79736
988.58         96.4844
988.96        97.94842
989.35        100.4526
989.73        104.0462
990.12        107.1254
990.50        109.0674
990.88        109.3245
991.27        108.2782
991.65        106.2719
992.03        103.2364
992.42        99.96676
992.80        97.87641
993.18        97.58731
993.56        98.42911
993.95         99.5787
994.33        100.3267
994.71        100.4313
995.10        100.3184
995.48        99.91385
995.86         98.9786
996.24        97.52181
996.63        95.35941
997.01         93.2238
997.39        93.15608
997.77        95.85106
998.15          100.59
998.54        105.2289
998.92        107.1882
999.30        105.6425
999.68        101.3934
1000.06         95.3208
1000.45        89.91862
1000.83        86.55725
1001.21        84.66767
1001.59        84.43489
1001.97        86.10177
1002.35        89.56777
1002.73        95.53979
1003.12        102.3397
1003.50        104.6194
1003.88        99.74098
1004.26        90.08877
1004.64        80.83241
1005.02        76.54095
1005.40        77.62105
1005.78        83.98405
1006.16        95.53713
1006.54        104.6046
1006.92        104.6573
1007.30        99.76575
1007.69        95.11546
1008.07        93.78163
1008.45         96.1493
1008.83        103.0242
1009.21        119.0818
1009.59        150.1794
1009.97        185.0562
1010.35        169.4187
1010.73        105.8886
1011.11        80.65191
1011.49        78.20256
1011.86        82.02956
1012.24        85.81651
1012.62        88.26828
1013.00        90.09629
1013.38        92.33247
1013.76        97.17439
1014.14        109.2729
1014.52        131.7313
1014.90        164.6485
1015.28        201.2807
1015.66        226.1334
1016.04        227.0821
1016.41        201.9088
1016.79        161.2274
1017.17        122.4862
1017.55        96.14423
1017.93        80.03305
1018.31        71.64584
1018.69        69.34962
1019.06        71.73683
1019.44        78.52915
1019.82        92.18466
1020.20        114.5223
1020.58        148.1976
1020.95        203.1763
1021.33        312.1794
1021.71       -1224.867
1022.09        16.08195
1022.46        86.89981
1022.84        111.8643
1023.22        124.9674
1023.60        138.2836
1023.97        221.5202
1024.35        91.84039
1024.73        114.7087
