SpectraSmart Spectrum 2.9.0.0
--------- Device Information -----------
Spectrum Name :  反射率_0
Saving Time :  2024/04/26 00:08:52
Spectro-Module Model Name : SE2030-DUVN
Spectro-Module Serial Number : OS361AC55029948
Wavelength Start : 200
Wavelength End : 1025
Wavelength Unit : Wavelength(nm)
Spectrum Unit : Reflectance(%)
-----------Spectrum Setting ------------
Integration Time : 20ms
Average : 10
Boxcar : 0
Background removal :  enabled
linearity correction :  enabled
SC :  disabled
Intensity correction :  disabled
DWT denoise :  enabled
savitzky-golay :  disabled
FFT :  disabled
Running average :  disabled
Kalman :  disabled
High pass :  disabled
---------------BEGIN--------------------
Wavelength(nm)             Reflectance(%)
200.29               0
200.75        84.85761
201.21        76.95379
201.67        68.01723
202.13        62.98017
202.58         62.3823
203.04        65.17583
203.50        69.40511
203.96        71.60409
204.42        70.93185
204.88        68.76064
205.34        66.61284
205.80        65.98385
206.26        67.39364
206.72        71.65659
207.18        80.15347
207.64        86.41208
208.10        79.06996
208.55        67.34122
209.01        60.53135
209.47        58.86351
209.93        60.24696
210.39        63.92298
210.85        67.88892
211.31        67.86854
211.77        62.76875
212.23        54.23918
212.69        46.23506
213.14        44.92472
213.60        51.07327
214.06        62.82771
214.52        75.71831
214.98        82.86658
215.44        82.59563
215.90        77.26406
216.36        69.91851
216.81        64.77239
217.27        63.19696
217.73        63.75189
218.19        64.61983
218.65        63.45337
219.11        59.32478
219.57         51.7595
220.02        41.97367
220.48        36.92985
220.94        40.00697
221.40        49.18022
221.86        57.01455
222.32         55.9617
222.77        47.47037
223.23        36.31272
223.69        27.30362
224.15        25.32385
224.61        29.75705
225.06        38.00404
225.52        46.74372
225.98        51.83133
226.44        52.34583
226.90        49.94916
227.36         46.4596
227.81        44.30822
228.27        44.36986
228.73        45.55592
229.19        47.13338
229.65        48.11161
230.10        48.25659
230.56        48.11136
231.02        47.93444
231.48        47.92781
231.93        48.11298
232.39         48.3622
232.85        48.65084
233.31        49.03554
233.77        49.47167
234.22        49.92864
234.68        50.23311
235.14        50.00688
235.60        49.19968
236.05         48.0098
236.51        46.69183
236.97        45.50267
237.43         44.5125
237.88        43.70072
238.34        43.18892
238.80        43.43541
239.26        44.60105
239.71        46.66982
240.17        49.04496
240.63        51.09832
241.08        52.61501
241.54        53.56764
242.00        54.06595
242.46        54.34113
242.91        54.59545
243.37        54.47481
243.83        55.09354
244.28        66.39852
244.74        96.41985
245.20        101.6488
245.66        95.41959
246.11        91.94815
246.57        89.86523
247.03        86.31126
247.48        69.01755
247.94        46.71772
248.40        57.17308
248.85         63.7378
249.31        67.40885
249.77        70.19224
250.22        73.17119
250.68        77.39536
251.14        82.18571
251.59        82.18746
252.05        74.22771
252.51        61.92019
252.96        50.83284
253.42        45.37396
253.88        44.57528
254.33         46.7018
254.79        50.99269
255.25        55.69363
255.70        59.71695
256.16        63.38762
256.62        65.39311
257.07        64.39011
257.53        61.23898
257.99        56.51463
258.44        52.16595
258.90         51.1785
259.35        52.57167
259.81        54.93098
260.27        56.19334
260.72         54.4095
261.18        50.34335
261.63        45.01058
262.09        40.09832
262.55        36.94374
263.00        35.52607
263.46        35.23198
263.91        35.16635
264.37        34.58572
264.83        33.34921
265.28        31.65273
265.74        30.07309
266.19        29.23016
266.65        29.25744
267.11        29.75994
267.56        30.19787
268.02        29.92928
268.47        28.87424
268.93        27.27118
269.38        25.47816
269.84         24.3283
270.30        24.04281
270.75        24.39149
271.21        24.94419
271.66         25.0606
272.12        24.57224
272.57        23.69512
273.03        22.76362
273.48        22.19991
273.94        22.12243
274.39         22.3364
274.85        22.60619
275.31        22.59929
275.76         22.2328
276.22        21.64869
276.67        21.01053
277.13        20.62257
277.58        20.50225
278.04         20.5739
278.49        20.63522
278.95        20.45261
279.40         19.9721
279.86        19.32575
280.31        18.66463
280.77        18.30871
281.22        18.26446
281.68        18.43027
282.13        18.61633
282.59        18.57833
283.04        18.27327
283.50        17.82603
283.95        17.32815
284.41        16.92915
284.86        16.67054
285.32        16.49801
285.77        16.42833
286.22        16.54137
286.68        16.79669
287.13        17.15125
287.59        17.42753
288.04        17.35878
288.50        16.93413
288.95        16.23672
289.41        15.49125
289.86        14.94775
290.32        14.71628
290.77        14.70666
291.22        14.84977
291.68        15.00067
292.13        15.11986
292.59        15.24783
293.04        15.42058
293.50        15.69083
293.95        16.05225
294.40        16.44743
294.86        16.81087
295.31        17.06368
295.77        17.19416
296.22         17.2391
296.68        17.24098
297.13        17.23871
297.58        17.27638
298.04         17.3643
298.49        17.53632
298.95         17.8717
299.40        18.36274
299.85        18.97295
300.31          19.618
300.76        20.17883
301.21        20.59779
301.67        20.91611
302.12        21.12164
302.58        21.24174
303.03         21.2868
303.48        21.26511
303.94        21.26947
304.39        21.41394
304.84        21.72126
305.30        22.15384
305.75        22.58877
306.20        22.83645
306.66        22.87783
307.11        22.76697
307.57        22.62977
308.02        22.59576
308.47        22.72069
308.93        22.95075
309.38        23.24067
309.83        23.54608
310.29        23.82786
310.74        24.09281
311.19        24.30578
311.65        24.41317
312.10        24.41088
312.55        24.31403
313.00        24.15868
313.46        24.01598
313.91        23.90469
314.36        23.82679
314.82        23.79747
315.27        23.82702
315.72        23.91566
316.18        24.05516
316.63         24.2163
317.08        24.32795
317.53        24.36646
317.99        24.33738
318.44        24.27475
318.89        24.23901
319.35        24.23931
319.80        24.26298
320.25        24.26261
320.70        24.16335
321.16        23.95615
321.61        23.67068
322.06        23.37077
322.51        23.15026
322.97        23.02146
323.42        22.96224
323.87        22.91516
324.32        22.78642
324.78        22.55222
325.23        22.24862
325.68        21.91975
326.13        21.63732
326.59        21.42443
327.04        21.28306
327.49        21.19352
327.94        21.12399
328.39        21.06585
328.85        21.01824
329.30        21.02984
329.75         21.1495
330.20        21.37465
330.66         21.6588
331.11        21.93759
331.56        22.07053
332.01        22.02253
332.46        21.81865
332.92        21.53417
333.37        21.33432
333.82        21.27303
334.27        21.32766
334.72        21.42778
335.17        21.44539
335.63        21.34492
336.08        21.17075
336.53         21.0111
336.98        21.00693
337.43        21.18477
337.88        21.49798
338.34        21.81138
338.79        21.95316
339.24         21.8604
339.69        21.58773
340.14        21.28189
340.59        21.19547
341.05        21.37624
341.50        21.73812
341.95        22.13289
342.40          22.347
342.85        22.33197
343.30        22.16776
343.75        21.91796
344.20        21.69578
344.66        21.54607
345.11        21.39993
345.56        21.29079
346.01          21.266
346.46        21.31592
346.91        21.45199
347.36        21.53396
347.81        21.33141
348.26        20.83333
348.72        20.14717
349.17        19.48738
349.62        19.28767
350.07        19.63533
350.52        20.37368
350.97        21.24538
351.42        21.85822
351.87        22.09639
352.32        22.06768
352.77         21.8678
353.22        21.65507
353.67        21.49324
354.13        21.33887
354.58        21.18188
355.03        21.04922
355.48         20.9463
355.93        20.89324
356.38        20.87289
356.83        20.84022
357.28        20.77787
357.73        20.68242
358.18        20.56985
358.63        20.46926
359.08        20.38753
359.53        20.32543
359.98         20.2404
360.43        20.06737
360.88        19.80453
361.33        19.47263
361.78        19.17054
362.23        19.05681
362.68        19.15062
363.13        19.38939
363.58        19.63465
364.03        19.66988
364.48        19.44903
364.93        19.04902
365.38        18.57539
365.83        18.19965
366.28        17.98134
366.73        17.86879
367.18        17.84235
367.63        17.86908
368.08        17.91984
368.53        18.00319
368.98         18.0754
369.43        18.06079
369.88        17.94966
370.33        17.76528
370.78        17.54779
371.23        17.37447
371.68        17.27386
372.13        17.22046
372.58        17.22909
373.03        17.31923
373.48        17.47477
373.93        17.68358
374.38         17.8622
374.83        17.88278
375.28        17.72437
375.72        17.41276
376.17        17.06563
376.62        16.83698
377.07        16.77408
377.52        16.83451
377.97        16.95119
378.42        17.01224
378.87        16.98333
379.32        16.89917
379.77        16.79796
380.22         16.7324
380.67        16.71171
381.11        16.71273
381.56        16.69705
382.01        16.61523
382.46        16.45818
382.91        16.24765
383.36        16.02691
383.81        15.86087
384.26        15.77047
384.71        15.74427
385.15        15.73977
385.60        15.70207
386.05        15.61116
386.50        15.47395
386.95        15.33956
387.40        15.29211
387.85        15.34344
388.29        15.45833
388.74        15.55695
389.19        15.51738
389.64        15.32914
390.09        15.02759
390.54        14.72112
390.98        14.59242
391.43        14.68932
391.88         14.9383
392.33        15.20896
392.78        15.30938
393.23        15.20804
393.67        14.96793
394.12        14.71126
394.57        14.55378
395.02        14.52479
395.47        14.58104
395.91        14.67761
396.36        14.71873
396.81        14.67822
397.26        14.57525
397.71        14.45395
398.15        14.36089
398.60        14.32722
399.05        14.34008
399.50        14.34003
399.95         14.2033
400.39        13.98337
400.84        13.66534
401.29        13.37099
401.74        13.29363
402.18        13.48662
402.63        13.86749
403.08        14.29469
403.53        14.54128
403.97        14.54728
404.42         14.3785
404.87        14.12484
405.32        13.94583
405.76        13.89268
406.21        13.91513
406.66        13.97235
407.11        14.01381
407.55        14.02483
408.00        14.02234
408.45         14.0034
408.90        13.94916
409.34        13.86164
409.79        13.74818
410.24        13.63844
410.68        13.57333
411.13        13.56582
411.58        13.61312
412.03         13.6938
412.47        13.76945
412.92        13.81602
413.37        13.83589
413.81        13.85993
414.26        13.95378
414.71        14.11355
415.15        14.31681
415.60        14.47614
416.05        14.47352
416.49        14.28883
416.94        13.97655
417.39        13.62805
417.83        13.40012
418.28        13.34767
418.73        13.41497
419.17        13.55486
419.62        13.68451
420.07        13.77483
420.51        13.85184
420.96         13.8872
421.41        13.82957
421.85        13.67733
422.30        13.46449
422.74        13.25398
423.19        13.17011
423.64        13.22023
424.08        13.38003
424.53         13.5746
424.98        13.69431
425.42        13.70815
425.87        13.64097
426.31        13.53267
426.76        13.48903
427.21         13.5116
427.65        13.47749
428.10        13.43926
428.54        13.56368
428.99        13.85061
429.44        14.22493
429.88        14.53413
430.33        14.58337
430.77        14.34743
431.22        13.89299
431.66        13.41136
432.11        13.24691
432.56        13.43121
433.00        13.79357
433.45        14.16107
433.89        14.41128
434.34        14.43733
434.78        14.15275
435.23        13.77954
435.67         13.7648
436.12        14.06697
436.57        14.19539
437.01        14.09234
437.46        14.01839
437.90         13.9995
438.35        13.96192
438.79         13.9094
439.24         13.8879
439.68        13.90858
440.13        13.90074
440.57        13.88203
441.02        14.06767
441.46        14.34433
441.91        14.21252
442.35        13.76499
442.80        13.55423
443.24        13.56365
443.69        13.58519
444.13        13.56113
444.58        13.40237
445.02        13.16334
445.47        13.14026
445.91        13.28827
446.36        13.29473
446.80        13.14081
447.24        13.00518
447.69        12.93027
448.13          12.894
448.58        12.90985
449.02        12.97874
449.47        13.05973
449.91        13.08396
450.36        13.04051
450.80        12.94697
451.25        12.85237
451.69        12.82358
452.13          12.877
452.58        12.97541
453.02        13.08809
453.47        13.16306
453.91        13.18871
454.36        13.18942
454.80        13.16019
455.24        13.09205
455.69        13.00212
456.13          12.888
456.58        12.81469
457.02        12.85918
457.46        13.03307
457.91        13.30068
458.35        13.58055
458.79        13.73453
459.24        13.73967
459.68        13.62423
460.13        13.47235
460.57        13.37899
461.01        13.38668
461.46        13.45843
461.90        13.55372
462.34         13.5979
462.79         13.5704
463.23        13.49149
463.68        13.41335
464.12        13.41962
464.56        13.52862
465.01        13.71524
465.45        13.88193
465.89        13.93665
466.34        13.87515
466.78        13.65528
467.22        13.39804
467.67         13.4341
468.11        13.72736
468.55         13.8639
468.99        13.80579
469.44        13.77304
469.88        13.81274
470.32        13.96863
470.77        14.17641
471.21        14.22861
471.65         14.1014
472.10        13.94789
472.54        13.82535
472.98        13.78304
473.42        13.84341
473.87        13.99273
474.31        14.17312
474.75        14.28707
475.20        14.31369
475.64        14.27389
476.08        14.21136
476.52        14.19263
476.97        14.23675
477.41        14.32808
477.85        14.42743
478.29        14.50139
478.74        14.54135
479.18        14.48439
479.62        14.38093
480.06        14.55228
480.50        14.70589
480.95        14.86674
481.39        14.88753
481.83        14.85335
482.27        14.76005
482.72        14.49724
483.16        14.17989
483.60         14.1791
484.04        14.51459
484.48        14.76433
484.93        15.06599
485.37        15.49137
485.81        15.89693
486.25        16.09214
486.69        20.91232
487.14         16.5941
487.58        11.14469
488.02        13.67068
488.46        15.59398
488.90        15.60679
489.34        15.56637
489.79        15.45649
490.23        16.32417
490.67        16.76639
491.11        16.57532
491.55        16.43271
491.99        16.31306
492.43        16.15338
492.88        16.01885
493.32        16.02983
493.76        16.08304
494.20        16.27062
494.64        16.54062
495.08        16.86311
495.52        17.19995
495.96         17.5178
496.41        17.75298
496.85        17.88617
497.29        17.93038
497.73        17.73709
498.17        17.52493
498.61        17.72347
499.05        18.31948
499.49        18.42916
499.93        18.49065
500.37        18.54457
500.82        18.55526
501.26        18.73014
501.70        18.97925
502.14         19.1362
502.58        19.17546
503.02           19.24
503.46        19.32939
503.90        19.34694
504.34        19.30376
504.78        19.26663
505.22        19.24863
505.66        19.24097
506.10        19.24199
506.54        19.24759
506.98        19.26133
507.42        19.28941
507.86        19.35384
508.30        19.48605
508.74        19.68167
509.18        19.91773
509.62        20.14999
510.06        20.30713
510.50        20.37185
510.94         20.3734
511.38        20.33116
511.82        20.27732
512.26        20.23188
512.70        20.18402
513.14        20.17343
513.58        20.26431
514.02        20.44891
514.46        20.69721
514.90         20.9283
515.34        20.97773
515.78        20.78944
516.22        20.57171
516.66        20.41065
517.10         19.9957
517.54         19.3602
517.98        20.11329
518.42        19.88388
518.86         20.2263
519.30        20.40958
519.74        20.65676
520.18        20.89063
520.62        20.95558
521.06        20.85595
521.50        20.61381
521.93        20.31924
522.37        20.13423
522.81         20.1025
523.25        20.18148
523.69        20.31563
524.13        20.41588
524.57        20.45213
525.01         20.4495
525.45         20.4248
525.89        20.40352
526.32        20.39003
526.76        20.37001
527.20        20.32745
527.64        20.25014
528.08        20.14235
528.52        19.99717
528.96        19.83097
529.40        19.72095
529.83        19.68804
530.27        19.51266
530.71        19.56385
531.15        19.50282
531.59        19.44002
532.03        19.37128
532.46           19.33
532.90        19.37016
533.34        19.48626
533.78         19.6517
534.22        19.80548
534.66        19.86125
535.09        19.79754
535.53        19.65064
535.97        19.46321
536.41          19.308
536.85         19.2137
537.28        19.16754
537.72        19.15943
538.16        19.17141
538.60        19.19678
539.04        19.22696
539.47        19.27177
539.91        19.39284
540.35        19.56773
540.79        19.70534
541.22        19.78881
541.66        19.87295
542.10        19.95348
542.54        19.98394
542.97        19.99478
543.41        20.06942
543.85         20.2161
544.29        20.42389
544.72        20.63091
545.16        20.74696
545.60        20.75714
546.04        20.68785
546.47        20.63428
546.91        20.75688
547.35        21.07056
547.79        21.52065
548.22        21.97432
548.66        22.20503
549.10        22.18067
549.53         22.0104
549.97        21.81578
550.41        21.72653
550.84        21.79341
551.28          21.988
551.72        22.27645
552.15        22.59098
552.59         22.8896
553.03        23.18219
553.46        23.43703
553.90        23.62644
554.34        23.75313
554.77        23.79678
555.21        23.77863
555.65        23.80951
556.08        23.91772
556.52        23.79099
556.96        23.98919
557.39        24.05343
557.83         24.1494
558.27        24.30595
558.70        24.42873
559.14        24.56454
559.57        24.66842
560.01        24.76035
560.45        24.81725
560.88        24.80634
561.32        24.75108
561.75        24.64944
562.19        24.56644
562.63        24.56655
563.06        24.65734
563.50        24.82332
563.93        25.01668
564.37        25.16852
564.80        25.25121
565.24        25.30201
565.68        25.34083
566.11        25.36503
566.55        25.44567
566.98        25.54652
567.42        25.70094
567.85         25.8463
568.29        26.13018
568.72        26.36476
569.16        26.61021
569.60        26.93382
570.03        27.20469
570.47        27.23303
570.90        27.16933
571.34        26.59931
571.77        27.18343
572.21         27.2646
572.64         27.3418
573.08        27.08912
573.51        26.18667
573.95        27.31558
574.38        29.01079
574.82        28.42164
575.25        28.31456
575.69        27.36187
576.12        26.87792
576.56        26.67912
576.99        27.40246
577.42        28.70038
577.86        28.51053
578.29        28.56915
578.73        29.56157
579.16        27.33002
579.60        25.02696
580.03        26.22963
580.47        27.95646
580.90        28.38106
581.33        27.89122
581.77        27.68923
582.20        29.87741
582.64        29.74616
583.07        25.11911
583.51        24.62636
583.94        24.22384
584.37        25.19288
584.81        26.19549
585.24        27.37518
585.68         27.9314
586.11        27.52754
586.54         25.4596
586.98        24.78718
587.41        25.00575
587.85        26.09251
588.28        26.94624
588.71        25.73743
589.15        24.95276
589.58         25.1917
590.01        25.47327
590.45        26.00506
590.88        26.09793
591.31        25.69786
591.75        25.37041
592.18        25.43327
592.61        26.20159
593.05        26.60084
593.48        27.99614
593.91        28.03061
594.35        25.79163
594.78          25.368
595.21        25.52583
595.65        26.81171
596.08        27.79362
596.51        26.78865
596.94         26.1988
597.38        26.64332
597.81        27.91634
598.24        28.70067
598.68        28.58341
599.11        28.17468
599.54        29.83235
599.97        30.38848
600.41        29.04853
600.84        29.41354
601.27        30.20934
601.70        30.10949
602.14        30.34717
602.57        30.27823
603.00        30.91591
603.43        32.12207
603.87         33.3756
604.30         33.5144
604.73        32.72905
605.16        32.74352
605.60        33.64248
606.03        34.63583
606.46        35.64853
606.89        35.73572
607.32        35.23856
607.76        35.68048
608.19        37.06763
608.62        36.81831
609.05        36.38627
609.48        37.14565
609.92        37.80067
610.35        37.91549
610.78        39.37361
611.21        39.93833
611.64        38.55906
612.07        39.32067
612.50        39.90302
612.94        40.51011
613.37        40.53408
613.80        40.86145
614.23        41.52362
614.66        41.79447
615.09        42.25483
615.52        42.52035
615.96        42.69028
616.39        43.00558
616.82        42.74505
617.25         42.8956
617.68          43.749
618.11        44.28469
618.54        44.54148
618.97        44.46337
619.40         44.2732
619.84        44.58623
620.27        45.33342
620.70        45.88087
621.13        46.11716
621.56        45.91908
621.99        45.49555
622.42        46.13155
622.85        47.45531
623.28        47.36852
623.71         46.8368
624.14        46.82056
624.57        46.40146
625.00        46.34038
625.43        46.32053
625.86        45.97411
626.29        46.16361
626.72        46.29372
627.15        46.10349
627.58        46.04097
628.01        45.96198
628.44         45.7917
628.87        45.55755
629.30        45.45691
629.73        45.42773
630.16        45.18529
630.59        44.71388
631.02        44.17285
631.45        43.62684
631.88         43.1131
632.31        42.65615
632.74        42.24591
633.17        41.86488
633.60        41.48443
634.03        41.09286
634.46        40.69901
634.89        40.29679
635.32        39.87435
635.75          39.433
636.18         38.9786
636.61        38.51693
637.04        38.05711
637.47        37.59972
637.89        37.14097
638.32        36.69079
638.75        36.29063
639.18        35.95224
639.61        35.67669
640.04        35.41661
640.47        35.09052
640.90        34.68619
641.33        34.22355
641.76         33.7709
642.18        33.49345
642.61        33.42052
643.04        33.42683
643.47        33.40658
643.90        33.62182
644.33        33.34603
644.76        33.19007
645.18        33.00686
645.61        32.91143
646.04        32.92564
646.47        33.00634
646.90         33.1745
647.33        33.43714
647.75        33.79976
648.18         34.2952
648.61        34.78912
649.04        35.08569
649.47        35.16019
649.89        34.92625
650.32        34.69279
650.75        35.15459
651.18        36.24053
651.61        37.27987
652.03        37.96377
652.46        38.20992
652.89        38.35195
653.32        38.44447
653.74        38.62415
654.17        40.52217
654.60        41.10161
655.03        40.09982
655.46        41.34893
655.88        44.39174
656.31        47.54807
656.74        107.8548
657.16        69.97949
657.59        24.74707
658.02        19.11192
658.45        33.75391
658.87        43.71043
659.30        46.15011
659.73        45.81599
660.15        44.40167
660.58        46.92799
661.01         48.5914
661.44        47.34135
661.86         47.1001
662.29        47.39906
662.72        48.29788
663.14        49.60015
663.57        49.82946
664.00        49.17444
664.42        49.25236
664.85        50.14169
665.27        50.82925
665.70        51.12093
666.13        51.28439
666.55        51.29729
666.98        51.09136
667.41        50.83551
667.83        50.83842
668.26        51.17059
668.69        51.71879
669.11        52.28876
669.54        52.80852
669.96         52.7148
670.39        52.52877
670.82        52.28152
671.24        52.22039
671.67        52.46542
672.09         53.0345
672.52         53.6709
672.94         54.2446
673.37         53.8078
673.80        53.71333
674.22        53.77848
674.65         53.8413
675.07        53.90838
675.50        53.97992
675.92        54.08296
676.35        54.28481
676.77        54.58679
677.20        54.91452
677.62        55.21949
678.05        55.42531
678.47        55.50252
678.90        55.48457
679.32        55.45283
679.75           55.41
680.17        55.59382
680.60        55.87325
681.02        56.20807
681.45        56.19838
681.87        55.90313
682.30        55.86498
682.72         56.1101
683.15        56.16285
683.57        56.12173
684.00        56.46665
684.42        57.26688
684.85        57.62156
685.27        57.51788
685.70        57.29844
686.12        57.08525
686.54        56.99815
686.97        57.08423
687.39        57.31537
687.82         57.6052
688.24        57.86647
688.66        58.04555
689.09        58.13993
689.51        58.20144
689.94        58.36952
690.36        58.63023
690.78        58.78055
691.21        58.81554
691.63        58.89153
692.06         59.0193
692.48         59.1212
692.90        59.21286
693.33        59.34868
693.75        59.52906
694.17        59.73363
694.60        59.95919
695.02        60.16284
695.44        60.29623
695.87        60.58047
696.29        60.96067
696.71        60.72116
697.14        60.09476
697.56        60.49737
697.98        61.70093
698.41         61.6754
698.83        61.04891
699.25        60.75533
699.68        61.01938
700.10        61.10281
700.52        61.00707
700.94         61.1045
701.37        61.37205
701.79        61.68478
702.21        61.98384
702.64        62.30013
703.06        62.55209
703.48        62.60713
703.90        62.46078
704.33        62.15619
704.75        61.80661
705.17        61.67427
705.59        61.83094
706.01        62.10925
706.44        62.39135
706.86        63.02456
707.28         63.1132
707.70         63.3368
708.12        63.46608
708.55         63.5447
708.97         63.5684
709.39        63.53508
709.81        63.48431
710.23        63.47494
710.66        63.52754
711.08        63.66061
711.50        63.81025
711.92        63.88449
712.34        63.86459
712.76         63.7645
713.19         63.6737
713.61        63.76054
714.03        64.03964
714.45        64.46111
714.87        64.86301
715.29        64.99082
715.71        64.79832
716.13        64.36721
716.56        63.88759
716.98        63.69408
717.40        63.86343
717.82        64.30161
718.24        64.82955
718.66        65.13918
719.08        65.14544
719.50        64.94434
719.92        64.66985
720.34        64.55224
720.76         64.6559
721.19        64.79644
721.61        65.10495
722.03        65.34057
722.45        65.51914
722.87        65.67337
723.29        65.80907
723.71        65.92398
724.13        66.01763
724.55        66.07739
724.97        66.13092
725.39        66.19553
725.81        66.26829
726.23        66.41512
726.65        66.61404
727.07        66.44903
727.49        66.51343
727.91        66.36213
728.33         66.2251
728.75        66.17425
729.17        66.23653
729.59        66.36931
730.01         66.5541
730.43        66.76806
730.85        66.99401
731.27        67.26437
731.69        67.50446
732.10        67.57415
732.52        67.45017
732.94        67.20323
733.36        67.00047
733.78         66.9744
734.20          67.167
734.62        67.86244
735.04        68.78496
735.46          68.754
735.88        68.01668
736.30        68.17908
736.72         69.3308
737.13        69.92141
737.55        69.66857
737.97        69.64645
738.39        69.85056
738.81         68.9279
739.23        67.43272
739.65        68.17902
740.06        70.66174
740.48         71.0751
740.90        69.46961
741.32        68.85872
741.74        69.48669
742.16        69.84859
742.57        69.96741
742.99        70.63356
743.41        71.63386
743.83         72.1992
744.25        72.20699
744.67        71.85246
745.08        71.38725
745.50        71.22569
745.92        71.49159
746.34        72.04047
746.75        72.67934
747.17        73.08555
747.59        73.19043
748.01        73.09161
748.42        72.96672
748.84        73.11446
749.26        73.61174
749.68        74.23672
750.09        74.82921
750.51        75.39159
750.93        75.74087
751.35        75.32826
751.76        74.43934
752.18        74.17437
752.60        74.54089
753.01        74.82528
753.43        74.96433
753.85        75.13719
754.27        75.27678
754.68        76.19771
755.10        76.15291
755.52        76.57918
755.93        76.92612
756.35         77.1255
756.77        77.26316
757.18         77.4127
757.60        77.59898
758.02        78.19477
758.43        78.76546
758.85        78.25038
759.26        75.89736
759.68        75.67734
760.10        77.11142
760.51        77.85882
760.93         77.5062
761.34        76.93678
761.76        76.35986
762.18         75.8528
762.59        75.73154
763.01        75.53512
763.42        76.54128
763.84        77.35616
764.26        78.12408
764.67        78.30287
765.09        77.96207
765.50        77.87605
765.92        77.95054
766.33        77.10094
766.75        75.71373
767.16        75.23732
767.58        75.86118
768.00        77.15689
768.41        78.82441
768.83        80.14958
769.24        80.56721
769.66        79.90678
770.07        78.58912
770.49        76.87278
770.90        75.30993
771.32        76.01585
771.73        78.35339
772.15        77.99451
772.56        75.36938
772.97        75.04544
773.39        76.90332
773.80        77.62156
774.22        76.95001
774.63        76.82941
775.05        77.27569
775.46        77.52757
775.88        77.51618
776.29        77.45687
776.70         77.3708
777.12        77.32689
777.53        77.36026
777.95        77.39491
778.36        77.39839
778.77        77.30157
779.19        77.13491
779.60        76.93463
780.02         76.7849
780.43        76.87997
780.84        77.32052
781.26        77.64844
781.67        77.86824
782.09        78.91444
782.50        80.23703
782.91        79.27135
783.33        76.72363
783.74        75.89597
784.15        76.95758
784.57        77.77399
784.98        77.99535
785.39        78.13478
785.81        78.09294
786.22        77.57806
786.63        76.94743
787.04        76.88639
787.46        77.47132
787.87        78.47549
788.28        79.55525
788.70         80.1146
789.11        80.00087
789.52        79.45917
789.93        78.75907
790.35        78.19832
790.76        77.92281
791.17        78.03684
791.58        78.42715
792.00        78.65221
792.41        78.52831
792.82        78.66518
793.23        78.16341
793.65        78.03376
794.06        78.17264
794.47        79.42638
794.88        80.98022
795.29        80.84837
795.71        78.32933
796.12        76.24376
796.53        74.98194
796.94        74.49041
797.35        74.90196
797.76        76.19186
798.18        77.74723
798.59        78.71358
799.00        78.72056
799.41        77.83844
799.82        76.54982
800.23        75.79489
800.64        75.79632
801.06        76.17667
801.47        76.81311
801.88        77.40561
802.29        77.80612
802.70        78.13562
803.11        78.35087
803.52        78.33023
803.93        78.09253
804.34         77.6736
804.75        77.24819
805.17         77.0466
805.58        77.51057
805.99        77.89323
806.40        78.14034
806.81        78.95464
807.22        79.78235
807.63        78.52482
808.04        75.87487
808.45        74.77956
808.86        75.50119
809.27        76.56474
809.68        77.49191
810.09        78.04804
810.50        77.99382
810.91        77.43608
811.32        76.68039
811.73        76.18159
812.14        76.07019
812.55        76.27034
812.96        76.70142
813.37        76.94316
813.78        77.02531
814.19         77.6424
814.60         78.4597
815.01        78.43415
815.42        77.50133
815.83        76.09108
816.24        74.74967
816.65        74.27995
817.05        74.95443
817.46        76.51499
817.87        78.31039
818.28        79.16887
818.69        78.76144
819.10        77.37634
819.51        75.70358
819.92        74.91966
820.33        75.33843
820.74         76.6006
821.14        78.06285
821.55        78.58887
821.96        77.93945
822.37        76.52118
822.78        74.94627
823.19        74.10555
823.60        74.23518
824.00        75.10902
824.41        76.27203
824.82        77.04312
825.23        77.14159
825.64        76.79475
826.04        76.27751
826.45        75.99343
826.86        76.04752
827.27        76.26498
827.68        76.51077
828.08         76.6167
828.49        76.46023
828.90         76.1758
829.31        75.79504
829.72        75.37926
830.12        75.00366
830.53        74.59514
830.94        74.31225
831.35        74.39929
831.75        74.91216
832.16        75.71058
832.57        76.61242
832.97        77.22491
833.38        77.34846
833.79        77.08559
834.20        76.65205
834.60        76.38873
835.01        76.41147
835.42        76.60796
835.82         76.8363
836.23        76.77872
836.64        76.40318
837.04        75.84811
837.45        75.28915
837.86        74.99712
838.26        75.05119
838.67        75.32693
839.08        75.73396
839.48        76.09792
839.89        76.31191
840.29        76.44126
840.70         76.4654
841.11        76.34092
841.51        76.08505
841.92         75.6683
842.33         75.2388
842.73        75.06115
843.14        75.14948
843.54        75.47974
843.95        75.79089
844.35        75.70696
844.76        75.14806
845.17        74.27656
845.57        73.37464
845.98        72.86898
846.38        72.86301
846.79        73.20276
847.19        73.74512
847.60        74.14143
848.00        74.30213
848.41        74.30035
848.81        74.22357
849.22         74.1299
849.62        74.10554
850.03        74.11976
850.43        74.23339
850.84        74.48577
851.24         74.9161
851.65        75.34251
852.05        75.86388
852.46         76.4575
852.86        77.08422
853.27         77.7578
853.67        78.03328
854.07        77.35537
854.48        75.78135
854.88        73.53203
855.29        71.37254
855.69        70.39909
856.10        70.81873
856.50        72.49684
856.90        74.79731
857.31        76.22939
857.71        76.31282
858.12        75.39096
858.52        74.07856
858.92         73.1848
859.33        72.90194
859.73        73.00969
860.13        73.39504
860.54        73.84137
860.94        74.31195
861.34          74.847
861.75        75.39958
862.15        75.97235
862.55        76.50011
862.96         76.9324
863.36        77.21911
863.76        77.26063
864.17        77.06476
864.57        76.74909
864.97        76.44515
865.38        76.34229
865.78        76.53384
866.18        76.87881
866.58        77.36941
866.99        77.96914
867.39        78.68219
867.79        79.56001
868.19        80.26643
868.60        80.17966
869.00        79.20332
869.40         77.5068
869.80        75.94915
870.21        75.88499
870.61        77.67398
871.01        80.91309
871.41         84.5224
871.81        86.63961
872.22        86.74499
872.62        85.36886
873.02        83.48984
873.42        82.80593
873.82         83.5405
874.22        84.87027
874.63        86.30603
875.03        86.85442
875.43        86.06384
875.83        85.24457
876.23        83.20441
876.63        82.27262
877.03        82.41556
877.44        83.82491
877.84        104.0138
878.24        91.16042
878.64        91.25813
879.04        90.93793
879.44        86.39124
879.84        84.11337
880.24        88.44678
880.64        90.76308
881.04        91.91262
881.44        92.49535
881.84        91.84377
882.24        90.20889
882.65        88.59968
883.05        87.98489
883.45        88.53416
883.85         90.2391
884.25        92.32759
884.65        93.18324
885.05        92.39659
885.45        90.56564
885.85        88.69247
886.25        88.14608
886.65        89.16919
887.05         91.2732
887.45        93.76348
887.85        95.38726
888.25        95.68507
888.65        95.07669
889.04        93.92411
889.44        92.84705
889.84        92.07889
890.24        91.40134
890.64        90.92382
891.04        90.84213
891.44        91.13084
891.84        91.79765
892.24        92.49593
892.64        92.54537
893.04        91.85477
893.44        90.71943
893.83        89.57308
894.23        89.05586
894.63        89.28543
895.03         89.9957
895.43        91.10244
895.83        92.42344
896.23        93.75946
896.63        95.14674
897.02         96.1152
897.42        95.91839
897.82        94.52821
898.22        92.24419
898.62        89.90558
899.01        88.75259
899.41        89.06129
899.81        90.42033
900.21        92.24671
900.61        93.56753
901.00        94.05088
901.40        93.98026
901.80        93.58997
902.20        93.24805
902.59        93.08965
902.99        92.96441
903.39         92.8047
903.79        92.53709
904.18        92.16436
904.58        91.81639
904.98         91.6028
905.38        91.66093
905.77        91.97208
906.17        92.43093
906.57        92.92511
906.96        93.33849
907.36         93.5712
907.76        93.70196
908.15        93.64652
908.55        93.16649
908.95        92.32141
909.34        91.14223
909.74        90.08397
910.14        89.68477
910.53        90.07886
910.93        91.18436
911.33        92.56116
911.72        93.40589
912.12        93.42484
912.52        92.83356
912.91        92.14948
913.31        92.03532
913.70        92.64893
914.10        93.82952
914.49         95.0815
914.89        95.13506
915.29        93.64485
915.68        91.14886
916.08        88.81989
916.47        87.71693
916.87        87.94497
917.26        89.14216
917.66        90.59258
918.05        91.17601
918.45        90.58706
918.84        89.24141
919.24         87.8146
919.64        87.26196
920.03        87.84145
920.42        89.21846
920.82          90.925
921.21        92.30625
921.61        92.92522
922.00        93.00143
922.40        92.61932
922.79        91.91334
923.19        91.04488
923.58        89.87273
923.98        88.43333
924.37        87.35081
924.77         87.0797
925.16        84.88058
925.55        85.90564
925.95        86.45327
926.34        88.00243
926.74        90.06611
927.13        92.09377
927.52        92.87858
927.92        92.26256
928.31        90.66283
928.70         88.5861
929.10        86.92053
929.49         85.9348
929.89        85.41681
930.28         85.5499
930.67        86.63777
931.07        88.47881
931.46        91.00751
931.85        93.35937
932.24         94.2451
932.64        93.44125
933.03        91.17057
933.42        88.07487
933.82        85.69584
934.21        84.57256
934.60        84.37193
934.99        84.60877
935.39         84.8176
935.78        84.91848
936.17        84.70716
936.56        83.82714
936.96        84.89405
937.35        83.13748
937.74        82.53701
938.13        82.14977
938.53        82.68474
938.92        84.16142
939.31         86.5643
939.70        89.23875
940.09        90.26476
940.49        89.01334
940.88        86.28901
941.27        83.42818
941.66        82.00611
942.05        82.22909
942.44        83.55883
942.84        85.47306
943.23        87.12569
943.62        88.04175
944.01        88.45228
944.40         88.3866
944.79        87.87035
945.18        86.94036
945.57        85.47661
945.97        83.63335
946.36        82.01971
946.75        81.11394
947.14        80.90714
947.53         81.2013
947.92        81.70776
948.31         82.3534
948.70        83.23396
949.09        84.28629
949.48         85.2564
949.87        85.94006
950.26        86.24674
950.65        86.26528
951.04        86.24311
951.43        86.22721
951.82        86.12881
952.21        85.77917
952.60        84.93742
952.99        83.61435
953.38        81.98243
953.77        80.33209
954.16        79.02251
954.55        78.16578
954.94        77.75518
955.33        77.58087
955.72        77.26921
956.11        76.75252
956.50        76.11365
956.89        75.78916
957.28        76.53642
957.66        78.53663
958.05        81.26516
958.44        83.93913
958.83        85.44548
959.22        85.51611
959.61         84.3878
960.00        82.67524
960.39        81.40765
960.78        80.90487
961.16        80.97623
961.55        81.06685
961.94        80.22951
962.33        78.34758
962.72        75.89993
963.11        73.69591
963.49        72.73773
963.88        73.17733
964.27        74.78487
964.66        76.90849
965.04        78.13448
965.43        77.83754
965.82          76.507
966.21        75.02666
966.60        74.56983
966.98        75.36996
967.37        77.02543
967.76        78.95647
968.15        80.03789
968.53        79.89037
968.92        78.86941
969.31        77.60026
969.69        76.88943
970.08        76.92013
970.47         77.4615
970.86        78.08294
971.24        78.04942
971.63        77.14484
972.02        75.59651
972.40        73.98614
972.79        73.31514
973.17        73.99769
973.56        75.67665
973.95        77.73055
974.33         78.9231
974.72        78.75186
975.11        77.58186
975.49        76.12519
975.88        75.40263
976.26        75.57183
976.65          76.395
977.04        77.23062
977.42        76.63198
977.81        74.26614
978.19        70.87307
978.58        68.07729
978.96        67.41985
979.35          69.087
979.74        72.71889
980.12        77.61427
980.51        81.00565
980.89         81.9361
981.28        81.02955
981.66        79.16839
982.05        77.52497
982.43        76.42114
982.82        75.45967
983.20        74.94373
983.59        75.41016
983.97        76.99159
984.35        79.78075
984.74        82.82909
985.12        84.12252
985.51        82.55448
985.89        78.45594
986.28         73.4315
986.66        70.12601
987.04        69.48446
987.43        70.74603
987.81        72.47794
988.20        72.93407
988.58        71.62359
988.96        68.41252
989.35        64.01362
989.73        62.43197
990.12        66.23057
990.50        73.48533
990.88         79.5072
991.27         80.8309
991.65        77.97219
992.03          72.032
992.42        65.44177
992.80        62.55145
993.18        64.63693
993.56         69.4099
993.95         74.5294
994.33        77.93756
994.71        79.17801
995.10        79.23174
995.48        78.55546
995.86        77.61699
996.24        76.64552
996.63        75.28856
997.01         73.7698
997.39        73.25454
997.77        74.11261
998.15        76.05238
998.54         77.7675
998.92        77.66807
999.30           75.13
999.68        70.72161
1000.06        65.08105
1000.45        60.08495
1000.83        56.81262
1001.21        54.95834
1001.59        54.65527
1001.97        56.08344
1002.35        59.10868
1002.73        64.17825
1003.12        70.07024
1003.50        72.36314
1003.88        68.92694
1004.26        61.77966
1004.64        54.60025
1005.02        50.50609
1005.40        49.69836
1005.78        51.62899
1006.16        57.11624
1006.54        64.64333
1006.92        69.86731
1007.30        72.12314
1007.69        72.59254
1008.07        72.82223
1008.45        73.11465
1008.83        72.99538
1009.21        70.15621
1009.59        52.99456
1009.97       -8.589399
1010.35       -109.8378
1010.73       -107.8672
1011.11       -51.18065
1011.49       -6.734512
1011.86        25.68444
1012.24        44.84813
1012.62        54.53288
1013.00        58.93705
1013.38        60.29954
1013.76        60.78674
1014.14        65.66671
1014.52        78.61205
1014.90        99.78568
1015.28        121.9062
1015.66        127.3057
1016.04        106.7591
1016.41        66.46174
1016.79        28.59766
1017.17        13.56875
1017.55        16.89388
1017.93        26.57636
1018.31        36.23378
1018.69        42.94432
1019.06        47.27725
1019.44        50.13053
1019.82        52.95221
1020.20        58.29147
1020.58        68.73812
1020.95        88.55878
1021.33        114.0639
1021.71        99.80592
1022.09         137.658
1022.46        148.8427
1022.84        158.2378
1023.22        171.2809
1023.60        201.9456
1023.97        498.8112
1024.35       0.2608939
1024.73        61.71978
