SpectraSmart Spectrum 2.9.0.0
--------- Device Information -----------
Spectrum Name :  反射率_0
Saving Time :  2024/04/26 00:45:27
Spectro-Module Model Name : SE2030-DUVN
Spectro-Module Serial Number : OS361AC55029948
Wavelength Start : 200
Wavelength End : 1025
Wavelength Unit : Wavelength(nm)
Spectrum Unit : Reflectance(%)
-----------Spectrum Setting ------------
Integration Time : 20ms
Average : 10
Boxcar : 0
Background removal :  enabled
linearity correction :  enabled
SC :  disabled
Intensity correction :  disabled
DWT denoise :  enabled
savitzky-golay :  disabled
FFT :  disabled
Running average :  disabled
Kalman :  disabled
High pass :  disabled
---------------BEGIN--------------------
Wavelength(nm)             Reflectance(%)
200.29               0
200.75        80.96617
201.21        76.58833
201.67        71.05931
202.13        67.49898
202.58        66.36631
203.04        67.23555
203.50        68.95811
203.96        69.60035
204.42         68.7821
204.88        67.25053
205.34        66.05359
205.80        66.33722
206.26        68.66621
206.72        74.35233
207.18        85.24847
207.64        93.33522
208.10        84.20922
208.55        69.25583
209.01        60.11922
209.47        56.85815
209.93        56.81897
210.39        59.00229
210.85        61.47066
211.31        60.39146
211.77        54.98649
212.23        46.83006
212.69        39.68784
213.14        39.41901
213.60        46.71449
214.06        59.77848
214.52        74.19722
214.98        83.20923
215.44        85.00078
215.90        81.68835
216.36        76.05853
216.81        71.96136
217.27        70.77501
217.73        71.28703
218.19        71.92095
218.65        70.62108
219.11        66.57658
219.57           59.29
220.02        50.15657
220.48        46.23449
220.94        50.70319
221.40        61.22394
221.86        69.86723
222.32        68.76409
222.77        59.54348
223.23        47.34054
223.69        37.28185
224.15         34.5704
224.61        38.58411
225.06        46.58409
225.52        55.14316
225.98        59.94891
226.44        60.06298
226.90          57.243
227.36        53.41495
227.81        51.11478
228.27        51.29579
228.73        52.89619
229.19        55.07985
229.65        56.70528
230.10        57.41625
230.56        57.66984
231.02        57.92694
231.48        58.69034
231.93        59.92885
232.39        61.43016
232.85        62.64764
233.31        62.83789
233.77        61.81955
234.22        59.76295
234.68         57.2093
235.14         55.2701
235.60        54.42107
236.05        54.51602
236.51        54.91014
236.97         54.4923
237.43        52.95892
237.88        50.51561
238.34         47.8354
238.80        47.09082
239.26        49.33669
239.71        54.07544
240.17        59.65065
240.63        63.54281
241.08        64.90646
241.54        64.34736
242.00        62.63878
242.46        60.69783
242.91        58.67903
243.37        54.78247
243.83        47.48863
244.28        46.11908
244.74        84.66467
245.20        114.5041
245.66        117.8574
246.11        119.5662
246.57        124.6138
247.03        136.9617
247.48        164.5587
247.94        129.7863
248.40        95.50319
248.85        86.87533
249.31        85.28687
249.77        86.15502
250.22        88.60673
250.68        93.31774
251.14        99.35503
251.59        100.0917
252.05        91.28636
252.51          77.139
252.96        64.76756
253.42        60.10633
253.88        61.89061
254.33        67.48409
254.79        74.64285
255.25        79.62988
255.70        81.41236
256.16         81.6966
256.62        80.33117
257.07        76.99507
257.53        72.57899
257.99        67.15079
258.44        62.25136
258.90         60.5241
259.35        60.98672
259.81        62.52022
260.27        63.16475
260.72        61.04293
261.18        56.89485
261.63        51.57221
262.09        46.72927
262.55        43.63644
263.00        42.22603
263.46        41.92357
263.91        41.78558
264.37        41.06293
264.83        39.61431
265.28        37.66243
265.74        35.83149
266.19        34.80048
266.65        34.74217
267.11        35.22349
267.56        35.69708
268.02        35.54132
268.47         34.6539
268.93        33.27615
269.38        31.70601
269.84        30.65987
270.30        30.33389
270.75        30.53303
271.21        30.91114
271.66        30.95787
272.12        30.53465
272.57        29.80433
273.03        29.05346
273.48        28.62134
273.94         28.6056
274.39        28.83903
274.85        29.09017
275.31        29.01678
275.76        28.54851
276.22        27.84056
276.67        27.09371
277.13        26.68906
277.58        26.63389
278.04        26.81716
278.49        26.98738
278.95        26.85968
279.40        26.35977
279.86        25.66343
280.31        24.89566
280.77        24.35319
281.22        24.05892
281.68         23.9372
282.13        23.89531
282.59         23.8443
283.04        23.73766
283.50        23.63875
283.95        23.49883
284.41        23.26149
284.86        22.92059
285.32        22.50082
285.77        22.10805
286.22        21.96787
286.68        22.08557
287.13        22.36639
287.59         22.6195
288.04        22.54939
288.50        22.13213
288.95        21.45897
289.41        20.72974
289.86        20.14056
290.32        19.80091
290.77        19.62994
291.22        19.60168
291.68        19.63847
292.13        19.71545
292.59         19.8606
293.04        20.07681
293.50        20.36506
293.95        20.70639
294.40        21.06048
294.86        21.39644
295.31        21.68597
295.77        21.92424
296.22        22.12336
296.68        22.28275
297.13        22.37414
297.58        22.42404
298.04        22.46655
298.49        22.56708
298.95        22.85782
299.40        23.34631
299.85        23.98145
300.31        24.67163
300.76        25.28238
301.21        25.75134
301.67        26.13374
302.12        26.40593
302.58        26.58609
303.03        26.68065
303.48        26.69922
303.94        26.75761
304.39        27.00226
304.84        27.45684
305.30        28.06674
305.75        28.66428
306.20        28.99729
306.66        29.03418
307.11        28.84323
307.57        28.59125
308.02        28.45905
308.47        28.51946
308.93        28.70584
309.38        28.94589
309.83        29.15787
310.29        29.29766
310.74        29.38659
311.19        29.42205
311.65        29.39395
312.10        29.30675
312.55        29.16649
313.00        28.97643
313.46         28.7562
313.91        28.51577
314.36        28.27468
314.82        28.09496
315.27        28.05239
315.72        28.15989
316.18        28.38822
316.63        28.65506
317.08        28.80252
317.53         28.7852
317.99        28.63191
318.44        28.43468
318.89        28.34709
319.35        28.39746
319.80        28.54552
320.25        28.68093
320.70        28.62387
321.16        28.34061
321.61        27.89901
322.06        27.42718
322.51        27.11598
322.97        27.00239
323.42        27.03707
323.87        27.12058
324.32        27.08684
324.78         26.8875
325.23        26.58293
325.68        26.24212
326.13        25.97899
326.59        25.82504
327.04        25.76036
327.49        25.74727
327.94        25.73039
328.39        25.69071
328.85         25.6376
329.30        25.61661
329.75        25.66146
330.20        25.77807
330.66        25.93148
331.11        26.09465
331.56        26.18375
332.01        26.17517
332.46        26.07427
332.92        25.92672
333.37        25.84929
333.82        25.86633
334.27        25.96791
334.72        26.06462
335.17        26.00262
335.63        25.75344
336.08        25.37294
336.53        25.01408
336.98        24.92449
337.43        25.15038
337.88        25.61395
338.34        26.11095
338.79         26.3527
339.24        26.23907
339.69        25.85939
340.14        25.39534
340.59        25.16535
341.05        25.25177
341.50         25.5528
341.95        25.92591
342.40        26.16721
342.85        26.22325
343.30        26.17063
343.75        26.05477
344.20        25.95004
344.66        25.88493
345.11        25.79617
345.56        25.71085
346.01        25.67324
346.46        25.68045
346.91        25.74476
347.36        25.76051
347.81        25.55152
348.26        25.11644
348.72        24.55065
349.17        24.02269
349.62        23.88605
350.07        24.20933
350.52        24.85946
350.97        25.63068
351.42        26.21029
351.87        26.50008
352.32        26.58247
352.77        26.50536
353.22        26.35373
353.67        26.17131
354.13         25.9335
354.58        25.67488
355.03        25.49324
355.48        25.40958
355.93        25.42523
356.38        25.46833
356.83         25.4073
357.28         25.2145
357.73        24.92352
358.18         24.6257
358.63        24.46605
359.08         24.4734
359.53        24.60285
359.98        24.74426
360.43        24.72903
360.88        24.52269
361.33        24.17495
361.78        23.80809
362.23        23.62042
362.68        23.64925
363.13        23.81933
363.58        23.99775
364.03        23.97923
364.48         23.7196
364.93        23.29927
365.38        22.81701
365.83        22.42756
366.28        22.18631
366.73        22.04627
367.18        21.99235
367.63        21.99967
368.08         22.0434
368.53        22.13113
368.98        22.21868
369.43         22.2305
369.88        22.15538
370.33         22.0126
370.78        21.84315
371.23        21.72682
371.68        21.68616
372.13        21.68761
372.58        21.72811
373.03        21.79977
373.48        21.88334
373.93         21.9826
374.38        22.03161
374.83         21.9264
375.28        21.65959
375.72        21.25707
376.17        20.84963
376.62         20.6115
377.07        20.58786
377.52         20.7226
377.97        20.92525
378.42        21.04553
378.87        21.03547
379.32        20.94121
379.77        20.79838
380.22         20.6573
380.67        20.53583
381.11        20.41557
381.56        20.29334
382.01        20.17778
382.46        20.07187
382.91        19.98078
383.36        19.90521
383.81        19.83961
384.26        19.78142
384.71        19.73175
385.15         19.6755
385.60        19.60486
386.05        19.50996
386.50        19.38836
386.95        19.26025
387.40        19.16427
387.85        19.11377
388.29        19.09718
388.74         19.0917
389.19        19.03374
389.64        18.91419
390.09        18.74017
390.54        18.57176
390.98        18.50887
391.43        18.57638
391.88        18.73207
392.33        18.87489
392.78         18.8563
393.23        18.66495
393.67        18.35222
394.12        18.05352
394.57        17.89403
395.02        17.90029
395.47        18.02539
395.91        18.20813
396.36        18.31326
396.81        18.30238
397.26        18.20388
397.71        18.06762
398.15        17.94975
398.60        17.89283
399.05        17.87973
399.50        17.86603
399.95        17.74084
400.39        17.57389
400.84        17.33341
401.29        17.11958
401.74        17.07622
402.18        17.24306
402.63        17.54929
403.08         17.8854
403.53        18.07429
403.97        18.07029
404.42        17.92685
404.87        17.71198
405.32        17.54685
405.76        17.47253
406.21        17.45487
406.66         17.4759
407.11        17.51808
407.55        17.57408
408.00        17.64911
408.45        17.71692
408.90        17.71292
409.34        17.62464
409.79        17.47432
410.24        17.31955
410.68        17.24208
411.13        17.26275
411.58        17.36093
412.03        17.49719
412.47        17.60207
412.92        17.63814
413.37        17.62508
413.81        17.59416
414.26        17.61177
414.71        17.68051
415.15        17.77821
415.60        17.84814
416.05        17.82116
416.49        17.68551
416.94        17.48306
417.39        17.25904
417.83        17.08967
418.28        17.00947
418.73        16.98536
419.17        17.02003
419.62        17.10933
420.07        17.23981
420.51        17.41417
420.96         17.5616
421.41        17.55986
421.85        17.38928
422.30        17.11441
422.74         16.8351
423.19        16.73293
423.64        16.82395
424.08        17.06466
424.53        17.35345
424.98        17.53962
425.42        17.57633
425.87        17.49637
426.31        17.35303
426.76        17.28155
427.21        17.28926
427.65        17.22362
428.10        17.14826
428.54        17.28628
428.99        17.64431
429.44        18.08845
429.88        18.44695
430.33        18.59687
430.77        18.45724
431.22        17.90372
431.66        17.20476
432.11        16.99464
432.56        17.32053
433.00        17.83724
433.45        18.30342
433.89        18.62752
434.34        18.65309
434.78        18.17792
435.23        17.53424
435.67        17.42353
436.12        17.79698
436.57        17.97218
437.01        17.86609
437.46         17.8112
437.90        17.83132
438.35        17.83369
438.79        17.80416
439.24        17.76989
439.68        17.74422
440.13        17.64762
440.57        17.54207
441.02        17.76018
441.46        18.17072
441.91        18.13127
442.35        17.70856
442.80        17.51372
443.24        17.53453
443.69        17.58648
444.13        17.60216
444.58        17.41385
445.02        17.09736
445.47        17.06647
445.91        17.27252
446.36        17.30807
446.80        17.14944
447.24        17.03245
447.69        16.99237
448.13        16.96917
448.58        16.97423
449.02        17.01705
449.47        17.07067
449.91        17.09085
450.36        17.06964
450.80        17.01194
451.25        16.95026
451.69        16.92401
452.13        16.94534
452.58        16.99203
453.02         17.0402
453.47        17.05071
453.91        17.01831
454.36        16.96292
454.80        16.89678
455.24        16.83729
455.69        16.80275
456.13        16.77853
456.58        16.79439
457.02        16.86986
457.46        17.00854
457.91         17.1906
458.35        17.36846
458.79        17.46209
459.24        17.46366
459.68        17.38276
460.13        17.27744
460.57        17.19644
461.01        17.17649
461.46        17.20162
461.90        17.25371
462.34          17.295
462.79        17.31116
463.23        17.30501
463.68        17.31734
464.12        17.41556
464.56        17.60323
465.01        17.86353
465.45         18.0721
465.89          18.116
466.34        17.99572
466.78        17.65217
467.22        17.26108
467.67        17.27836
468.11        17.66363
468.55         17.8812
468.99        17.85072
469.44         17.8035
469.88        17.79086
470.32        17.88485
470.77        18.04256
471.21         18.0631
471.65        17.93244
472.10         17.8215
472.54        17.76606
472.98        17.76421
473.42        17.82934
473.87        17.96862
474.31        18.13674
474.75        18.25638
475.20        18.31314
475.64        18.31599
476.08         18.3051
476.52        18.34329
476.97        18.44591
477.41        18.59708
477.85        18.74838
478.29         18.8587
478.74        18.91818
479.18        18.84707
479.62        18.70617
480.06        18.90337
480.50         19.0629
480.95        19.23153
481.39        19.23871
481.83        19.21239
482.27        19.14983
482.72        18.91106
483.16        18.61672
483.60        18.67152
484.04        19.09352
484.48        19.39355
484.93        19.73315
485.37        20.15055
485.81        20.58971
486.25        20.78035
486.69        28.68185
487.14        22.94443
487.58        14.47141
488.02        17.63855
488.46        20.10132
488.90        19.95796
489.34        20.10562
489.79        19.89698
490.23        20.96762
490.67        21.46288
491.11         21.1912
491.55         21.1037
491.99        21.12837
492.43        21.01378
492.88        20.82331
493.32        20.84256
493.76        20.93692
494.20        21.15001
494.64        21.41204
495.08        21.73405
495.52        22.08185
495.96        22.36963
496.41        22.54672
496.85         22.7241
497.29        22.87387
497.73        22.58737
498.17        22.15001
498.61        22.27749
499.05        22.97662
499.49        23.07601
499.93        23.13362
500.37        23.24131
500.82        23.32234
501.26        23.56101
501.70        23.83345
502.14        23.95681
502.58        23.92111
503.02        23.93959
503.46        24.02469
503.90        24.04256
504.34        24.01054
504.78        24.01969
505.22        24.07985
505.66        24.17328
506.10        24.27018
506.54         24.3182
506.98        24.30861
507.42        24.26151
507.86         24.2259
508.30        24.27682
508.74        24.42373
509.18         24.6333
509.62        24.85266
510.06        24.99488
510.50         25.0379
510.94        25.01927
511.38         24.9594
511.82        24.88976
512.26        24.82987
512.70        24.76467
513.14         24.7373
513.58         24.8198
514.02        25.00557
514.46        25.26384
514.90         25.5024
515.34        25.54061
515.78        25.32247
516.22         25.0536
516.66        24.83911
517.10        24.42424
517.54        23.85028
517.98        24.62473
518.42        24.48736
518.86        24.87043
519.30        25.07436
519.74        25.31735
520.18        25.53913
520.62        25.61354
521.06        25.54964
521.50        25.36055
521.93         25.1183
522.37        24.95588
522.81        24.91096
523.25        24.95114
523.69        25.04069
524.13        25.11958
524.57        25.16534
525.01        25.19617
525.45         25.2121
525.89        25.21095
526.32        25.19115
526.76        25.14821
527.20        25.08552
527.64        25.02202
528.08        24.96778
528.52        24.89791
528.96        24.80634
529.40        24.75033
529.83        24.74528
530.27        24.52792
530.71        24.57835
531.15        24.49682
531.59        24.43066
532.03        24.36695
532.46        24.34298
532.90        24.41569
533.34        24.57679
533.78        24.79934
534.22        25.00866
534.66        25.09745
535.09        25.04031
535.53         24.8808
535.97        24.67503
536.41        24.51987
536.85        24.44965
537.28        24.44369
537.72        24.47952
538.16        24.52052
538.60        24.55434
539.04         24.5746
539.47        24.59821
539.91        24.71181
540.35         24.8905
540.79        25.01793
541.22        25.07888
541.66        25.15248
542.10        25.23518
542.54        25.26883
542.97        25.28338
543.41        25.36853
543.85        25.53125
544.29        25.75848
544.72         25.9846
545.16        26.11683
545.60        26.13746
546.04        26.07199
546.47        26.01823
546.91        26.14201
547.35        26.45909
547.79        26.91736
548.22        27.37537
548.66        27.59167
549.10        27.53438
549.53        27.32238
549.97        27.09456
550.41         26.9968
550.84        27.08221
551.28        27.31861
551.72        27.64617
552.15        27.95055
552.59        28.18435
553.03        28.37769
553.46        28.52855
553.90        28.65852
554.34        28.77973
554.77        28.84909
555.21        28.87377
555.65        28.95854
556.08        29.12547
556.52         28.9971
556.96        29.24345
557.39        29.30141
557.83        29.37968
558.27        29.45693
558.70        29.55695
559.14        29.70008
559.57        29.87263
560.01        30.07572
560.45        30.25795
560.88         30.3391
561.32        30.33104
561.75        30.24584
562.19        30.15637
562.63        30.13284
563.06        30.18965
563.50        30.31011
563.93        30.46787
564.37         30.6286
564.80         30.7641
565.24        30.90944
565.68        31.04917
566.11        31.08159
566.55        31.15726
566.98        31.17813
567.42        31.22578
567.85        31.35711
568.29        31.60656
568.72        31.86818
569.16        32.16735
569.60           32.62
570.03        33.06104
570.47        33.19264
570.90        33.17584
571.34        32.70064
571.77        33.31216
572.21         33.5006
572.64         33.7187
573.08        33.14146
573.51        32.01143
573.95        33.37482
574.38        35.59077
574.82        35.00903
575.25        34.61015
575.69        33.51706
576.12        32.82004
576.56        32.28672
576.99        33.24002
577.42        34.96141
577.86         34.9286
578.29        34.88268
578.73        36.89875
579.16        33.85624
579.60        30.65858
580.03        31.84694
580.47        33.94454
580.90        34.65624
581.33         33.9689
581.77        33.64523
582.20        37.12426
582.64         37.4001
583.07        31.52595
583.51        30.65219
583.94        29.70638
584.37        30.71518
584.81        32.16693
585.24        33.92894
585.68        34.86416
586.11        34.32631
586.54        32.03844
586.98        30.79867
587.41        30.97899
587.85        32.35483
588.28        33.69941
588.71        32.13353
589.15         30.8534
589.58         31.5189
590.01        31.59416
590.45        32.24407
590.88        32.22929
591.31        31.76712
591.75        31.52061
592.18        31.63171
592.61        32.49501
593.05        32.99857
593.48        34.81843
593.91        34.77848
594.35        32.22356
594.78        31.63822
595.21        31.65038
595.65        33.16774
596.08        34.43518
596.51        32.99926
596.94        32.11358
597.38        32.52331
597.81        34.07564
598.24        35.04368
598.68        34.52081
599.11        34.63343
599.54        36.28164
599.97         37.3336
600.41        35.18238
600.84        35.49942
601.27        36.37524
601.70        36.11775
602.14        36.27789
602.57        35.96547
603.00        36.40121
603.43        38.22382
603.87        39.26226
604.30        39.55595
604.73          38.683
605.16        38.21638
605.60        38.77829
606.03        39.77603
606.46        40.99941
606.89        40.84102
607.32        40.27425
607.76         40.4132
608.19        41.99654
608.62        41.61731
609.05        41.06451
609.48        41.55544
609.92        41.73341
610.35        41.92445
610.78         43.6906
611.21        44.44043
611.64        42.76434
612.07        43.41418
612.50        43.84497
612.94        44.33655
613.37        44.24762
613.80        44.50616
614.23        45.12058
614.66        45.25676
615.09        45.57836
615.52        45.79828
615.96        45.97804
616.39        46.40854
616.82         45.7979
617.25        45.94458
617.68        46.53379
618.11        47.11055
618.54        47.47251
618.97        47.25198
619.40        46.76417
619.84        46.59419
620.27        47.57565
620.70        48.13374
621.13        48.35395
621.56        48.01497
621.99         47.3787
622.42        47.97316
622.85        49.43135
623.28         49.4719
623.71        49.03801
624.14        49.08356
624.57        48.60741
625.00        48.44442
625.43        48.56544
625.86        48.13969
626.29        48.14422
626.72        48.50145
627.15        48.23077
627.58        48.26542
628.01        48.16096
628.44        48.30716
628.87        47.93174
629.30        47.84716
629.73        47.71571
630.16        47.92093
630.59         47.1635
631.02        46.70477
631.45        46.26953
631.88        45.86996
632.31        45.50946
632.74        45.48163
633.17        45.26684
633.60        45.06223
634.03        44.72432
634.46        44.44593
634.89        44.21249
635.32        43.85947
635.75        43.40943
636.18        43.00378
636.61        42.66327
637.04        42.32537
637.47        41.99073
637.89        41.70163
638.32        41.43565
638.75        41.15745
639.18        40.86395
639.61        40.58419
640.04        40.31455
640.47        40.02106
640.90        39.72052
641.33        39.46744
641.76        39.26853
642.18        39.14552
642.61        39.10064
643.04        39.05263
643.47        38.95437
643.90        39.21951
644.33        39.02663
644.76        39.04986
645.18        39.04497
645.61        39.02415
646.04        38.98675
646.47        38.93139
646.90        38.93421
647.33        39.08764
647.75        39.41647
648.18        39.91465
648.61        40.43507
649.04         40.7378
649.47         40.7863
649.89        40.58463
650.32        40.38178
650.75          40.653
651.18        41.38837
651.61        42.16922
652.03        42.77704
652.46        43.12492
652.89        43.43525
653.32        43.50028
653.74        43.57413
654.17        44.84499
654.60        45.62414
655.03        44.16716
655.46        45.30312
655.88         48.3814
656.31        52.96869
656.74        128.7387
657.16        84.54233
657.59        29.25503
658.02        21.25054
658.45        36.14729
658.87        46.52376
659.30        49.18247
659.73        49.06421
660.15        46.97508
660.58         49.3833
661.01        50.72467
661.44        49.24795
661.86        48.93415
662.29        49.22417
662.72        50.05896
663.14        51.21257
663.57        51.36153
664.00        50.69997
664.42        50.70681
664.85        51.43383
665.27        52.08848
665.70        52.13428
666.13        52.17912
666.55        52.10357
666.98        51.83284
667.41        51.51066
667.83        51.42196
668.26         51.6306
668.69        52.02116
669.11        52.44913
669.54         52.8948
669.96        52.79742
670.39        52.74519
670.82        52.67777
671.24        52.48939
671.67        52.37763
672.09        52.87406
672.52        53.70121
672.94        54.29078
673.37        53.68476
673.80        53.48843
674.22        53.54217
674.65        53.59934
675.07         53.6672
675.50        53.77541
675.92        53.90882
676.35         54.0663
676.77        54.24015
677.20        54.37279
677.62         54.4906
678.05        54.63815
678.47        54.81132
678.90        55.03668
679.32        55.23374
679.75        55.34414
680.17        55.55693
680.60        55.70499
681.02        55.81998
681.45        55.82061
681.87        55.71752
682.30        55.55609
682.72        55.42769
683.15        55.44947
683.57        55.69214
684.00        56.11083
684.42        56.78637
684.85        57.18725
685.27        57.30223
685.70        57.27556
686.12         57.1749
686.54          57.127
686.97        57.16974
687.39         57.2426
687.82        57.31371
688.24        57.47265
688.66         57.6523
689.09        57.65238
689.51        57.54141
689.94        57.60714
690.36        57.86353
690.78        58.13531
691.21        58.38015
691.63        58.56355
692.06        58.65139
692.48        58.91544
692.90        58.88394
693.33        59.00536
693.75        59.14716
694.17        59.31485
694.60        59.47513
695.02        59.58155
695.44         59.6181
695.87        59.64681
696.29        59.92235
696.71        59.81402
697.14        59.60876
697.56        60.21103
697.98        61.26503
698.41        61.90054
698.83        60.86577
699.25        60.49591
699.68        60.53399
700.10        60.47109
700.52        60.33982
700.94        60.47038
701.37         60.8342
701.79        61.24423
702.21        61.62013
702.64        62.01096
703.06        62.30472
703.48        62.32295
703.90        62.06388
704.33        61.55706
704.75        61.04858
705.17         60.8169
705.59        60.97178
706.01        61.39538
706.44        61.80303
706.86        62.59499
707.28        62.80655
707.70        63.17368
708.12        63.41762
708.55        63.41732
708.97        63.21389
709.39        63.02908
709.81        62.95388
710.23        62.94618
710.66        63.03843
711.08         63.3446
711.50        63.72377
711.92        63.89857
712.34        63.82227
712.76        63.55294
713.19        63.24632
713.61        63.22277
714.03        63.53968
714.45        63.94105
714.87        64.50801
715.29        64.69184
715.71        64.50941
716.13        64.07829
716.56        63.59583
716.98        63.36287
717.40        63.47664
717.82        63.91823
718.24        64.51336
718.66        64.88992
719.08        64.95563
719.50        64.84942
719.92        64.66896
720.34        64.56749
720.76        64.60191
721.19        64.60107
721.61        64.74363
722.03         64.9007
722.45        65.09658
722.87        65.27097
723.29        65.41497
723.71        65.56241
724.13        65.70483
724.55        65.80147
724.97        65.86148
725.39        65.92903
725.81        66.01025
726.23        66.09237
726.65        66.16915
727.07        66.22797
727.49        66.27277
727.91        66.32338
728.33        66.38148
728.75        66.44704
729.17        66.51856
729.59        66.58155
730.01        66.67358
730.43        66.84624
730.85        67.10515
731.27         67.4613
731.69        67.79853
732.10        67.90807
732.52        67.75317
732.94        67.43378
733.36        67.15653
733.78        67.11449
734.20        67.35722
734.62        68.14392
735.04        69.17825
735.46        69.20325
735.88        68.45264
736.30        68.69193
736.72        69.88758
737.13        70.33879
737.55        69.80111
737.97        69.66643
738.39        69.96278
738.81        69.16609
739.23        67.79543
739.65        68.69289
740.06        71.28804
740.48        71.69083
740.90        69.93746
741.32        69.03535
741.74        69.32319
742.16        69.51096
742.57        69.67852
742.99        70.54762
743.41        71.81185
743.83        72.54472
744.25        72.57261
744.67        72.13909
745.08        71.55022
745.50        71.31098
745.92        71.57183
746.34        72.14838
746.75        72.82817
747.17        73.26131
747.59        73.37415
748.01        73.29267
748.42        73.17807
748.84        73.31026
749.26        73.76773
749.68         74.2802
750.09         74.7649
750.51        75.44871
750.93        76.11391
751.35        75.95686
751.76        75.16529
752.18         74.8909
752.60        75.13999
753.01        75.05186
753.43        74.68833
753.85        74.72156
754.27        75.20601
754.68        75.94968
755.10        76.73177
755.52        77.22803
755.93        77.36619
756.35        77.37194
756.77        77.48321
757.18        77.61303
757.60         77.7863
758.02        78.79327
758.43        80.03152
758.85        79.04995
759.26         76.6348
759.68        76.22343
760.10        77.68497
760.51        79.30083
760.93        78.80673
761.34        77.77595
761.76         77.0173
762.18        76.18413
762.59        75.85307
763.01         76.0877
763.42        76.88137
763.84        77.57962
764.26        78.04256
764.67        78.51247
765.09        78.86179
765.50        78.78049
765.92        78.24125
766.33        77.17241
766.75         75.9604
767.16        75.19534
767.58        75.21104
768.00        76.58488
768.41        79.00218
768.83        80.78988
769.24        81.22276
769.66        80.67854
770.07         79.5673
770.49         77.6969
770.90        75.79733
771.32        76.71095
771.73        79.66272
772.15        79.43606
772.56        76.41496
772.97         75.6458
773.39        77.14356
773.80        77.74635
774.22        77.22813
774.63        77.28139
775.05        77.81436
775.46          78.095
775.88        78.01379
776.29        77.69473
776.70        77.28675
777.12        77.14047
777.53        77.33612
777.95        77.70159
778.36         78.0566
778.77        78.09771
779.19        77.80718
779.60        77.30201
780.02        76.79977
780.43         76.7654
780.84        77.34788
781.26        77.81618
781.67         78.1536
782.09         79.6325
782.50        81.51696
782.91        80.52569
783.33        77.50397
783.74        76.52219
784.15        77.78707
784.57        78.84284
784.98        79.21443
785.39        79.12698
785.81         78.5831
786.22        77.96184
786.63        77.56854
787.04        77.44189
787.46        77.70992
787.87        78.61728
788.28        79.81245
788.70        80.76664
789.11        80.51676
789.52        80.19836
789.93        79.76657
790.35        79.12244
790.76        78.44771
791.17        78.45562
791.58        79.09332
792.00        79.17863
792.41        78.52158
792.82        79.40699
793.23        79.10321
793.65        78.98609
794.06        78.62607
794.47        79.92674
794.88        81.94848
795.29        82.53411
795.71        79.54527
796.12         77.4802
796.53        76.32723
796.94        75.84637
797.35        76.15222
797.76        77.27432
798.18        78.65319
798.59        79.51286
799.00        79.50743
799.41        78.65981
799.82        77.43498
800.23        76.76098
800.64        76.84169
801.06         77.2978
801.47        77.96864
801.88        78.49162
802.29        78.71411
802.70         78.7803
803.11        78.71392
803.52        78.52376
803.93        78.27205
804.34          77.937
804.75         77.6402
805.17         77.7096
805.58        78.23949
805.99        78.75735
806.40        79.13214
806.81        80.05826
807.22        80.99799
807.63        79.93724
808.04        77.48667
808.45        76.38506
808.86        76.87994
809.27        77.58456
809.68        78.15079
810.09        78.55292
810.50         78.6228
810.91        78.41203
811.32        78.06989
811.73        77.82866
812.14        77.75774
812.55         77.7388
812.96        77.81029
813.37        78.03918
813.78        78.40398
814.19        78.93254
814.60        79.35011
815.01        79.22358
815.42        78.50257
815.83        77.28077
816.24        76.03427
816.65        75.59971
817.05        76.22552
817.46        77.64507
817.87        79.25361
818.28         79.9623
818.69        79.47657
819.10        78.07357
819.51        76.44534
819.92        75.76376
820.33        76.32839
820.74        77.77316
821.14        79.42622
821.55        80.09766
821.96        79.53038
822.37        78.14436
822.78        76.54672
823.19        75.62782
823.60        75.63139
824.00        76.32498
824.41        77.31432
824.82        78.03672
825.23        78.24048
825.64        78.12901
826.04        77.85898
826.45        77.64822
826.86        77.56725
827.27        77.49187
827.68        77.41721
828.08        77.40066
828.49        77.38086
828.90        77.43452
829.31        77.46722
829.72        77.28288
830.12        76.89077
830.53        76.34921
830.94        75.90023
831.35        75.86652
831.75        76.34498
832.16        77.17701
832.57        78.18782
832.97        78.98568
833.38        79.34457
833.79        79.35446
834.20        79.16537
834.60        79.02059
835.01        79.01662
835.42        79.06416
835.82        79.06077
836.23        78.76414
836.64         78.1879
837.04        77.47297
837.45        76.80726
837.86        76.47268
838.26        76.54694
838.67        76.89761
839.08        77.43676
839.48        77.98454
839.89         78.4052
840.29        78.74296
840.70        78.90753
841.11        78.75795
841.51        78.30801
841.92         77.5747
842.33        76.79911
842.73        76.39804
843.14         76.4412
843.54         76.8745
843.95        77.40858
844.35        77.61013
844.76        77.35381
845.17        76.79078
845.57        76.17518
845.98        75.90083
846.38        76.06248
846.79        76.51221
847.19        77.07664
847.60        77.36525
848.00        77.30165
848.41        76.98098
848.81        76.61097
849.22        76.42154
849.62        76.53242
850.03        76.88554
850.43        77.39255
850.84        77.80376
851.24        78.07216
851.65        78.07066
852.05         78.1074
852.46        78.50855
852.86        79.31893
853.27        80.45106
853.67        81.21379
854.07        80.68376
854.48        78.85795
854.88        76.08221
855.29        73.38493
855.69        72.25332
856.10        72.99042
856.50        75.38049
856.90         78.5427
857.31        80.43076
857.71        80.36375
858.12        78.87128
858.52        76.89953
858.92        75.70184
859.33        75.55927
859.73        76.12003
860.13        77.11729
860.54        78.00562
860.94        78.60228
861.34        79.04734
861.75         79.3721
862.15        79.70175
862.55        80.02791
862.96        80.24731
863.36        80.35341
863.76        80.32935
864.17        80.19636
864.57        80.06784
864.97        79.99044
865.38        80.00642
865.78        80.17738
866.18        80.39476
866.58        80.72897
866.99        81.28574
867.39        82.10482
867.79        83.18087
868.19        84.10127
868.60        84.10033
869.00        83.04539
869.40         81.1748
869.80        79.37694
870.21        79.05008
870.61        80.58669
871.01        83.54911
871.41        86.97784
871.81        89.20748
872.22        89.72466
872.62        89.00232
873.02        87.74404
873.42        87.19722
873.82         87.5586
874.22        88.19022
874.63        88.81473
875.03        89.00745
875.43        88.52714
875.83        88.30522
876.23        87.16715
876.63        86.74149
877.03        86.96529
877.44        87.99611
877.84        102.9925
878.24        93.48897
878.64        93.77995
879.04        93.69063
879.44        90.61869
879.84         89.1708
880.24        92.26543
880.64        94.01895
881.04        95.03099
881.44        95.49875
881.84        94.88663
882.24        93.48231
882.65        92.14032
883.05        91.71756
883.45        92.36179
883.85        93.97797
884.25        95.98756
884.65        97.17503
885.05        97.14005
885.45        96.30137
885.85        95.17502
886.25        94.46076
886.65        94.33868
887.05        94.55473
887.45        94.97731
887.85        95.39143
888.25        95.68024
888.65        95.96474
889.04        96.13961
889.44        96.05958
889.84        95.71243
890.24        95.10662
890.64          94.506
891.04        94.34389
891.44        94.67472
891.84         95.3756
892.24        96.10445
892.64        96.22517
893.04        95.65195
893.44        94.72593
893.83        93.78893
894.23        93.33218
894.63        93.45203
895.03        93.88733
895.43        94.73815
895.83        96.16035
896.23        98.01655
896.63        100.2427
897.02        101.9962
897.42        101.9133
897.82        99.85973
898.22        96.36613
898.62        92.73333
899.01        90.87938
899.41        91.21732
899.81        93.09804
900.21        95.63991
900.61        97.38815
901.00        97.87112
901.40        97.55884
901.80        96.79077
902.20         96.0864
902.59        95.65229
902.99        95.25669
903.39        94.92599
903.79        94.76727
904.18        94.78923
904.58         95.0716
904.98        95.48958
905.38        95.79768
905.77        95.91624
906.17        95.87878
906.57        95.79171
906.96        95.88324
907.36         96.1244
907.76        96.44601
908.15        96.67684
908.55        96.43283
908.95        95.70524
909.34        94.60663
909.74         93.4819
910.14         92.6779
910.53        92.33798
910.93         92.4272
911.33        92.85175
911.72        93.44526
912.12        94.01484
912.52        94.49804
912.91         94.9631
913.31        95.53789
913.70        96.29639
914.10        97.23225
914.49        97.96507
914.89        97.54554
915.29        95.83805
915.68        93.24788
916.08        90.99372
916.47        90.19472
916.87        90.92271
917.26         92.8305
917.66        94.95133
918.05        95.69662
918.45        94.66965
918.84        92.42728
919.24         90.0282
919.64        89.02875
920.03        89.83252
920.42        91.95809
920.82        94.60781
921.21        96.49798
921.61        97.00249
922.00        96.56333
922.40        95.58368
922.79        94.61125
923.19        93.89049
923.58        93.17736
923.98         92.3834
924.37        91.68816
924.77        91.35389
925.16        89.62913
925.55        90.19649
925.95         90.7431
926.34        92.32664
926.74        94.42923
927.13        96.49698
927.52        97.36462
927.92        96.87786
928.31        95.43992
928.70        93.47599
929.10        91.73177
929.49        90.44895
929.89        89.44567
930.28        89.03586
930.67        89.74185
931.07        91.43165
931.46        94.01271
931.85        96.47221
932.24        97.27744
932.64        96.14764
933.03        93.35744
933.42        89.77618
933.82        87.37601
934.21        86.77959
934.60         87.4704
934.99        88.60286
935.39        89.25811
935.78        89.27838
936.17        88.65192
936.56         87.2793
936.96        87.88812
937.35        86.93918
937.74        87.22482
938.13        87.59066
938.53        88.29015
938.92        89.34579
939.31        90.85225
939.70        92.41437
940.09        92.84583
940.49        91.83486
940.88        89.91924
941.27        87.97421
941.66        87.03175
942.05        87.22517
942.44        88.19254
942.84        89.63889
943.23        91.12782
943.62        92.29893
944.01        93.21694
944.40        93.70962
944.79        93.51807
945.18        92.58389
945.57        90.86295
945.97        88.55484
946.36        86.46134
946.75        85.19878
947.14        84.73672
947.53        84.87375
947.92        85.29202
948.31        85.88983
948.70        86.78197
949.09        87.87492
949.48        88.83958
949.87        89.45225
950.26         89.6379
950.65        89.55881
951.04        89.57402
951.43        89.76806
951.82        90.04826
952.21        90.16059
952.60        89.71695
952.99        88.67438
953.38        87.19839
953.77        85.70844
954.16         84.7808
954.55        84.51902
954.94        84.80348
955.33        85.15542
955.72        84.75601
956.11        83.43754
956.50        81.44989
956.89        79.49072
957.28        78.83669
957.66        79.94325
958.05        82.20609
958.44        84.86412
958.83        86.78346
959.22        87.60171
959.61        87.53379
960.00        86.91667
960.39        86.31152
960.78        85.91265
961.16        85.61968
961.55        85.08952
961.94        83.82146
962.33        81.86362
962.72        79.57488
963.11        77.67445
963.49        77.04335
963.88        77.79199
964.27        79.74495
964.66        82.21796
965.04        83.67857
965.43         83.4314
965.82        81.97295
966.21        80.21761
966.60        79.39477
966.98        79.74435
967.37        80.83134
967.76        82.14143
968.15        82.69688
968.53        82.19816
968.92         81.0252
969.31         79.6648
969.69        78.69293
970.08        78.26198
970.47        78.19401
970.86        78.29456
971.24        78.25253
971.63        77.96506
972.02        77.55172
972.40        77.24337
972.79        77.39297
973.17        78.18758
973.56        79.37644
973.95        80.66454
974.33        81.45782
974.72        81.44849
975.11        80.77711
975.49        79.86266
975.88        79.37411
976.26        79.40613
976.65        79.83434
977.04        80.15878
977.42        79.26997
977.81        76.97317
978.19        73.85265
978.58        71.38097
978.96        70.92302
979.35        72.62823
979.74        76.22803
980.12        80.97547
980.51        84.01703
980.89        84.44853
981.28        82.92197
981.66        80.61102
982.05        79.04209
982.43        78.53221
982.82        78.60803
983.20        79.15884
983.59        80.12068
983.97        81.48552
984.35        83.35801
984.74        85.32529
985.12        86.66907
985.51        86.75436
985.89        85.63309
986.28        83.53282
986.66        80.83904
987.04        78.21914
987.43        75.92158
987.81        74.13757
988.20        72.91648
988.58        72.11471
988.96         71.5843
989.35        71.75312
989.73        73.63045
990.12        76.97124
990.50        80.90327
990.88         83.4611
991.27        83.59368
991.65        81.83243
992.03        78.47629
992.42        74.92336
992.80        73.59729
993.18        75.15318
993.56        78.15173
993.95        81.30481
994.33        83.60432
994.71        84.72417
995.10        85.32011
995.48        85.13593
995.86        83.54288
996.24        80.48286
996.63        75.72916
997.01         70.5281
997.39        68.63242
997.77        71.57521
998.15        78.35864
998.54        85.60494
998.92        88.73772
999.30        86.41385
999.68        79.94895
1000.06        70.82432
1000.45        63.05703
1000.83         58.7864
1001.21        56.90735
1001.59         57.3305
1001.97        60.09503
1002.35        65.00464
1002.73        73.05105
1003.12        82.27916
1003.50        85.59264
1003.88        79.73472
1004.26        67.90775
1004.64        56.35855
1005.02         50.5808
1005.40        50.99111
1005.78        56.91853
1006.16         69.2524
1006.54         82.2248
1006.92        87.72107
1007.30        87.61079
1007.69        85.31837
1008.07        83.24689
1008.45        81.34837
1008.83        77.32897
1009.21        67.44295
1009.59        43.48347
1009.97       -3.400982
1010.35       -37.97515
1010.73       -5.724986
1011.11         21.5612
1011.49        32.78141
1011.86        39.93999
1012.24        44.16388
1012.62        48.11242
1013.00        52.93579
1013.38        58.94387
1013.76        67.47015
1014.14        79.51712
1014.52        94.36182
1014.90        111.0379
1015.28        124.8661
1015.66        128.4142
1016.04        117.6018
1016.41        93.85587
1016.79        67.82072
1017.17        50.23436
1017.55        42.66935
1017.93        40.68744
1018.31        41.77008
1018.69        45.01048
1019.06        50.36729
1019.44        58.48709
1019.82        71.08717
1020.20        87.27242
1020.58        104.4963
1020.95        120.7835
1021.33         130.713
1021.71        51.59725
1022.09        114.9105
1022.46        120.5573
1022.84        125.0424
1023.22        134.0456
1023.60        158.5295
1023.97        397.4383
1024.35       -6.981346
1024.73        38.98337
