SpectraSmart Spectrum 2.9.0.0
--------- Device Information -----------
Spectrum Name :  反射率_0
Saving Time :  2024/04/26 00:18:21
Spectro-Module Model Name : SE2030-DUVN
Spectro-Module Serial Number : OS361AC55029948
Wavelength Start : 200
Wavelength End : 1025
Wavelength Unit : Wavelength(nm)
Spectrum Unit : Reflectance(%)
-----------Spectrum Setting ------------
Integration Time : 20ms
Average : 10
Boxcar : 0
Background removal :  enabled
linearity correction :  enabled
SC :  disabled
Intensity correction :  disabled
DWT denoise :  enabled
savitzky-golay :  disabled
FFT :  disabled
Running average :  disabled
Kalman :  disabled
High pass :  disabled
---------------BEGIN--------------------
Wavelength(nm)             Reflectance(%)
200.29               0
200.75        90.78798
201.21        81.35062
201.67        70.17113
202.13        62.13731
202.58        57.96101
203.04        56.63791
203.50        57.75836
203.96        60.40768
204.42        63.53631
204.88        66.96488
205.34        69.90727
205.80         71.7899
206.26         72.8101
206.72        72.91676
207.18        71.20668
207.64         67.2766
208.10        64.18463
208.55        63.22783
209.01        63.45552
209.47        64.11319
209.93         65.0065
210.39        66.69222
210.85        68.06653
211.31        66.69791
211.77         62.2681
212.23        55.64956
212.69        49.88965
213.14        49.87857
213.60        56.06028
214.06        67.09924
214.52        79.02335
214.98        85.68203
215.44        85.60106
215.90        80.76079
216.36        74.11215
216.81        69.78135
217.27        68.97994
217.73        70.24242
218.19        71.51914
218.65        70.11223
219.11        64.94779
219.57        55.39317
220.02        42.64293
220.48        34.51312
220.94         35.5311
221.40        43.99627
221.86        52.15537
222.32        51.74636
222.77         43.8797
223.23        33.25211
223.69        24.74143
224.15        23.31157
224.61        28.28386
225.06        37.00538
225.52        45.83437
225.98        50.16202
226.44           49.14
226.90        44.77067
227.36        39.46289
227.81        36.44451
228.27        36.76753
228.73        39.09897
229.19        42.34732
229.65        44.95204
230.10        46.35251
230.56        47.05765
231.02        47.44246
231.48        47.87245
231.93        48.40834
232.39        48.93631
232.85        49.16933
233.31        48.75587
233.77         47.6446
234.22        45.92672
234.68        44.10782
235.14        43.12425
235.60          43.276
236.05        44.33847
236.51        45.60482
236.97        45.97017
237.43         45.1566
237.88        43.36819
238.34        41.06957
238.80        39.89278
239.26        40.71554
239.71        43.19304
240.17        46.43089
240.63        49.17504
241.08        50.91973
241.54        51.94456
242.00        52.27568
242.46        51.84337
242.91        50.48228
243.37        46.46601
243.83        36.79398
244.28        24.74907
244.74        46.93641
245.20        79.88598
245.66        88.17722
246.11        89.42323
246.57        88.63368
247.03        83.98232
247.48        60.74565
247.94        40.74625
248.40        57.77774
248.85        66.33389
249.31        70.61149
249.77        73.41946
250.22        76.08173
250.68        79.67807
251.14        83.61528
251.59         83.1981
252.05         75.9361
252.51        65.27333
252.96        55.94096
253.42        51.76813
253.88        51.85494
254.33        54.48695
254.79         59.3743
255.25        65.33975
255.70        70.98175
256.16         76.2123
256.62        79.04164
257.07        77.46635
257.53        72.65907
257.99        65.69373
258.44        59.12977
258.90        56.70797
259.35        57.42573
259.81        59.54039
260.27        60.67809
260.72         58.5956
261.18        54.06846
261.63        48.22261
262.09        42.82418
262.55         39.2759
263.00        37.56638
263.46        37.04808
263.91        36.79892
264.37        36.06158
264.83        34.67848
265.28        32.85039
265.74        31.15423
266.19        30.21127
266.65         30.1638
267.11        30.61029
267.56         31.0146
268.02        30.74264
268.47        29.70806
268.93        28.14755
269.38         26.3964
269.84        25.24784
270.30         24.9147
270.75        25.17561
271.21        25.63589
271.66        25.71148
272.12        25.23878
272.57        24.40834
273.03        23.51582
273.48        22.92185
273.94        22.73891
274.39        22.80848
274.85         22.9167
275.31        22.76068
275.76        22.27305
276.22        21.58058
276.67        20.87897
277.13        20.52192
277.58        20.51273
278.04         20.7438
278.49        20.93353
278.95        20.73576
279.40        20.08992
279.86        19.18408
280.31        18.23984
280.77        17.68358
281.22        17.55707
281.68        17.72494
282.13        17.98828
282.59        18.08843
283.04         17.9628
283.50        17.73026
283.95        17.44299
284.41        17.18755
284.86        16.99221
285.32        16.81996
285.77         16.7142
286.22        16.80125
286.68         17.0577
287.13        17.42884
287.59        17.74214
288.04        17.73632
288.50        17.39656
288.95         16.8041
289.41        16.16354
289.86        15.69174
290.32        15.49347
290.77        15.48658
291.22        15.62166
291.68        15.78484
292.13        15.94519
292.59        16.13747
293.04        16.38402
293.50        16.71531
293.95        17.12069
294.40        17.55097
294.86        17.95879
295.31        18.29202
295.77        18.54286
296.22        18.73589
296.68        18.88875
297.13        19.00201
297.58        19.10609
298.04         19.2178
298.49        19.39155
298.95        19.74033
299.40        20.26715
299.85        20.93403
300.31        21.63294
300.76        22.20554
301.21        22.59264
301.67        22.85228
302.12        23.02048
302.58        23.19778
303.03        23.39724
303.48        23.59583
303.94        23.82068
304.39        24.08481
304.84        24.39022
305.30        24.73186
305.75        25.03657
306.20         25.1963
306.66        25.21438
307.11        25.11631
307.57         25.0018
308.02        24.95731
308.47        25.02937
308.93        25.18347
309.38        25.38438
309.83         25.6029
310.29        25.80589
310.74        25.99046
311.19        26.12485
311.65        26.16137
312.10        26.09413
312.55        25.93999
313.00        25.72039
313.46         25.4821
313.91        25.24437
314.36        25.02114
314.82        24.85525
315.27        24.79684
315.72        24.85241
316.18        24.99786
316.63        25.18076
317.08        25.29186
317.53        25.29407
317.99         25.2031
318.44        25.05861
318.89        24.93076
319.35        24.83357
319.80        24.75039
320.25        24.64264
320.70        24.45285
321.16        24.17822
321.61        23.84932
322.06        23.51856
322.51        23.25754
322.97         23.0737
323.42         22.9512
323.87        22.84632
324.32        22.68958
324.78        22.46281
325.23        22.19139
325.68        21.90347
326.13        21.64714
326.59        21.43445
327.04        21.26794
327.49        21.13344
327.94        21.00968
328.39        20.89195
328.85        20.78025
329.30        20.71217
329.75        20.71901
330.20        20.80255
330.66        20.92964
331.11        21.07043
331.56        21.13603
332.01        21.09959
332.46        20.96829
332.92        20.78124
333.37        20.63416
333.82        20.55554
334.27        20.54045
334.72        20.53044
335.17        20.42421
335.63        20.20212
336.08        19.89807
336.53        19.62589
336.98        19.56617
337.43        19.74882
337.88        20.12189
338.34        20.49816
338.79        20.61496
339.24        20.38782
339.69         19.8899
340.14        19.33605
340.59        19.10312
341.05        19.27011
341.50        19.71257
341.95        20.20366
342.40         20.4107
342.85        20.26065
343.30        19.87536
343.75        19.38142
344.20        19.00068
344.66        18.81436
345.11        18.71774
345.56        18.70452
346.01        18.76385
346.46        18.86223
346.91        19.02342
347.36        19.11339
347.81        18.90977
348.26        18.40444
348.72        17.70115
349.17        17.00246
349.62        16.72849
350.07        16.97202
350.52        17.58921
350.97        18.35946
351.42        18.94209
351.87        19.22861
352.32        19.30891
352.77        19.23637
353.22        19.10212
353.67        18.94924
354.13        18.74752
354.58        18.51691
355.03        18.33326
355.48        18.21593
355.93        18.17384
356.38        18.16153
356.83         18.0895
357.28        17.93662
357.73        17.72024
358.18        17.50247
358.63        17.38187
359.08        17.37557
359.53         17.4554
359.98        17.52855
360.43        17.45264
360.88         17.2055
361.33        16.83259
361.78        16.45866
362.23        16.28599
362.68        16.34999
363.13        16.57207
363.58        16.81546
364.03        16.86773
364.48        16.67887
364.93        16.32802
365.38        15.90009
365.83        15.52951
366.28         15.2707
366.73        15.08414
367.18        14.97714
367.63        14.96383
368.08        15.02589
368.53        15.15299
368.98        15.28554
369.43        15.32269
369.88        15.24532
370.33        15.08815
370.78        14.87899
371.23        14.67496
371.68        14.50432
372.13         14.3422
372.58        14.24525
373.03        14.30495
373.48        14.51885
373.93        14.85637
374.38        15.17049
374.83        15.23293
375.28        15.00571
375.72        14.54795
376.17         14.0448
376.62        13.76135
377.07        13.77021
377.52        13.98598
377.97         14.2864
378.42         14.4719
378.87        14.48082
379.32        14.38052
379.77         14.2267
380.22        14.09471
380.67        14.00981
381.11        13.94407
381.56        13.88153
382.01        13.81277
382.46        13.73282
382.91          13.648
383.36        13.57333
383.81        13.52453
384.26        13.50373
384.71        13.51044
385.15        13.50291
385.60        13.42754
386.05        13.27424
386.50        13.05327
386.95        12.84048
387.40        12.76653
387.85        12.85293
388.29        13.04969
388.74        13.24623
389.19        13.29013
389.64        13.16206
390.09         12.9031
390.54        12.62281
390.98        12.50545
391.43        12.60049
391.88        12.83628
392.33        13.08114
392.78         13.1428
393.23        12.99546
393.67        12.70822
394.12         12.4174
394.57        12.26366
395.02        12.27668
395.47        12.40441
395.91        12.57776
396.36        12.65815
396.81        12.60645
397.26        12.45917
397.71        12.27889
398.15        12.14296
398.60        12.09063
399.05        12.09794
399.50        12.11057
399.95        12.01976
400.39        11.86593
400.84        11.63895
401.29        11.43293
401.74         11.3936
402.18        11.56039
402.63        11.86428
403.08        12.19342
403.53        12.36915
403.97         12.3459
404.42        12.17934
404.87        11.94566
405.32        11.77976
405.76        11.72643
406.21         11.7447
406.66        11.80293
407.11        11.86138
407.55        11.90813
408.00        11.95692
408.45        11.99774
408.90        11.99864
409.34        11.95364
409.79        11.86884
410.24        11.77974
410.68         11.7396
411.13        11.76135
411.58        11.83529
412.03        11.92724
412.47        11.97737
412.92        11.95959
413.37        11.88916
413.81        11.81025
414.26        11.80385
414.71        11.87689
415.15        12.00986
415.60        12.12366
416.05        12.11215
416.49        11.95364
416.94         11.6928
417.39        11.41339
417.83        11.25869
418.28        11.27174
418.73        11.39653
419.17        11.56353
419.62        11.65746
420.07        11.65222
420.51        11.58796
420.96        11.48367
421.41         11.3685
421.85        11.25919
422.30        11.15814
422.74        11.08562
423.19        11.10286
423.64        11.20239
424.08        11.37579
424.53        11.55712
424.98        11.65048
425.42        11.63151
425.87        11.52052
426.31        11.36305
426.76        11.27037
427.21        11.25029
427.65         11.1995
428.10        11.16166
428.54        11.26828
428.99        11.51649
429.44        11.84637
429.88        12.12803
430.33        12.19247
430.77        12.01614
431.22        11.65028
431.66        11.25764
432.11        11.13357
432.56         11.3046
433.00        11.62684
433.45         11.9416
433.89        12.12481
434.34        12.08525
434.78        11.76473
435.23         11.3762
435.67        11.31758
436.12        11.55832
436.57        11.68695
437.01        11.64014
437.46        11.60504
437.90        11.59254
438.35        11.54757
438.79        11.48108
439.24        11.44469
439.68         11.4511
440.13        11.43749
440.57        11.40995
441.02        11.53238
441.46        11.70895
441.91        11.53765
442.35        11.11396
442.80        10.90931
443.24        10.90912
443.69        10.94184
444.13        10.93743
444.58         10.7887
445.02        10.53383
445.47        10.42256
445.91        10.44624
446.36        10.40566
446.80        10.29653
447.24        10.24341
447.69        10.24764
448.13        10.23868
448.58        10.21685
449.02        10.20062
449.47        10.18848
449.91        10.17563
450.36        10.16564
450.80        10.15276
451.25        10.15279
451.69        10.18267
452.13        10.24436
452.58        10.31818
453.02        10.38882
453.47        10.42464
453.91        10.42245
454.36        10.39779
454.80        10.34795
455.24        10.27128
455.69        10.18308
456.13        10.08119
456.58        10.01743
457.02        10.05104
457.46        10.19028
457.91        10.40724
458.35        10.63336
458.79        10.74923
459.24        10.73743
459.68          10.622
460.13        10.48323
460.57        10.41405
461.01        10.45205
461.46        10.55891
461.90        10.68889
462.34        10.75662
462.79        10.74046
463.23         10.6623
463.68        10.57742
464.12         10.5731
464.56        10.67162
465.01        10.84493
465.45        11.00541
465.89        11.06377
466.34         11.0148
466.78        10.83247
467.22        10.62207
467.67        10.66063
468.11        10.92255
468.55        11.07162
468.99        11.06865
469.44        11.07642
469.88        11.12934
470.32        11.26858
470.77        11.43834
471.21        11.46688
471.65        11.33684
472.10         11.1744
472.54        11.04381
472.98         11.0175
473.42        11.11744
473.87        11.32128
474.31        11.55423
474.75        11.69036
475.20        11.70445
475.64        11.62931
476.08        11.52785
476.52        11.49762
476.97        11.56403
477.41        11.69979
477.85        11.85528
478.29        11.97408
478.74        12.03924
479.18        12.00865
479.62        11.92841
480.06        12.07121
480.50        12.19891
480.95        12.33071
481.39        12.35044
481.83        12.33686
482.27        12.28815
482.72        12.11456
483.16        11.90223
483.60          11.937
484.04        12.22086
484.48         12.4458
484.93        12.75359
485.37        13.06308
485.81         13.2623
486.25        13.68461
486.69        17.98531
487.14        14.06805
487.58         9.50262
488.02        11.57963
488.46        13.24256
488.90        13.30873
489.34        13.35048
489.79        13.25225
490.23        13.92083
490.67        14.33061
491.11        14.28769
491.55         14.2045
491.99        14.05436
492.43         13.8968
492.88        13.79458
493.32        13.78972
493.76        13.80927
494.20         13.9859
494.64        14.27948
495.08        14.64506
495.52        15.03294
495.96        15.38811
496.41        15.64542
496.85        15.79779
497.29        15.85208
497.73        15.67015
498.17        15.45071
498.61        15.57574
499.05        16.05447
499.49        16.15369
499.93         16.2658
500.37        16.41137
500.82         16.5295
501.26        16.76003
501.70        17.01182
502.14        17.15149
502.58        17.16621
503.02        17.20178
503.46        17.26675
503.90        17.26701
504.34         17.2263
504.78        17.22737
505.22        17.28246
505.66        17.37806
506.10        17.48033
506.54        17.52868
506.98        17.51315
507.42        17.45634
507.86        17.41402
508.30        17.47218
508.74        17.64225
509.18        17.88709
509.62        18.14598
510.06        18.31882
510.50         18.3799
510.94         18.3707
511.38        18.31763
511.82        18.26264
512.26        18.22737
512.70         18.1914
513.14        18.19451
513.58        18.30312
514.02        18.50751
514.46        18.77981
514.90        19.02368
515.34        19.04932
515.78        18.79852
516.22        18.49104
516.66        18.24766
517.10         17.8015
517.54        17.19743
517.98        18.07236
518.42        17.94937
518.86        18.35459
519.30        18.52324
519.74         18.7014
520.18        18.85172
520.62        18.88219
521.06        18.81321
521.50          18.647
521.93        18.43265
522.37        18.26698
522.81        18.17924
523.25        18.14968
523.69        18.16785
524.13        18.21215
524.57        18.26633
525.01        18.33318
525.45        18.38835
525.89        18.39094
526.32        18.33087
526.76        18.21973
527.20        18.07767
527.64        17.94763
528.08         17.8476
528.52        17.75089
528.96        17.65632
529.40        17.60855
529.83         17.6161
530.27         17.4909
530.71         17.5558
531.15        17.49442
531.59        17.40579
532.03        17.28625
532.46        17.18764
532.90        17.19777
533.34        17.31986
533.78        17.52149
534.22        17.71761
534.66        17.78326
535.09        17.69103
535.53        17.48846
535.97        17.24862
536.41        17.09123
536.85        17.05339
537.28        17.10566
537.72        17.20193
538.16        17.26678
538.60        17.27936
539.04        17.25022
539.47        17.22338
539.91        17.30604
540.35        17.49048
540.79        17.68001
541.22        17.82858
541.66        17.93744
542.10        17.99305
542.54        17.96967
542.97        17.92803
543.41         17.9944
543.85        18.18551
544.29          18.473
544.72        18.76593
545.16        18.92901
545.60        18.93763
546.04        18.83536
546.47        18.73812
546.91        18.83795
547.35        19.16045
547.79        19.63947
548.22        20.13734
548.66        20.42113
549.10        20.45218
549.53        20.33801
549.97         20.1935
550.41        20.14076
550.84        20.22863
551.28        20.42968
551.72        20.71428
552.15        21.02387
552.59        21.32122
553.03        21.61647
553.46        21.88084
553.90        22.08865
554.34        22.24222
554.77        22.32029
555.21        22.34245
555.65        22.41175
556.08        22.55374
556.52        22.47048
556.96        22.68174
557.39        22.75404
557.83        22.84707
558.27        22.94309
558.70        23.05408
559.14        23.18126
559.57        23.31168
560.01        23.45278
560.45         23.5668
560.88        23.59521
561.32        23.55372
561.75        23.45188
562.19         23.3589
562.63        23.34735
563.06        23.42945
563.50        23.58484
563.93         23.7746
564.37        23.94696
564.80        24.07523
565.24        24.18476
565.68        24.27224
566.11        24.33456
566.55        24.39589
566.98        24.44997
567.42        24.53474
567.85        24.70201
568.29        24.97126
568.72        25.25637
569.16        25.56126
569.60        25.93652
570.03         26.2494
570.47        26.31419
570.90        26.27989
571.34        25.78303
571.77        26.30706
572.21        26.41316
572.64        26.57033
573.08        26.15755
573.51        25.34931
573.95        26.51042
574.38        28.29549
574.82        27.70539
575.25        27.39039
575.69        26.41293
576.12        25.99493
576.56        25.99067
576.99        26.69524
577.42        27.72913
577.86         27.7164
578.29        27.50496
578.73         28.8413
579.16        26.55736
579.60        24.34019
580.03        25.45371
580.47        27.11551
580.90        27.41648
581.33        26.92594
581.77        26.51917
582.20        28.89149
582.64        28.48675
583.07        24.27192
583.51        23.79783
583.94        23.40713
584.37        24.37725
584.81        25.14557
585.24        26.30113
585.68        27.01127
586.11         26.3495
586.54         24.4728
586.98        23.80116
587.41         24.0784
587.85        25.10731
588.28         25.8212
588.71        24.77192
589.15        23.89594
589.58        24.19472
590.01        24.48613
590.45        24.91463
590.88        24.83344
591.31        24.52285
591.75        24.50193
592.18        24.65895
592.61        25.21732
593.05        25.73921
593.48        26.89488
593.91        26.69772
594.35        24.82181
594.78        24.43197
595.21        24.55614
595.65        25.80993
596.08         26.8292
596.51        25.88344
596.94        25.26829
597.38        25.72877
597.81        27.09907
598.24        27.74516
598.68        27.50303
599.11         27.6308
599.54        28.96953
599.97        29.74122
600.41        28.44775
600.84        28.81614
601.27         29.7337
601.70        29.69725
602.14        29.98434
602.57        29.97713
603.00          30.689
603.43         31.8491
603.87        33.01453
604.30        33.24872
604.73        32.72042
605.16        32.57684
605.60        33.30931
606.03        34.39033
606.46        35.56232
606.89        35.72301
607.32        35.10262
607.76        35.61967
608.19        36.91552
608.62        36.73106
609.05        36.36891
609.48        36.89919
609.92        37.14936
610.35        37.46763
610.78        39.13317
611.21        40.21986
611.64        38.59623
612.07         39.2835
612.50         39.7635
612.94         40.3231
613.37        40.37946
613.80        40.74454
614.23        41.44484
614.66        41.76314
615.09        42.28289
615.52        42.61179
615.96        42.80057
616.39        43.09133
616.82        42.80224
617.25        42.58348
617.68        43.42814
618.11        44.04283
618.54        44.57097
618.97        44.56198
619.40        44.27103
619.84        44.34367
620.27        45.33938
620.70        45.88525
621.13        46.05193
621.56        45.78026
621.99        45.30262
622.42        45.94516
622.85        47.33961
623.28          47.136
623.71         46.8473
624.14        46.62112
624.57        46.42648
625.00        46.35702
625.43        46.31307
625.86        45.79944
626.29        45.68929
626.72        45.90668
627.15        45.59446
627.58        45.54837
628.01        45.39783
628.44        45.50918
628.87        45.19904
629.30        45.10545
629.73        44.98877
630.16        44.70285
630.59        44.24041
631.02        43.69051
631.45        43.12904
631.88        42.62684
632.31        42.20717
632.74        41.85003
633.17        41.51098
633.60        41.11269
634.03        40.63748
634.46        40.12144
634.89        39.59226
635.32        39.08251
635.75        38.61407
636.18        38.19469
636.61        37.81671
637.04        37.44427
637.47        37.06288
637.89        36.69261
638.32        36.30603
638.75        35.87478
639.18        35.40676
639.61        34.92542
640.04        34.46379
640.47        34.06762
640.90        33.75016
641.33        33.49493
641.76         33.2903
642.18        33.16423
642.61        33.10752
643.04        33.03607
643.47        32.90329
643.90         33.0612
644.33        32.82173
644.76        32.75148
645.18        32.67524
645.61        32.65887
646.04        32.70879
646.47        32.80548
646.90         32.9759
647.33        33.23355
647.75        33.58796
648.18        34.06284
648.61         34.5482
649.04        34.87867
649.47        35.03617
649.89        34.96292
650.32        34.91314
650.75        35.44518
651.18        36.51819
651.61        37.58149
652.03        38.37476
652.46         38.8687
652.89        39.30183
653.32        39.43274
653.74        39.50108
654.17        41.06526
654.60        42.32724
655.03        41.03207
655.46        41.92556
655.88        45.15123
656.31        49.20426
656.74        112.8708
657.16        73.25451
657.59        25.80865
658.02        19.76261
658.45        34.61891
658.87        44.74791
659.30        47.55861
659.73        47.18441
660.15        46.08395
660.58        48.25741
661.01         49.9473
661.44        48.75356
661.86        48.56388
662.29        48.86989
662.72        49.68107
663.14        50.85518
663.57        51.13402
664.00        50.66279
664.42        50.77843
664.85        51.54431
665.27         52.0903
665.70        52.26851
666.13         52.3551
666.55        52.34327
666.98        52.16167
667.41        51.94423
667.83        51.94781
668.26        52.22873
668.69        52.68017
669.11        53.14581
669.54        53.63171
669.96         53.5883
670.39        53.49617
670.82        53.32595
671.24        53.33832
671.67        53.60764
672.09        53.92109
672.52        54.16393
672.94        54.77398
673.37        54.73861
673.80        54.82784
674.22        54.80411
674.65         54.8482
675.07        54.95657
675.50        54.90719
675.92        54.78291
676.35        54.85858
676.77        55.16279
677.20        55.55671
677.62        55.95768
678.05        56.23513
678.47        56.34022
678.90        56.32948
679.32        56.28451
679.75        56.22771
680.17        56.41454
680.60        56.62947
681.02        56.85829
681.45        56.95259
681.87        56.89761
682.30        56.73723
682.72        56.58221
683.15        56.63556
683.57        56.94558
684.00        57.32178
684.42         57.8564
684.85        58.17089
685.27        58.26752
685.70        58.24159
686.12        58.14534
686.54        58.08362
686.97        58.13549
687.39        58.31614
687.82        58.52458
688.24        59.02631
688.66        59.02079
689.09        58.98122
689.51        58.80358
689.94        58.81232
690.36        59.04855
690.78        59.33084
691.21        59.59167
691.63         59.8065
692.06        59.93361
692.48        59.93048
692.90        59.85125
693.33        59.83241
693.75        59.90039
694.17        60.00202
694.60        60.15078
695.02        60.31891
695.44        60.45469
695.87        60.84158
696.29        61.37989
696.71        61.11961
697.14        60.34617
697.56        60.83269
697.98        62.29789
698.41        62.33105
698.83        61.55347
699.25        61.10543
699.68        61.26249
700.10        61.28075
700.52         61.1809
700.94        61.33678
701.37        61.69008
701.79        62.05246
702.21        62.34728
702.64        62.62593
703.06        62.82379
703.48        62.83708
703.90        62.67234
704.33         62.3587
704.75        62.01568
705.17        61.92028
705.59        62.13943
706.01        62.49676
706.44        62.84802
706.86        63.49797
707.28        63.53739
707.70        63.67447
708.12        63.69584
708.55        63.67047
708.97        63.60713
709.39        63.49499
709.81         63.4039
710.23        63.44321
710.66        63.63306
711.08        63.97082
711.50        64.32098
711.92        64.47745
712.34        64.39709
712.76        64.12762
713.19        63.81972
713.61        63.74997
714.03        63.96604
714.45        64.38239
714.87        64.81649
715.29        64.97701
715.71        64.80342
716.13        64.40335
716.56        63.93916
716.98        63.69575
717.40        63.74611
717.82        63.99964
718.24        64.35986
718.66         64.6547
719.08         64.8194
719.50        64.92722
719.92        64.98101
720.34        64.94939
720.76        64.88179
721.19        64.78487
721.61        64.87967
722.03        64.96344
722.45        65.09534
722.87        65.32958
723.29        65.62457
723.71        65.86395
724.13        66.01527
724.55        66.10231
724.97        66.14639
725.39        66.18913
725.81        66.24535
726.23        66.30051
726.65        66.34147
727.07        66.36095
727.49        66.36355
727.91        66.33152
728.33        66.28844
728.75        66.35239
729.17        66.48947
729.59         66.4952
730.01        66.40822
730.43        66.44639
730.85        66.62785
731.27        66.86562
731.69        67.07689
732.10        67.16105
732.52        67.08701
732.94        66.90736
733.36        66.78494
733.78        66.84873
734.20        67.12991
734.62        67.89947
735.04        68.85435
735.46        68.80338
735.88        67.99008
736.30        67.98685
736.72        68.85773
737.13        69.44794
737.55        69.44598
737.97        69.49911
738.39        69.63048
738.81        68.99017
739.23        68.01885
739.65        68.86684
740.06        71.03019
740.48        71.24857
740.90        69.60857
741.32        68.81315
741.74        69.15739
742.16        69.36617
742.57        69.49307
742.99        70.32815
743.41        71.56806
743.83        72.13847
744.25        71.94064
744.67        71.54679
745.08        71.21268
745.50        71.06194
745.92        71.21356
746.34        71.69496
746.75        72.32602
747.17         72.7088
747.59        72.77776
748.01        72.68643
748.42        72.58442
748.84        72.68128
749.26        73.06927
749.68        73.61111
750.09        74.20199
750.51        74.87701
750.93        75.44177
751.35        75.30264
751.76        74.63242
752.18        74.41595
752.60        74.65462
753.01         74.5705
753.43        74.25051
753.85         74.3604
754.27        74.94496
754.68        75.83001
755.10        76.74479
755.52        77.19642
755.93        77.15503
756.35        77.08662
756.77        77.15598
757.18        77.15916
757.60        77.15897
758.02        77.68545
758.43         78.2302
758.85        78.01848
759.26         75.4798
759.68        75.33205
760.10        76.79989
760.51        77.91097
760.93        77.53099
761.34        76.65129
761.76        76.11028
762.18        75.34272
762.59        75.08701
763.01        74.74718
763.42        76.92892
763.84        77.75995
764.26        77.85854
764.67        77.87025
765.09         77.8703
765.50        77.87481
765.92        77.73806
766.33        76.61221
766.75        74.94788
767.16        74.34972
767.58        75.02583
768.00        76.30457
768.41        77.88558
768.83        79.38132
769.24        80.14218
769.66        79.52225
770.07         78.0267
770.49        76.36483
770.90        75.11339
771.32        76.17884
771.73        78.76776
772.15        78.47897
772.56        75.73606
772.97        74.84366
773.39        75.87408
773.80        76.97229
774.22        76.99109
774.63        76.96494
775.05        76.70975
775.46        76.75621
775.88        77.07729
776.29        77.11442
776.70        76.87672
777.12        76.78458
777.53        76.87272
777.95        76.94118
778.36        76.95345
778.77        76.82578
779.19        76.59653
779.60        76.40031
780.02        76.26379
780.43        76.22845
780.84        76.47643
781.26        76.60081
781.67        76.71452
782.09        78.29411
782.50        80.53801
782.91        79.46252
783.33        76.31803
783.74        75.23817
784.15        76.56752
784.57        77.46022
784.98        77.54203
785.39        77.62677
785.81        77.61726
786.22        77.17462
786.63         76.6208
787.04        76.52873
787.46        76.98689
787.87        77.92032
788.28        79.00974
788.70        79.52899
789.11        79.32049
789.52        78.83987
789.93        78.29567
790.35        77.53912
790.76        76.85909
791.17         77.0967
791.58        78.04421
792.00        78.47462
792.41        78.21654
792.82        77.97292
793.23        77.96597
793.65        77.72861
794.06        77.52972
794.47        78.74033
794.88        80.59142
795.29        80.25281
795.71        77.93605
796.12        75.94506
796.53        74.88444
796.94        74.33473
797.35        74.48691
797.76        75.75479
798.18         77.5404
798.59        78.65076
799.00        78.69543
799.41        77.95361
799.82        76.86654
800.23        76.19753
800.64        76.15281
801.06         76.4145
801.47         76.8767
801.88        77.27344
802.29        77.48181
802.70        77.60394
803.11        77.65421
803.52        77.61912
803.93        77.53695
804.34        77.40891
804.75         77.2644
805.17        77.27119
805.58        77.53695
805.99        77.62498
806.40        77.53999
806.81        78.39147
807.22        79.57024
807.63        78.44044
808.04        75.65174
808.45        74.50237
808.86        75.24625
809.27        76.15636
809.68        76.83354
810.09        77.34061
810.50        77.48724
810.91        77.27851
811.32        76.89018
811.73         76.6114
812.14        76.52625
812.55        76.51278
812.96        76.58055
813.37        76.73986
813.78         76.9653
814.19        77.31656
814.60        77.57597
815.01        77.38684
815.42        76.71375
815.83        75.62766
816.24        74.55097
816.65         74.2289
817.05        74.87535
817.46        76.23769
817.87        77.75744
818.28         78.4306
818.69        77.99093
819.10        76.69387
819.51        75.16615
819.92        74.51323
820.33        75.02463
820.74        76.24299
821.14        77.59985
821.55         78.3708
821.96        78.18999
822.37        76.76279
822.78        74.75706
823.19        73.72616
823.60        73.94195
824.00        74.79407
824.41         75.8302
824.82        76.57742
825.23        76.76427
825.64        76.55795
826.04        76.16689
826.45        75.89063
826.86        75.81657
827.27        75.81277
827.68        75.81248
828.08        75.75827
828.49        75.56915
828.90        75.35908
829.31        75.13628
829.72        74.88611
830.12        74.66124
830.53         74.4483
830.94        74.36605
831.35        74.56921
831.75        75.10734
832.16        75.85918
832.57        76.69884
832.97        77.33041
833.38        77.57758
833.79        77.52071
834.20        77.27585
834.60         77.0294
835.01        76.87664
835.42        76.75781
835.82        76.65742
836.23        76.47331
836.64        76.22759
837.04        75.98388
837.45        75.79149
837.86        75.72667
838.26        75.80532
838.67        75.94627
839.08           76.12
839.48        76.26561
839.89        76.32331
840.29        76.33504
840.70        76.24261
841.11        75.94123
841.51        75.44872
841.92        74.78246
842.33        74.16413
842.73        73.96491
843.14        74.22319
843.54        74.87077
843.95        75.58183
844.35        75.87181
844.76        75.60509
845.17        74.94796
845.57        74.18345
845.98         73.7552
846.38         73.7751
846.79        74.07929
847.19        74.52303
847.60        74.76453
848.00        74.73242
848.41        74.52127
848.81        74.25159
849.22        74.01352
849.62        73.90224
850.03        73.88918
850.43        74.01202
850.84        74.26715
851.24        74.67376
851.65        75.04281
852.05        75.50955
852.46        76.11398
852.86        76.82569
853.27        77.64825
853.67        78.04343
854.07        77.31676
854.48        75.51963
854.88        72.92428
855.29        70.45503
855.69        69.44989
856.10        70.17334
856.50        72.44843
856.90        75.46922
857.31        77.33904
857.71        77.41365
858.12        76.14906
858.52         74.3928
858.92        73.27732
859.33        73.06068
859.73        73.42544
860.13        74.14106
860.54        74.75017
860.94        75.12069
861.34        75.38725
861.75        75.59187
862.15        75.86134
862.55        76.18672
862.96         76.4854
863.36         76.7243
863.76        76.83578
864.17        76.81651
864.57        76.76601
864.97        76.75984
865.38        76.90022
865.78        77.24739
866.18        77.66249
866.58        78.13729
866.99        78.64909
867.39        79.20756
867.79        79.85358
868.19        80.26526
868.60        79.85439
869.00        78.55714
869.40        76.57826
869.80        74.78347
870.21        74.51246
870.61        76.12818
871.01        79.23341
871.41        82.80437
871.81        85.06351
872.22        85.48865
872.62        84.55814
873.02        83.11417
873.42        82.67419
873.82        83.41646
874.22        84.53741
874.63        85.64951
875.03        86.01628
875.43        85.28692
875.83        84.72984
876.23        82.88743
876.63        81.91398
877.03        81.68534
877.44        82.33719
877.84        104.7698
878.24        88.89065
878.64        89.70532
879.04        90.41232
879.44        86.61775
879.84        84.92829
880.24        89.20486
880.64        91.39835
881.04        92.34264
881.44        92.53137
881.84        91.41432
882.24        89.32558
882.65        87.36105
883.05         86.5227
883.45        86.95941
883.85        88.67324
884.25        90.95244
884.65        92.21622
885.05        91.98836
885.45         90.7997
885.85        89.39311
886.25        88.79449
886.65        89.22748
887.05        90.31837
887.45        91.69528
887.85        92.70835
888.25        93.09792
888.65         93.1173
889.04        92.87173
889.44        92.55499
889.84        92.25126
890.24        91.84998
890.64         91.5247
891.04        91.57579
891.44        92.01768
891.84        92.80257
892.24        93.56828
892.64        93.63213
893.04        92.91221
893.44        91.73605
893.83        90.56857
894.23        90.08349
894.63        90.39808
895.03        91.22214
895.43        92.45677
895.83        93.88423
896.23         95.2906
896.63         96.7444
897.02        97.71575
897.42        97.36543
897.82        95.67238
898.22        92.95505
898.62        90.24755
899.01        89.08472
899.41        89.75191
899.81        91.71741
900.21         94.1125
900.61        95.49993
901.00        95.47384
901.40        94.52323
901.80        93.13369
902.20        92.05711
902.59        91.55569
902.99        91.35632
903.39        91.39883
903.79        91.60812
904.18        91.90805
904.58        92.40564
904.98        92.95194
905.38        93.28236
905.77        93.32264
906.17        93.09396
906.57        92.76492
906.96         92.6659
907.36        92.79816
907.76        93.09787
908.15          93.343
908.55        93.05373
908.95        92.21113
909.34        90.96142
909.74        89.75508
910.14        89.10514
910.53        89.17455
910.93        89.86202
911.33        90.90888
911.72         91.8502
912.12        92.40415
912.52        92.61163
912.91        92.69412
913.31        92.95898
913.70        93.51209
914.10        94.28769
914.49        94.87692
914.89        94.31464
915.29         92.4707
915.68         89.8077
916.08        87.51023
916.47         86.6423
916.87        87.25782
917.26        89.01017
917.66        91.00115
918.05        91.76035
918.45          90.922
918.84        89.02522
919.24        86.99291
919.64        86.18332
920.03        86.94881
920.42        88.80895
920.82        91.18319
921.21        93.17436
921.61        94.20962
922.00        94.59522
922.40         94.3144
922.79        93.34657
923.19        91.87331
923.58        89.78288
923.98        87.41038
924.37        86.07125
924.77        86.40757
925.16        85.44941
925.55        87.83698
925.95        89.25634
926.34        90.88293
926.74         92.4474
927.13        93.75639
927.52        94.19388
927.92        93.73947
928.31        92.58843
928.70        90.99635
929.10        89.46238
929.49         88.1459
929.89        86.99559
930.28        86.34318
930.67        86.71449
931.07        88.02185
931.46         90.1657
931.85        92.26742
932.24        93.00912
932.64        92.14518
933.03        89.89828
933.42        86.95571
933.82        84.90142
934.21        84.22495
934.60        84.52489
934.99        85.15405
935.39        85.47466
935.78        85.39542
936.17        84.73346
936.56         83.2545
936.96        84.20701
937.35        82.79887
937.74         82.8904
938.13        83.14324
938.53        84.01466
938.92        85.53674
939.31        87.79245
939.70        90.17142
940.09        90.89573
940.49         89.4467
940.88        86.60049
941.27        83.70832
941.66        82.35925
942.05        82.74959
942.44        84.35362
942.84        86.60292
943.23        88.54507
943.62        89.65689
944.01        90.16987
944.40        90.16319
944.79        89.76112
945.18        89.03031
945.57        87.83464
945.97        86.21986
946.36        84.58589
946.75         83.3663
947.14        82.66975
947.53         82.4977
947.92        82.73196
948.31        83.28424
948.70        84.19526
949.09        85.26405
949.48        85.97096
949.87        86.05482
950.26        85.55263
950.65        84.79094
951.04        84.33235
951.43        84.31647
951.82        84.60889
952.21         84.8981
952.60         84.6848
952.99        83.86777
953.38        82.62476
953.77        81.37183
954.16        80.68234
954.55        80.67055
954.94        81.22488
955.33        81.85107
955.72        81.71976
956.11        80.66137
956.50        78.89668
956.89        77.20467
957.28        77.00473
957.66        78.72215
958.05        81.65701
958.44        84.79225
958.83        86.62456
959.22        86.75806
959.61        85.57722
960.00        83.69023
960.39        82.09715
960.78        81.16228
961.16        80.68489
961.55        80.30902
961.94        79.46625
962.33        78.09235
962.72        76.50147
963.11        75.23906
963.49        74.96742
963.88        75.75589
964.27        77.45415
964.66        79.40938
965.04        80.25008
965.43        79.42943
965.82         77.4645
966.21        75.35883
966.60        74.40764
966.98        74.83721
967.37        76.22038
967.76        77.94558
968.15        78.81377
968.53        78.44388
968.92        77.25402
969.31        75.83041
969.69        74.91172
970.08        74.68473
970.47        74.91869
970.86        75.34718
971.24        75.53645
971.63        75.33313
972.02        74.87034
972.40        74.44208
972.79        74.51781
973.17        75.32847
973.56        76.63959
973.95         78.0268
974.33        78.67773
974.72        78.27345
975.11        77.04157
975.49        75.69318
975.88        75.25826
976.26        75.87301
976.65        77.36599
977.04        78.89394
977.42        78.47286
977.81        75.59321
978.19        71.19219
978.58        67.35497
978.96        66.16167
979.35        67.90429
979.74        72.16087
980.12        78.02605
980.51        82.17753
980.89          83.381
981.28        82.37199
981.66        80.38529
982.05         79.0762
982.43        78.79178
982.82        78.94429
983.20        79.44151
983.59        80.26642
983.97        81.41686
984.35        83.05525
984.74        84.61796
985.12        85.09556
985.51        83.83241
985.89         80.9512
986.28        77.33423
986.66        74.36254
987.04        72.76006
987.43         72.3504
987.81        72.32989
988.20        71.56313
988.58        69.61197
988.96        66.08898
989.35        61.69548
989.73         60.3658
990.12        64.51852
990.50        72.21233
990.88        78.57745
991.27        79.99639
991.65        77.04534
992.03        70.88319
992.42        63.93919
992.80         60.6755
993.18        62.42536
993.56        66.77566
993.95        71.64557
994.33        75.29281
994.71         77.2178
995.10         78.3996
995.48        78.65794
995.86        77.40889
996.24         74.6291
996.63        69.98586
997.01        64.78522
997.39        63.03333
997.77        66.36752
998.15        73.83727
998.54        81.72527
998.92        84.94801
999.30        82.05532
999.68        74.32596
1000.06        63.91665
1000.45        56.23085
1000.83        53.61245
1001.21        54.36153
1001.59        56.98465
1001.97        59.89457
1002.35        62.62771
1002.73        66.20379
1003.12        69.62813
1003.50        69.55273
1003.88        64.93053
1004.26        57.57564
1004.64        50.85915
1005.02        47.63704
1005.40        48.06708
1005.78        51.86762
1006.16        60.11103
1006.54        70.12014
1006.92        76.07343
1007.30        77.87027
1007.69        77.21498
1008.07        75.65973
1008.45        73.04379
1008.83        67.09872
1009.21        52.13896
1009.59        14.26599
1009.97       -62.73371
1010.35       -129.5182
1010.73       -77.47902
1011.11       -16.64881
1011.49        16.99373
1011.86        38.35464
1012.24        50.16521
1012.62        56.62132
1013.00        60.62296
1013.38        63.09621
1013.76        66.10239
1014.14        74.29995
1014.52        90.46079
1014.90        114.9635
1015.28        139.7326
1015.66        145.6288
1016.04        122.7961
1016.41        77.72699
1016.79        34.09023
1017.17        14.55687
1017.55        15.33631
1017.93        23.60104
1018.31        32.99169
1018.69        40.87231
1019.06        47.84271
1019.44        55.54875
1019.82        65.84669
1020.20        78.78075
1020.58         92.9154
1020.95        106.5504
1021.33        107.9206
1021.71        274.6124
1022.09        149.4021
1022.46         147.447
1022.84        150.3769
1023.22        158.4344
1023.60         180.804
1023.97          398.73
1024.35        32.42917
1024.73        76.45442
