SpectraSmart Spectrum 2.9.0.0
--------- Device Information -----------
Spectrum Name :  反射率_0
Saving Time :  2024/04/25 22:59:36
Spectro-Module Model Name : SE2030-DUVN
Spectro-Module Serial Number : OS361AC55029948
Wavelength Start : 200
Wavelength End : 1025
Wavelength Unit : Wavelength(nm)
Spectrum Unit : Reflectance(%)
-----------Spectrum Setting ------------
Integration Time : 20ms
Average : 10
Boxcar : 0
Background removal :  enabled
linearity correction :  enabled
SC :  disabled
Intensity correction :  disabled
DWT denoise :  enabled
savitzky-golay :  disabled
FFT :  disabled
Running average :  disabled
Kalman :  disabled
High pass :  disabled
---------------BEGIN--------------------
Wavelength(nm)             Reflectance(%)
200.29               0
200.75        97.59439
201.21        90.34895
201.67        82.13802
202.13        78.36044
202.58        79.60165
203.04         84.5327
203.50        90.34836
203.96         92.3165
204.42        89.65671
204.88        84.54966
205.34        79.64114
205.80         77.3073
206.26        78.07339
206.72        82.88971
207.18        93.43448
207.64        100.8807
208.10        91.05547
208.55        76.33628
209.01        68.64886
209.47        68.39398
209.93        72.96102
210.39        81.21754
210.85        90.50557
211.31        94.39855
211.77        90.59672
212.23        81.52026
212.69        71.86329
213.14        68.88845
213.60        73.84512
214.06        84.56741
214.52        96.77215
214.98        103.9215
215.44        104.2777
215.90        100.0657
216.36        94.05635
216.81        89.91217
217.27        88.94363
217.73        89.93508
218.19        91.00446
218.65        89.73482
219.11        85.24146
219.57        76.91131
220.02        66.72889
220.48        63.30385
220.94        70.46027
221.40        84.91237
221.86        96.68441
222.32        96.14383
222.77        85.22484
223.23        70.18162
223.69        57.37317
224.15        53.21851
224.61        57.04172
225.06         65.6538
225.52        74.72467
225.98        78.60112
226.44        76.28669
226.90        70.10889
227.36        63.28186
227.81        60.14498
228.27        61.81363
228.73        66.41682
229.19        71.73534
229.65        74.58242
230.10        74.37991
230.56        72.69781
231.02        70.86091
231.48         70.3342
231.93        71.22709
232.39        72.90022
232.85        74.79714
233.31        76.24616
233.77        76.98116
234.22        77.25835
234.68        77.02494
235.14        76.18687
235.60        74.86322
236.05        73.15561
236.51        71.35705
236.97        69.77037
237.43        68.42478
237.88        67.35244
238.34        66.53965
238.80        66.34892
239.26        66.93961
239.71        68.43333
240.17        70.19977
240.63        71.65917
241.08        72.64825
241.54        73.12305
242.00        73.39938
242.46        74.04524
242.91        75.70654
243.37        79.06174
243.83        89.04471
244.28        122.4351
244.74        161.2435
245.20        141.6706
245.66        122.5072
246.11        116.2083
246.57        116.6626
247.03        123.8766
247.48        144.3818
247.94        122.6249
248.40        97.78971
248.85        91.56845
249.31        90.71664
249.77        91.86857
250.22        94.51411
250.68        98.92854
251.14        105.1013
251.59        109.1834
252.05        107.1479
252.51        100.9022
252.96        93.20506
253.42        87.01502
253.88        82.08639
254.33        77.69952
254.79        75.44845
255.25        76.84596
255.70        81.03742
256.16        86.71825
256.62        91.18632
257.07         91.8287
257.53        89.39191
257.99        84.75156
258.44        79.78716
258.90        77.60936
259.35        77.33968
259.81        77.94037
260.27         77.5237
260.72         74.2813
261.18        69.11476
261.63        62.90968
262.09        57.41918
262.55        53.93579
263.00        52.34878
263.46        52.04039
263.91        52.00792
264.37        51.54779
264.83        50.44925
265.28         48.8861
265.74        47.36189
266.19        46.31592
266.65        45.95881
267.11         45.9807
267.56        45.96485
268.02        45.46882
268.47        44.38372
268.93        42.89537
269.38        41.29134
269.84        40.27553
270.30        40.01805
270.75        40.31606
271.21        40.74905
271.66        40.68174
272.12        39.96928
272.57        38.82108
273.03         37.6063
273.48        36.78299
273.94         36.4938
274.39        36.52307
274.85        36.64978
275.31         36.5312
275.76        36.06872
276.22        35.41636
276.67        34.68506
277.13        34.14195
277.58        33.78143
278.04        33.55552
278.49         33.3027
278.95        32.88633
279.40        32.24948
279.86        31.52764
280.31        30.78565
280.77        30.24395
281.22        29.89656
281.68        29.70329
282.13        29.58213
282.59         29.4723
283.04        29.32696
283.50        29.20039
283.95        29.03308
284.41        28.76987
284.86        28.39503
285.32        27.93162
285.77        27.48466
286.22        27.28443
286.68        27.33872
287.13        27.55557
287.59        27.72911
288.04        27.52998
288.50        26.94553
288.95        26.08133
289.41        25.19419
289.86        24.55416
290.32        24.28067
290.77        24.25565
291.22        24.39607
291.68        24.53671
292.13        24.62746
292.59        24.72506
293.04        24.85915
293.50        25.07833
293.95        25.38085
294.40        25.71322
294.86        26.04616
295.31        26.35248
295.77         26.6263
296.22        26.88269
296.68        27.11132
297.13        27.26391
297.58        27.35972
298.04        27.43465
298.49        27.56047
298.95        27.88499
299.40        28.41853
299.85         29.1077
300.31        29.85048
300.76        30.49475
301.21        30.97515
301.67        31.35345
302.12        31.62031
302.58        31.82506
303.03        31.97172
303.48        32.06108
303.94        32.18238
304.39        32.43749
304.84        32.84451
305.30        33.36432
305.75        33.85754
306.20        34.11993
306.66        34.13527
307.11        33.95916
307.57        33.73792
308.02          33.611
308.47        33.64857
308.93        33.79996
309.38        34.01993
309.83        34.27158
310.29         34.5165
310.74        34.75156
311.19        34.94214
311.65        35.03146
312.10        35.00837
312.55        34.89155
313.00        34.69558
313.46        34.46139
313.91        34.20765
314.36        33.94768
314.82        33.74502
315.27        33.67445
315.72        33.75029
316.18         33.9448
316.63        34.17776
317.08        34.29071
317.53        34.23885
317.99        34.05406
318.44        33.82352
318.89        33.69249
319.35        33.68953
319.80        33.78078
320.25         33.8704
320.70        33.80399
321.16        33.55138
321.61         33.1665
322.06        32.76066
322.51        32.50084
322.97        32.41309
323.42        32.45642
323.87        32.52499
324.32        32.44328
324.78        32.16822
325.23        31.77089
325.68        31.34517
326.13        31.04734
326.59        30.91723
327.04        30.92255
327.49        31.00904
327.94        31.09253
328.39        31.13807
328.85        31.15861
329.30          31.184
329.75        31.21408
330.20        31.25509
330.66        31.28424
331.11        31.32007
331.56         31.3504
332.01        31.37189
332.46        31.37364
332.92        31.37077
333.37        31.42995
333.82        31.54654
334.27        31.72302
334.72        31.86603
335.17         31.8205
335.63        31.55898
336.08        31.12926
336.53        30.70657
336.98        30.58066
337.43        30.80742
337.88        31.30783
338.34        31.83698
338.79        32.03921
339.24        31.80009
339.69        31.22567
340.14         30.5652
340.59        30.25553
341.05        30.40385
341.50        30.86538
341.95        31.40648
342.40        31.68856
342.85        31.63404
343.30        31.36772
343.75        31.00588
344.20        30.74769
344.66        30.66432
345.11        30.64725
345.56        30.68987
346.01        30.78748
346.46        30.91048
346.91        31.08142
347.36         31.1721
347.81        30.96909
348.26        30.46796
348.72         29.7732
349.17        29.08539
349.62        28.81615
350.07        29.05555
350.52         29.6602
350.97        30.41698
351.42        30.99638
351.87        31.29085
352.32        31.38756
352.77        31.32386
353.22         31.1664
353.67        30.95532
354.13        30.66888
354.58        30.35067
355.03        30.11791
355.48        29.99691
355.93        29.98289
356.38        30.00219
356.83        29.91942
357.28        29.70473
357.73        29.39508
358.18        29.07467
358.63        28.87645
359.08        28.82855
359.53        28.88885
359.98         28.9623
360.43        28.90453
360.88         28.6846
361.33        28.34449
361.78        27.98817
362.23        27.78351
362.68         27.7628
363.13        27.86408
363.58        27.97055
364.03        27.90216
364.48        27.62064
364.93        27.19389
365.38        26.71775
365.83        26.34271
366.28        26.11784
366.73        25.99731
367.18        25.94426
367.63        25.89996
368.08        25.83531
368.53        25.76627
368.98        25.68681
369.43        25.58017
369.88        25.44735
370.33        25.29609
370.78        25.12601
371.23        24.94524
371.68         24.7642
372.13        24.57746
372.58        24.43909
373.03        24.43574
373.48        24.57105
373.93        24.81219
374.38        25.04314
374.83        25.08566
375.28        24.90688
375.72        24.55124
376.17        24.15633
376.62        23.90984
377.07        23.86528
377.52        23.95935
377.97        24.11218
378.42          24.195
378.87          24.164
379.32        24.06144
379.77         23.9134
380.22        23.75199
380.67        23.59038
381.11        23.41785
381.56        23.23154
382.01         23.0408
382.46        22.85481
382.91        22.68213
383.36        22.53819
383.81        22.44063
384.26        22.39006
384.71        22.37772
385.15        22.37117
385.60        22.34058
386.05        22.26487
386.50        22.14226
386.95        21.99222
387.40        21.85554
387.85        21.75166
388.29        21.67354
388.74         21.6048
389.19        21.47764
389.64        21.28612
390.09        21.04235
390.54        20.82675
390.98        20.77127
391.43        20.90597
391.88        21.17494
392.33        21.44856
392.78        21.53646
393.23        21.41594
393.67        21.14527
394.12        20.88022
394.57        20.77055
395.02        20.84914
395.47        21.05939
395.91        21.32708
396.36         21.4891
396.81        21.49742
397.26        21.38759
397.71         21.2198
398.15        21.06304
398.60        20.97034
399.05        20.92448
399.50        20.88019
399.95        20.71465
400.39        20.51276
400.84        20.23954
401.29        20.00617
401.74        19.96851
402.18         20.1689
402.63        20.52489
403.08        20.92565
403.53        21.19422
403.97        21.27793
404.42        21.22487
404.87        21.07468
405.32        20.90233
405.76        20.74554
406.21         20.5958
406.66        20.47737
407.11        20.43185
407.55          20.467
408.00        20.57151
408.45        20.70684
408.90         20.7784
409.34        20.75534
409.79         20.6655
410.24        20.55848
410.68        20.50627
411.13        20.53223
411.58        20.61525
412.03        20.72878
412.47        20.83093
412.92        20.89014
413.37        20.92044
413.81         20.9435
414.26        21.01076
414.71        21.11976
415.15         21.2541
415.60        21.35696
416.05        21.35873
416.49        21.24929
416.94        21.06789
417.39        20.86583
417.83         20.7296
418.28        20.69341
418.73        20.71906
419.17        20.79852
419.62         20.9157
420.07        21.05377
420.51        21.22069
420.96        21.35057
421.41        21.33097
421.85        21.14585
422.30        20.86128
422.74        20.57615
423.19         20.4773
423.64        20.57972
424.08        20.84327
424.53        21.16186
424.98        21.38053
425.42        21.45235
425.87        21.40532
426.31        21.29774
426.76        21.28385
427.21        21.36558
427.65        21.35633
428.10        21.31917
428.54        21.50146
428.99        21.90792
429.44        22.40435
429.88        22.79393
430.33        22.90171
430.77        22.66068
431.22        22.02177
431.66        21.27813
432.11        21.06293
432.56        21.42423
433.00        22.03098
433.45        22.60647
433.89        22.99254
434.34         23.0274
434.78        22.55176
435.23        21.94284
435.67        21.96556
436.12         22.5563
436.57        22.91299
437.01         22.9069
437.46        22.90036
437.90        22.91895
438.35         22.8599
438.79        22.73918
439.24        22.64506
439.68        22.60976
440.13        22.51788
440.57        22.43098
441.02         22.7501
441.46        23.29946
441.91        23.25423
442.35        22.70477
442.80        22.46004
443.24          22.498
443.69        22.52309
444.13        22.47348
444.58        22.22222
445.02        21.87364
445.47        21.91257
445.91        22.25432
446.36        22.34758
446.80        22.15271
447.24        21.98679
447.69        21.90999
448.13        21.87146
448.58        21.89326
449.02        21.97768
449.47        22.09443
449.91        22.19261
450.36        22.25881
450.80        22.30139
451.25        22.33338
451.69        22.36167
452.13        22.39478
452.58        22.41531
453.02        22.43536
453.47        22.47916
453.91        22.54895
454.36        22.64532
454.80        22.72647
455.24        22.71524
455.69        22.61396
456.13        22.44417
456.58         22.2996
457.02        22.28414
457.46        22.42524
457.91        22.67452
458.35        22.95365
458.79        23.13783
459.24        23.20289
459.68        23.16909
460.13        23.09693
460.57        23.03036
461.01        23.00963
461.46        23.01498
461.90         23.0358
462.34        23.05581
462.79        23.06096
463.23        23.05004
463.68         23.0529
464.12          23.123
464.56        23.26371
465.01        23.47926
465.45        23.64131
465.89        23.64892
466.34        23.50948
466.78        23.12751
467.22        22.71124
467.67        22.82641
468.11        23.41052
468.55        23.76323
468.99         23.7758
469.44         23.7589
469.88        23.78277
470.32        23.93707
470.77        24.17404
471.21        24.24014
471.65        24.11841
472.10        24.03052
472.54        24.00965
472.98        24.02134
473.42         24.0778
473.87        24.20191
474.31        24.34963
474.75        24.44739
475.20        24.48517
475.64        24.46925
476.08        24.44346
476.52        24.47519
476.97        24.58061
477.41        24.74106
477.85        24.90383
478.29        25.03226
478.74        25.11534
479.18        25.04486
479.62        24.88659
480.06        25.13238
480.50        25.27311
480.95        25.43638
481.39        25.44488
481.83        25.26049
482.27        25.35745
482.72        25.13023
483.16        24.84296
483.60        25.01494
484.04        25.64783
484.48        26.00416
484.93        26.34369
485.37        26.87584
485.81        27.40945
486.25        27.54027
486.69        35.94255
487.14        28.68138
487.58        18.48907
488.02        23.15415
488.46        26.25403
488.90        26.18706
489.34        26.78654
489.79        26.57544
490.23        27.82848
490.67        28.41518
491.11        28.13429
491.55        28.15203
491.99        28.33689
492.43          28.291
492.88        28.06886
493.32        28.08897
493.76        28.18746
494.20         28.4364
494.64         28.7503
495.08        29.16046
495.52        29.60851
495.96         29.9155
496.41        30.03955
496.85        30.24309
497.29        30.49545
497.73        30.17458
498.17         29.6511
498.61        29.89703
499.05        30.91424
499.49        31.13822
499.93        31.28903
500.37        31.40043
500.82        31.40117
501.26        31.66906
501.70        32.05114
502.14        32.23909
502.58        32.19762
503.02        32.20111
503.46        32.26218
503.90        32.21501
504.34        32.10143
504.78        32.06953
505.22        32.14042
505.66        32.27867
506.10        32.44754
506.54        32.58117
506.98        32.65974
507.42         32.7063
507.86        32.75311
508.30        32.84867
508.74        33.00175
509.18        33.18802
509.62        33.37953
510.06          33.534
510.50        33.63814
510.94        33.71011
511.38        33.75596
511.82        33.78291
512.26        33.80014
512.70        33.80523
513.14        33.82042
513.58        33.88374
514.02         33.9915
514.46        34.12391
514.90        34.24886
515.34        34.28535
515.78        34.19553
516.22         34.1359
516.66        34.13487
517.10        33.86214
517.54        33.32851
517.98        33.89121
518.42        33.62355
518.86        33.86649
519.30         34.0312
519.74         34.2818
520.18        34.54789
520.62        34.69184
521.06         34.7064
521.50        34.61121
521.93        34.45742
522.37        34.33761
522.81        34.28381
523.25        34.27596
523.69        34.29828
524.13        34.32584
524.57        34.34767
525.01        34.36977
525.45        34.39793
525.89        34.43838
526.32        34.48219
526.76        34.52031
527.20        34.52174
527.64        34.45214
528.08         34.3173
528.52        34.10487
528.96        33.84573
529.40        33.68274
529.83        33.65269
530.27        33.37514
530.71        33.48886
531.15        33.42779
531.59        33.37961
532.03        33.33481
532.46        33.32395
532.90        33.38596
533.34        33.51144
533.78        33.67913
534.22        33.82931
534.66        33.88068
535.09        33.81123
535.53        33.65745
535.97        33.46685
536.41        33.32435
536.85        33.25911
537.28        33.25634
537.72        33.28432
538.16        33.29334
538.60        33.27406
539.04         33.2208
539.47        33.17495
539.91        33.28387
540.35        33.51867
540.79        33.71259
541.22        33.83311
541.66        33.96735
542.10         34.1006
542.54        34.15967
542.97         34.1764
543.41         34.2573
543.85        34.41485
544.29        34.63725
544.72         34.8587
545.16        34.99186
545.60        35.01889
546.04        34.96033
546.47        34.93142
546.91        35.12467
547.35         35.5544
547.79        36.16612
548.22        36.76463
548.66        37.02135
549.10        36.89717
549.53         36.5503
549.97        36.20107
550.41        36.10434
550.84        36.33673
551.28         36.8348
551.72        37.45307
552.15        37.92447
552.59         38.1632
553.03        38.24969
553.46        38.25546
553.90        38.31668
554.34        38.48484
554.77        38.65903
555.21        38.80434
555.65        38.98365
556.08        39.20395
556.52        38.98855
556.96         39.2668
557.39        39.30709
557.83        39.39719
558.27        39.54734
558.70        39.68148
559.14        39.89686
559.57        40.14009
560.01        40.42199
560.45        40.66497
560.88        40.74841
561.32        40.68541
561.75        40.49561
562.19        40.29971
562.63        40.21704
563.06        40.27762
563.50        40.47818
563.93        40.73403
564.37        40.90876
564.80        40.96181
565.24         40.9648
565.68        40.95853
566.11        41.01578
566.55        41.18193
566.98        41.37069
567.42        41.58289
567.85        41.91034
568.29        42.31709
568.72        42.47568
569.16        42.48732
569.60        42.77237
570.03        43.14899
570.47          43.102
570.90        42.84809
571.34        42.06324
571.77        42.83046
572.21        42.96587
572.64        43.06177
573.08        42.57209
573.51        40.82565
573.95        42.46548
574.38        45.17558
574.82        44.14298
575.25         43.8294
575.69         42.4464
576.12        41.93489
576.56        41.46659
576.99        42.52345
577.42        44.59972
577.86        44.53418
578.29        44.05786
578.73        46.35728
579.16        42.64056
579.60        39.06262
580.03        40.79359
580.47        43.36232
580.90        44.16848
581.33        43.11103
581.77        42.74781
582.20        46.62416
582.64        46.13548
583.07        39.50123
583.51        38.75259
583.94        38.11087
584.37        39.72822
584.81        41.52751
585.24        43.55026
585.68        44.46236
586.11        43.68345
586.54          40.284
586.98        39.35741
587.41        39.98122
587.85        42.12993
588.28        43.01721
588.71        40.78126
589.15        39.68874
589.58        40.45473
590.01        40.68866
590.45        41.47475
590.88        41.84634
591.31        41.50148
591.75        41.32342
592.18        41.42411
592.61        42.34572
593.05        42.71574
593.48        44.63977
593.91        44.93757
594.35        41.27999
594.78        40.60539
595.21        40.71019
595.65        42.74954
596.08        44.48619
596.51        42.68237
596.94        41.86559
597.38        42.51126
597.81        44.51442
598.24        45.40521
598.68        44.71797
599.11        44.58775
599.54        46.68039
599.97        47.97012
600.41        44.85338
600.84        45.21945
601.27         46.5198
601.70        46.33792
602.14        46.59806
602.57        46.36092
603.00        47.20001
603.43        48.71926
603.87        50.15096
604.30        50.15569
604.73        49.01221
605.16        48.62146
605.60        49.66788
606.03        50.96675
606.46        52.16526
606.89        52.05679
607.32        51.13285
607.76        51.36459
608.19        53.42955
608.62        53.12262
609.05        52.61757
609.48        53.33909
609.92        53.53162
610.35        53.44245
610.78        55.60656
611.21        56.27164
611.64        54.10629
612.07        54.87951
612.50        55.42492
612.94        56.04866
613.37         55.9231
613.80        56.21783
614.23        56.95719
614.66        57.14113
615.09        57.57031
615.52        57.79837
615.96         57.9547
616.39        58.23573
616.82        57.64738
617.25        57.86505
617.68        58.66386
618.11        59.38428
618.54         59.8077
618.97        59.50843
619.40        58.88164
619.84        58.97396
620.27        60.02411
620.70        60.90205
621.13        61.55261
621.56        60.75731
621.99        60.18561
622.42        61.07945
622.85        62.99826
623.28        62.24075
623.71        61.82687
624.14        61.98989
624.57        61.66592
625.00        61.35616
625.43        61.64091
625.86        61.12603
626.29         61.2739
626.72        61.60642
627.15        61.25227
627.58        61.29465
628.01        61.32944
628.44        61.19418
628.87        60.95594
629.30        60.85641
629.73         61.0158
630.16        61.08077
630.59        60.43036
631.02        59.88832
631.45         59.3632
631.88         58.9115
632.31         58.5624
632.74        58.30778
633.17        58.10978
633.60        57.88562
634.03        57.60902
634.46        57.30447
634.89        56.96566
635.32        56.58435
635.75        56.16756
636.18        55.71307
636.61        55.25813
637.04        54.86366
637.47        54.53287
637.89        54.26125
638.32        53.99468
638.75        53.64774
639.18         53.2049
639.61        52.82854
640.04        52.32852
640.47        51.90857
640.90        51.52428
641.33        51.16821
641.76        50.85756
642.18        50.70031
642.61        50.70119
643.04        50.71058
643.47        50.63611
643.90        50.98457
644.33        50.68007
644.76        50.60633
645.18        50.48682
645.61        50.40376
646.04        50.37264
646.47        50.36572
646.90        50.43936
647.33        50.66608
647.75        51.06585
648.18        51.60705
648.61        52.10377
649.04        52.47198
649.47        52.35123
649.89        51.92134
650.32         51.4781
650.75        51.69469
651.18        52.60922
651.61        53.92676
652.03        55.18571
652.46        55.60319
652.89         55.4893
653.32         55.2001
653.74        55.10303
654.17        56.74639
654.60        57.63924
655.03        55.89929
655.46        57.64081
655.88        60.59286
656.31        64.78915
656.74        144.6304
657.16        92.51742
657.59        32.32193
658.02        25.31132
658.45        44.71156
658.87        58.40681
659.30        61.12789
659.73        60.81696
660.15        58.84958
660.58        61.45723
661.01        63.48574
661.44        61.96266
661.86        61.51151
662.29        61.50933
662.72        62.49236
663.14        64.19145
663.57        64.31641
664.00        63.14296
664.42        63.02783
664.85        64.07178
665.27        64.84541
665.70        65.10101
666.13         65.2194
666.55        65.16776
666.98        64.85231
667.41        64.46261
667.83        64.34965
668.26        64.59449
668.69        65.06302
669.11        65.56024
669.54        66.07323
669.96        65.91195
670.39        65.72287
670.82        65.47501
671.24        65.33138
671.67        65.43571
672.09        65.92168
672.52        66.53498
672.94        67.14533
673.37        66.59999
673.80        66.57774
674.22        66.79771
674.65        66.94786
675.07        67.00838
675.50        67.01499
675.92        67.03397
676.35        67.21002
676.77          67.559
677.20        67.93912
677.62        68.28773
678.05        68.55456
678.47        68.68268
678.90         68.6236
679.32        68.46732
679.75        68.31791
680.17        68.47911
680.60         68.6351
681.02        68.80909
681.45        68.87583
681.87        68.81514
682.30        68.77347
682.72        68.79435
683.15        68.70226
683.57        68.65338
684.00        69.10625
684.42        70.05386
684.85        70.54771
685.27        70.53581
685.70        70.43832
686.12        70.34096
686.54        70.27665
686.97         70.2838
687.39        70.36637
687.82        70.47189
688.24        70.56875
688.66        70.62464
689.09        70.66216
689.51        70.72284
689.94        70.83849
690.36        71.02164
690.78        71.26162
691.21        71.52155
691.63        71.71059
692.06         71.8055
692.48        71.98966
692.90        72.02222
693.33        72.16628
693.75         72.3471
694.17        72.59367
694.60        72.86555
695.02        72.99635
695.44        72.96346
695.87        73.16879
696.29        73.59525
696.71        73.39027
697.14        72.79312
697.56        73.38422
697.98        74.83828
698.41        74.74976
698.83        73.87476
699.25        73.27669
699.68        73.30754
700.10        73.27762
700.52        73.22473
700.94        73.52771
701.37        74.08568
701.79        74.61873
702.21         75.0183
702.64        75.37167
703.06        75.59407
703.48        75.56788
703.90        75.31416
704.33        74.80525
704.75        74.24326
705.17        74.19787
705.59        74.69167
706.01        75.15545
706.44         75.4131
706.86         76.1146
707.28        76.17118
707.70        76.28767
708.12        76.21339
708.55        76.02464
708.97        75.78654
709.39        75.69427
709.81        75.76357
710.23        75.79949
710.66        75.79633
711.08        75.92423
711.50        76.11508
711.92        76.20116
712.34        76.15788
712.76        76.01438
713.19        75.86285
713.61        75.88657
714.03        76.10783
714.45        76.47703
714.87        76.83584
715.29        76.94875
715.71        76.77391
716.13         76.3624
716.56        75.89785
716.98        75.84251
717.40        76.05313
717.82        76.60244
718.24        77.22179
718.66        77.56881
719.08        77.54704
719.50        77.25986
719.92        76.87688
720.34        76.68336
720.76        76.75938
721.19        76.89267
721.61        77.21532
722.03        77.39967
722.45        77.45963
722.87        77.44353
723.29        77.41528
723.71         77.4648
724.13         77.6106
724.55        77.81494
724.97        78.02518
725.39        78.13081
725.81        78.10444
726.23        78.05022
726.65        78.03615
727.07        77.81895
727.49        77.97505
727.91        78.05235
728.33        78.19034
728.75        78.32563
729.17        78.43882
729.59        78.55123
730.01        78.68619
730.43        78.82215
730.85        78.99489
731.27        79.35839
731.69        79.78185
732.10        79.90665
732.52         79.6837
732.94        79.30624
733.36        78.99177
733.78        78.87818
734.20        79.01415
734.62        79.75257
735.04        80.78073
735.46         80.6362
735.88        79.63633
736.30        79.94179
736.72        81.47496
737.13        82.06723
737.55         81.4332
737.97        81.30853
738.39          81.728
738.81        80.96709
739.23        79.54871
739.65        80.44034
740.06        83.06777
740.48         83.4271
740.90        81.61812
741.32        80.69291
741.74        81.29174
742.16        81.52666
742.57        81.55806
742.99        82.26397
743.41        83.42024
743.83        84.14598
744.25        84.31922
744.67        84.13262
745.08          84.014
745.50        83.95516
745.92        84.12511
746.34        84.46149
746.75         84.8551
747.17        85.07633
747.59         85.1046
748.01        85.06167
748.42        85.06203
748.84        85.26472
749.26        85.76059
749.68         86.3654
750.09        86.98672
750.51        87.89851
750.93        88.77159
751.35        88.41521
751.76        87.13931
752.18        86.67387
752.60        87.06534
753.01        87.11655
753.43        86.82765
753.85        86.97829
754.27         87.5957
754.68         88.3739
755.10        89.13642
755.52        89.76888
755.93        90.17265
756.35        90.30031
756.77        90.27736
757.18        90.29669
757.60        90.42422
758.02        90.82822
758.43        91.06895
758.85        90.99445
759.26        88.48866
759.68          88.455
760.10        90.52032
760.51         91.1881
760.93        90.35994
761.34        88.79734
761.76        88.74576
762.18         88.0409
762.59         87.5727
763.01        88.14304
763.42        89.65353
763.84        90.81014
764.26        91.30771
764.67        91.39248
765.09        91.11552
765.50        90.74241
765.92        90.30132
766.33        89.10693
766.75        87.61497
767.16        87.21523
767.58        88.03266
768.00        89.46917
768.41        91.25734
768.83        92.80973
769.24        93.50545
769.66        93.24829
770.07        92.29889
770.49        90.15166
770.90        87.67289
771.32        88.56739
771.73        92.02152
772.15        91.80879
772.56        88.38523
772.97        87.74679
773.39        89.82355
773.80        90.65541
774.22        89.93316
774.63        89.77944
775.05        90.19173
775.46        90.43021
775.88        90.41469
776.29        90.27398
776.70         90.0724
777.12        90.02128
777.53        90.16885
777.95        90.38128
778.36        90.54615
778.77        90.44556
779.19        90.08904
779.60        89.61326
780.02        89.20157
780.43        89.10352
780.84        89.52278
781.26        90.10873
781.67         90.7566
782.09        92.20083
782.50        93.69897
782.91        92.31253
783.33        89.00254
783.74        87.86926
784.15        89.15411
784.57        90.29353
784.98         90.7783
785.39        90.97704
785.81        90.78013
786.22        90.11588
786.63        89.43262
787.04        89.38303
787.46        90.06297
787.87        91.30674
788.28        92.68742
788.70        93.37933
789.11        93.18967
789.52        92.53262
789.93        91.73351
790.35        90.97215
790.76        90.50734
791.17        90.82214
791.58        91.71512
792.00        92.16877
792.41        92.00668
792.82         91.9797
793.23        92.19897
793.65        91.64452
794.06        90.76604
794.47        91.92591
794.88        94.25442
795.29        93.91665
795.71        91.16736
796.12        88.89641
796.53        88.03426
796.94        87.59014
797.35        87.84184
797.76        89.31945
798.18        91.31707
798.59        92.57169
799.00        92.68537
799.41        91.28693
799.82        90.14671
800.23        89.23362
800.64        89.16049
801.06        89.51455
801.47        90.15214
801.88        90.69646
802.29         90.9744
802.70        91.14109
803.11        91.19935
803.52        91.12405
803.93        90.95837
804.34        90.66748
804.75        90.35476
805.17        90.35375
805.58         90.7766
805.99        91.07786
806.40        91.15458
806.81        91.97141
807.22        92.91766
807.63        91.48975
808.04        88.46663
808.45        87.25219
808.86        88.13897
809.27        89.41652
809.68        90.54073
810.09        91.26254
810.50        91.30682
810.91         90.7763
811.32        90.01437
811.73        89.55638
812.14        89.55097
812.55        89.86147
812.96         90.3823
813.37        90.72125
813.78        90.86066
814.19        91.36559
814.60        91.93881
815.01        91.72696
815.42        90.69178
815.83        89.16208
816.24        87.72687
816.65        87.30871
817.05        88.19225
817.46        90.07204
817.87        92.20358
818.28        93.24809
818.69         92.8304
819.10        91.27825
819.51        89.36178
819.92        88.41577
820.33        88.80303
820.74        90.07661
821.14        91.56238
821.55        92.16093
821.96        91.56952
822.37        90.01338
822.78        88.15044
823.19        87.12103
823.60        87.18307
824.00         87.9687
824.41         89.0293
824.82        89.81028
825.23        90.03951
825.64        89.92097
826.04         89.6239
826.45        89.39192
826.86        89.30472
827.27          89.231
827.68        89.17873
828.08        89.23427
828.49        89.32268
828.90        89.51405
829.31        89.68048
829.72        89.56182
830.12        89.14737
830.53         88.5211
830.94        87.94361
831.35        87.75934
831.75        88.08591
832.16        88.75655
832.57        89.64285
832.97        90.44054
833.38        90.92497
833.79        91.15298
834.20        91.20554
834.60        91.21846
835.01        91.26628
835.42        91.30166
835.82        91.22517
836.23        90.79863
836.64        90.05791
837.04        89.12415
837.45        88.28768
837.86        87.99561
838.26        88.34558
838.67        89.16562
839.08        90.15823
839.48         90.7672
839.89        90.77528
840.29        90.36166
840.70        89.73122
841.11        89.18499
841.51        88.83225
841.92        88.54638
842.33        88.35719
842.73        88.33256
843.14          88.427
843.54        88.70302
843.95        88.95906
844.35        88.91852
844.76        88.51967
845.17        87.85114
845.57        87.16886
845.98        86.88935
846.38        87.09455
846.79         87.6369
847.19        88.29716
847.60        88.56941
848.00        88.36232
848.41        87.81533
848.81         87.1847
849.22        86.77656
849.62        86.73838
850.03        86.97725
850.43         87.4423
850.84        87.92008
851.24        88.36676
851.65        88.62287
852.05         88.9015
852.46        89.35204
852.86        89.99203
853.27        90.80709
853.67        91.19683
854.07        90.38902
854.48        88.43092
854.88        85.61069
855.29        82.96786
855.69        82.00328
856.10         83.0039
856.50        85.78732
856.90        89.35448
857.31        91.39505
857.71        91.16463
858.12        89.26554
858.52        86.84921
858.92        85.46349
859.33        85.44183
859.73        86.38241
860.13          87.892
860.54         89.1415
860.94        89.84008
861.34        90.16238
861.75        90.27358
862.15         90.5235
862.55         90.9617
862.96        91.42738
863.36        91.74249
863.76        91.59138
864.17        90.95377
864.57        90.05453
864.97        89.24008
865.38        88.99921
865.78        89.46721
866.18        90.39577
866.58        91.52794
866.99        92.40305
867.39        92.91427
867.79        93.21124
868.19        93.15969
868.60        92.52624
869.00        91.38444
869.40        89.79478
869.80          88.494
870.21        88.62177
870.61        90.47369
871.01        93.72934
871.41        97.34684
871.81        99.51299
872.22         99.7036
872.62         98.4053
873.02        96.63794
873.42          96.051
873.82        96.99541
874.22        99.02915
874.63        101.3785
875.03        102.3344
875.43        101.2184
875.83        98.87268
876.23        96.57759
876.63        95.82679
877.03        97.07484
877.44         100.603
877.84        98.07163
878.24        108.0843
878.64        106.5584
879.04         102.795
879.44        100.2389
879.84        98.97435
880.24        100.0352
880.64        102.0567
881.04        105.0461
881.44        106.9651
881.84        106.4071
882.24        104.1354
882.65        101.6935
883.05        100.9895
883.45        102.3674
883.85         105.341
884.25        108.7535
884.65        110.5073
885.05        109.9482
885.45        107.8332
885.85        105.4448
886.25         104.518
886.65        105.3986
887.05        107.5053
887.45        110.0183
887.85        111.4793
888.25        111.3893
888.65        110.2711
889.04        108.6666
889.44        107.4508
889.84         106.893
890.24        106.6725
890.64        106.6953
891.04        106.8565
891.44        107.0674
891.84        107.4371
892.24        107.7706
892.64        107.6568
893.04        107.0916
893.44        106.2689
893.83        105.5345
894.23        105.4449
894.63        106.0684
895.03        107.1611
895.43        108.6129
895.83        110.1751
896.23        111.6251
896.63        113.0109
897.02        113.8597
897.42        113.4335
897.82        111.7388
898.22        109.0764
898.62        106.4074
899.01        105.1345
899.41        105.5544
899.81        107.2097
900.21        109.3223
900.61        110.5967
901.00        110.6578
901.40         109.922
901.80        108.8633
902.20        108.2284
902.59        108.2448
902.99        108.6288
903.39        109.1546
903.79        109.4613
904.18        109.4297
904.58        109.2626
904.98         109.084
905.38        109.0577
905.77         109.201
906.17        109.4113
906.57        109.6518
906.96        109.9413
907.36         110.202
907.76        110.4576
908.15        110.5617
908.55        110.1524
908.95        109.2479
909.34        107.9307
909.74        106.6283
910.14        105.8337
910.53        105.7155
910.93        106.2125
911.33        107.0686
911.72        107.7956
912.12        108.1587
912.52        108.2347
912.91        108.3097
913.31        108.8361
913.70        109.9405
914.10        111.4985
914.49        113.0696
914.89        113.3419
915.29        111.9612
915.68        109.4048
916.08        106.9065
916.47        105.5338
916.87        105.4546
917.26         106.342
917.66        107.4878
918.05        107.7886
918.45        106.9676
918.84        105.4241
919.24        103.9422
919.64        103.6423
920.03        104.7821
920.42        106.9651
920.82        109.4274
921.21        111.0082
921.61          111.17
922.00          110.35
922.40        109.0038
922.79        107.6763
923.19        106.5789
923.58        105.6543
923.98        104.9621
924.37        104.3581
924.77        103.9513
925.16        104.5649
925.55        104.8524
925.95        106.1115
926.34        107.8075
926.74        109.6314
927.13        111.2185
927.52        111.8281
927.92        111.4406
928.31        110.2816
928.70        108.6389
929.10        107.0174
929.49        105.5983
929.89        104.3084
930.28        103.5327
930.67        103.8907
931.07        105.3016
931.46        107.6307
931.85        109.9366
932.24        110.7978
932.64        109.9433
933.03        107.6887
933.42        104.7022
933.82        102.5603
934.21        101.7761
934.60        101.9293
934.99        102.6164
935.39        103.2619
935.78        103.7493
936.17        104.5405
936.56        105.4441
936.96        104.6391
937.35        103.6429
937.74        101.6615
938.13         100.197
938.53        100.1515
938.92        101.4834
939.31        104.0501
939.70        107.0367
940.09        108.3008
940.49        107.0754
940.88        104.2223
941.27        101.1558
941.66        99.54066
942.05        99.61457
942.44        100.8352
942.84        102.6222
943.23        104.0848
943.62        104.7607
944.01        104.9136
944.40        104.7653
944.79        104.6504
945.18        104.6723
945.57        104.6506
945.97        104.3686
946.36        103.6186
946.75        102.4965
947.14        101.3648
947.53        100.5147
947.92        100.1003
948.31         100.105
948.70        100.4867
949.09         101.204
949.48        102.1049
949.87        103.0094
950.26        103.8039
950.65        104.4732
951.04         105.077
951.43        105.6043
951.82        106.0131
952.21        106.0074
952.60        105.1826
952.99        103.5546
953.38         101.316
953.77        99.12518
954.16        97.90446
954.55        97.82702
954.94        98.73092
955.33        99.86832
955.72        99.94337
956.11        98.66293
956.50        96.36294
956.89        94.07681
957.28         93.7107
957.66        95.82539
958.05         99.5188
958.44         103.519
958.83        105.9597
959.22        106.3402
959.61        105.1546
960.00        103.0989
960.39        101.3134
960.78        100.2197
961.16        99.56912
961.55        98.99475
961.94        97.96484
962.33        96.43027
962.72        94.74191
963.11        93.40981
963.49        93.01643
963.88        93.62053
964.27        95.08051
964.66        96.82094
965.04        97.64792
965.43        97.03586
965.82        95.43385
966.21         93.7155
966.60        93.02796
966.98        93.57803
967.37        94.97709
967.76         96.6422
968.15        97.43986
968.53        97.00438
968.92        95.72111
969.31        94.19954
969.69        93.20186
970.08        92.93517
970.47        93.20992
970.86        93.66882
971.24         93.7246
971.63        93.17204
972.02        92.16647
972.40        91.30188
972.79        91.53788
973.17        93.24995
973.56        96.03716
973.95        98.93525
974.33        100.1126
974.72        99.02792
975.11        96.31892
975.49        93.33926
975.88        91.91322
976.26        92.33007
976.65        94.22106
977.04        96.56494
977.42        96.87848
977.81          94.313
978.19        89.91898
978.58         86.0618
978.96         85.1867
979.35        87.63574
979.74        92.85062
980.12        99.56406
980.51        103.5704
980.89        103.4934
981.28         100.566
981.66        96.63834
982.05        94.08961
982.43        93.35181
982.82        93.63593
983.20        94.69193
983.59        96.34876
983.97        98.53907
984.35         101.503
984.74        104.5243
985.12        106.2697
985.51        105.7537
985.89        103.1596
986.28        99.28606
986.66        95.63057
987.04        93.14316
987.43        91.79226
987.81        91.19774
988.20        90.82728
988.58        90.47865
988.96        90.15627
989.35         90.4798
989.73        93.39318
990.12        98.57345
990.50        104.3557
990.88        107.8019
991.27        107.4455
991.65        103.8366
992.03        97.52206
992.42        90.49764
992.80        86.62328
993.18        87.17162
993.56        90.28667
993.95        94.02521
994.33        96.52328
994.71         97.3424
995.10        97.38464
995.48        96.74229
995.86        95.35139
996.24        93.31702
996.63        90.29292
997.01        87.16711
997.39        86.56181
997.77        89.46124
998.15        95.14108
998.54        101.0279
998.92        103.8266
999.30        102.5264
999.68        98.03655
1000.06        91.48026
1000.45        85.90306
1000.83        82.83116
1001.21        81.46255
1001.59        81.65498
1001.97        83.28265
1002.35        86.16779
1002.73         91.0481
1003.12        96.45752
1003.50        97.82662
1003.88        93.05542
1004.26        84.28724
1004.64        76.05453
1005.02        72.31003
1005.40         73.4209
1005.78        79.42828
1006.16        90.44051
1006.54        99.66037
1006.92        100.7106
1007.30        96.81181
1007.69        92.88744
1008.07        92.12604
1008.45        95.09061
1008.83        103.0089
1009.21        120.6741
1009.59        151.6003
1009.97        174.8547
1010.35        127.8179
1010.73         55.8192
1011.11        45.82893
1011.49         58.2336
1011.86        73.24667
1012.24        83.44952
1012.62        87.97182
1013.00        88.81966
1013.38        87.46133
1013.76        86.63653
1014.14        94.29655
1014.52        116.7285
1014.90        155.3094
1015.28        200.1261
1015.66        224.6308
1016.04        212.1222
1016.41        166.5583
1016.79        111.7078
1017.17        75.96835
1017.55        62.47541
1017.93         59.7448
1018.31        62.26445
1018.69        67.71353
1019.06        76.06238
1019.44        89.63657
1019.82        111.4926
1020.20        140.4158
1020.58         173.666
1020.95        209.6045
1021.33        262.0217
1021.71        -707.142
1022.09        50.17273
1022.46         86.9247
1022.84        96.92004
1023.22        100.4046
1023.60        100.8209
1023.97        77.25114
1024.35         124.222
1024.73        124.6832
