SpectraSmart Spectrum 2.9.0.0
--------- Device Information -----------
Spectrum Name :  反射率_0
Saving Time :  2024/04/25 23:02:19
Spectro-Module Model Name : SE2030-DUVN
Spectro-Module Serial Number : OS361AC55029948
Wavelength Start : 200
Wavelength End : 1025
Wavelength Unit : Wavelength(nm)
Spectrum Unit : Reflectance(%)
-----------Spectrum Setting ------------
Integration Time : 20ms
Average : 10
Boxcar : 0
Background removal :  enabled
linearity correction :  enabled
SC :  disabled
Intensity correction :  disabled
DWT denoise :  enabled
savitzky-golay :  disabled
FFT :  disabled
Running average :  disabled
Kalman :  disabled
High pass :  disabled
---------------BEGIN--------------------
Wavelength(nm)             Reflectance(%)
200.29               0
200.75         93.8081
201.21        85.66843
201.67        77.02208
202.13        72.54048
202.58        72.64178
203.04        76.44854
203.50         81.5332
203.96        83.61988
204.42        81.92139
204.88        78.20309
205.34        74.80672
205.80        74.13462
206.26        77.14253
206.72        85.80348
207.18         103.829
207.64         120.602
208.10        111.6694
208.55        91.00205
209.01        78.04839
209.47        74.60719
209.93        76.96916
210.39         83.2177
210.85        90.27782
211.31         91.4726
211.77        84.86066
212.23        73.22688
212.69        61.88339
213.14        58.89473
213.60        65.57713
214.06        79.42944
214.52        95.33672
214.98        105.4342
215.44        107.5148
215.90        104.1105
216.36        98.09124
216.81        93.34814
217.27        91.40885
217.73        90.99105
218.19        90.65942
218.65          88.522
219.11        83.74503
219.57        75.83707
220.02        66.17915
220.48        61.65486
220.94        65.66908
221.40        76.03291
221.86        85.10521
222.32        85.24139
222.77        77.69193
223.23        67.27103
223.69        58.64972
224.15        56.65432
224.61        60.75713
225.06        68.49192
225.52        76.68023
225.98         81.2534
226.44        81.38056
226.90        78.72485
227.36        75.24242
227.81        73.53799
228.27        74.48705
228.73        76.86291
229.19        79.65123
229.65        81.42004
230.10         81.8182
230.56        81.68803
231.02        81.39766
231.48        81.35402
231.93        81.58306
232.39        81.87732
232.85        82.27978
233.31        83.00735
233.77           84.01
234.22        85.31901
234.68        86.30003
235.14        85.77545
235.60        83.58663
236.05        80.23856
236.51        76.81944
236.97         74.7522
237.43        74.35645
237.88        75.49142
238.34         77.6426
238.80        79.63112
239.26         80.5869
239.71        80.88654
240.17        80.28162
240.63        79.21492
241.08         78.0767
241.54        76.63812
242.00        75.31317
242.46          74.544
242.91        74.66382
243.37        76.10508
243.83        82.51162
244.28         108.104
244.74         144.035
245.20        132.8255
245.66        119.3098
246.11        118.0502
246.57        126.8475
247.03        155.0116
247.48        239.4862
247.94        211.6384
248.40        125.5005
248.85           97.31
249.31        88.33321
249.77        86.63169
250.22        88.73691
250.68        94.07889
251.14        102.6237
251.59        109.2866
252.05        108.5014
252.51        102.5451
252.96        94.83821
253.42        89.25166
253.88        85.69476
254.33        82.83871
254.79         82.2261
255.25        85.35282
255.70        91.05511
256.16         98.0397
256.62        103.2925
257.07        103.8386
257.53        100.7084
257.99        95.10362
258.44        89.25217
258.90        86.72891
259.35        86.56944
259.81        87.50825
260.27         87.5082
260.72        84.63596
261.18        79.79818
261.63         73.8587
262.09        68.49656
262.55        64.83612
263.00        62.80552
263.46        61.93873
263.91        61.37289
264.37        60.62597
264.83        59.44341
265.28        57.91022
265.74        56.39937
266.19        55.12391
266.65        54.33159
267.11        53.83451
267.56        53.33739
268.02        52.54699
268.47        51.33989
268.93        49.84711
269.38        48.30961
269.84        47.35415
270.30        47.12078
270.75        47.42966
271.21        47.85703
271.66        47.75759
272.12        46.99214
272.57         45.7564
273.03        44.45056
273.48        43.57825
273.94        43.28925
274.39         43.3445
274.85         43.4892
275.31        43.31355
275.76        42.71473
276.22        41.89461
276.67        40.99059
277.13        40.32396
277.58        39.89528
278.04        39.63663
278.49        39.39274
278.95         39.0599
279.40        38.55346
279.86        37.99274
280.31        37.35611
280.77        36.75137
281.22        36.15861
281.68        35.60057
282.13        35.07546
282.59        34.65232
283.04        34.30689
283.50        34.06026
283.95        33.82233
284.41        33.49562
284.86        33.04922
285.32        32.53786
285.77        32.04898
286.22        31.78907
286.68        31.76729
287.13        31.88135
287.59        31.98124
288.04        31.81951
288.50        31.38419
288.95         30.7379
289.41         30.0422
289.86          29.416
290.32         28.9655
290.77        28.63085
291.22        28.42878
291.68        28.34346
292.13        28.36045
292.59        28.48806
293.04        28.70871
293.50        28.99761
293.95        29.32246
294.40        29.65521
294.86        29.96256
295.31        30.20496
295.77        30.38351
296.22        30.51567
296.68        30.62018
297.13        30.70165
297.58         30.7932
298.04        30.91819
298.49        31.12961
298.95        31.54455
299.40        32.15896
299.85        32.92587
300.31        33.73605
300.76        34.42537
301.21         34.9275
301.67          35.307
302.12        35.56492
302.58        35.77645
303.03        35.94818
303.48        36.07777
303.94        36.24615
304.39        36.53773
304.84        36.96669
305.30        37.49701
305.75        37.99417
306.20        38.26472
306.66        38.29515
307.11        38.13564
307.57        37.92288
308.02        37.77504
308.47        37.76443
308.93        37.85036
309.38        38.00831
309.83        38.23635
310.29        38.50335
310.74        38.79247
311.19        39.04897
311.65        39.18417
312.10         39.1767
312.55        39.05455
313.00        38.84134
313.46        38.59464
313.91        38.33809
314.36        38.07817
314.82        37.87635
315.27        37.80164
315.72        37.86933
316.18        38.05689
316.63        38.28407
317.08        38.39025
317.53        38.33074
317.99        38.13524
318.44        37.90054
318.89        37.78785
319.35        37.82576
319.80        37.97783
320.25         38.1228
320.70        38.06434
321.16        37.76446
321.61        37.28932
322.06        36.78572
322.51        36.47666
322.97        36.39817
323.42        36.49313
323.87        36.62025
324.32         36.5435
324.78        36.20226
325.23        35.68886
325.68        35.12534
326.13        34.71473
326.59        34.51143
327.04        34.47198
327.49        34.52862
327.94        34.57539
328.39        34.57077
328.85        34.53722
329.30        34.51436
329.75        34.51081
330.20        34.53664
330.66         34.5631
331.11        34.60929
331.56        34.66277
332.01        34.72072
332.46        34.77632
332.92        34.83269
333.37        34.94362
333.82        35.09452
334.27        35.28036
334.72        35.43184
335.17        35.43795
335.63        35.27513
336.08        34.98109
336.53        34.66846
336.98        34.52857
337.43        34.60606
337.88        34.85921
338.34        35.13532
338.79        35.23299
339.24        35.07784
339.69        34.73187
340.14         34.3644
340.59        34.26684
341.05        34.49404
341.50         34.9395
341.95        35.40952
342.40        35.62841
342.85        35.53849
343.30        35.23819
343.75        34.83975
344.20        34.54227
344.66        34.41832
345.11        34.37295
345.56        34.39061
346.01        34.44481
346.46        34.50614
346.91        34.60384
347.36        34.63678
347.81        34.43433
348.26        33.99797
348.72        33.41608
349.17        32.85226
349.62        32.65748
350.07        32.90295
350.52        33.45759
350.97         34.1403
351.42          34.673
351.87        34.95996
352.32        35.07498
352.77        35.02567
353.22        34.83022
353.67          34.526
354.13         34.1191
354.58        33.69201
355.03        33.42213
355.48        33.34657
355.93        33.42898
356.38        33.57362
356.83        33.61171
357.28        33.49195
357.73        33.25783
358.18        32.96016
358.63        32.68141
359.08        32.45267
359.53        32.25428
359.98        32.06086
360.43         31.8376
360.88        31.57857
361.33        31.29586
361.78        31.04137
362.23        30.89263
362.68        30.85559
363.13        30.89895
363.58        30.92799
364.03        30.79691
364.48        30.48054
364.93        30.02994
365.38        29.54726
365.83        29.19767
366.28         29.0275
366.73        28.98716
367.18        29.01242
367.63        28.99752
368.08        28.90271
368.53         28.7568
368.98        28.58132
369.43        28.40362
369.88        28.23695
370.33        28.07776
370.78        27.90909
371.23        27.71119
371.68        27.48592
372.13        27.23639
372.58        27.03128
373.03        26.98046
373.48        27.09356
373.93        27.33025
374.38        27.55635
374.83        27.56599
375.28        27.32198
375.72        26.87954
376.17         26.3972
376.62        26.09759
377.07        26.04186
377.52        26.15245
377.97        26.33357
378.42         26.4305
378.87        26.39206
379.32        26.27337
379.77        26.09986
380.22         25.9013
380.67        25.69539
381.11          25.471
381.56        25.24803
382.01        25.07454
382.46        24.96319
382.91        24.90683
383.36        24.88292
383.81        24.84789
384.26        24.78652
384.71        24.70778
385.15        24.60659
385.60          24.497
386.05        24.36887
386.50        24.20786
386.95        24.02601
387.40        23.85299
387.85        23.70803
388.29        23.59419
388.74        23.49881
389.19        23.34786
389.64        23.13517
390.09        22.87119
390.54        22.64478
390.98        22.60394
391.43        22.77749
391.88        23.09823
392.33         23.4189
392.78         23.5239
393.23        23.38728
393.67        23.07859
394.12        22.76459
394.57        22.60363
395.02          22.633
395.47        22.79135
395.91        23.01727
396.36        23.16925
396.81        23.20197
397.26        23.14269
397.71        23.02436
398.15        22.87238
398.60         22.7369
399.05        22.61884
399.50        22.49546
399.95        22.27064
400.39        22.04262
400.84        21.75846
401.29        21.52836
401.74        21.50369
402.18        21.72155
402.63        22.10143
403.08        22.51809
403.53        22.77032
403.97        22.80398
404.42        22.67544
404.87        22.44845
405.32        22.23997
405.76        22.09813
406.21        22.00022
406.66         21.9516
407.11        21.96874
407.55        22.05077
408.00        22.19057
408.45         22.3477
408.90        22.42289
409.34        22.38566
409.79        22.26688
410.24        22.12045
410.68        22.02444
411.13        22.00583
411.58        22.04235
412.03        22.11945
412.47        22.21592
412.92         22.3007
413.37        22.37938
413.81        22.44827
414.26        22.52049
414.71        22.58566
415.15         22.6403
415.60        22.64725
416.05        22.56925
416.49        22.40842
416.94        22.19622
417.39        21.98258
417.83        21.84983
418.28        21.82929
418.73        21.88619
419.17         22.0041
419.62        22.15501
420.07        22.31778
420.51        22.49725
420.96        22.63536
421.41        22.63523
421.85        22.48002
422.30        22.23043
422.74        21.96591
423.19        21.84806
423.64        21.89015
424.08        22.06374
424.53        22.28592
424.98        22.44816
425.42        22.51805
425.87        22.50547
426.31        22.45241
426.76        22.48887
427.21        22.60584
427.65        22.61951
428.10        22.58045
428.54        22.73301
428.99        23.08369
429.44        23.47614
429.88        23.75824
430.33        23.86231
430.77        23.71424
431.22        23.17181
431.66        22.47901
432.11        22.29013
432.56        22.64582
433.00        23.09274
433.45        23.42851
433.89        23.89996
434.34        24.28521
434.78        23.87048
435.23        23.05242
435.67        23.01428
436.12        23.68114
436.57        23.98209
437.01        23.80766
437.46        23.70512
437.90        23.72277
438.35        23.71103
438.79        23.65364
439.24        23.59085
439.68        23.54129
440.13        23.40417
440.57        23.28028
441.02        23.62185
441.46        24.25194
441.91        24.34406
442.35        23.92772
442.80        23.66028
443.24        23.56893
443.69        23.62114
444.13        23.73678
444.58        23.52173
445.02        23.07876
445.47          23.068
445.91        23.41525
446.36        23.50072
446.80         23.2851
447.24         23.1108
447.69        23.02735
448.13        22.95854
448.58        22.92465
449.02        22.93871
449.47        22.97708
449.91        23.00141
450.36        23.00596
450.80        22.99493
451.25        22.99586
451.69        23.03761
452.13        23.12673
452.58        23.23581
453.02        23.34407
453.47        23.42587
453.91        23.47352
454.36        23.50229
454.80        23.49897
455.24        23.43695
455.69        23.33284
456.13         23.1895
456.58        23.08472
457.02         23.0974
457.46        23.24723
457.91        23.49688
458.35        23.76344
458.79        23.91443
459.24        23.92874
459.68        23.82759
460.13        23.69254
460.57        23.60032
461.01        23.59551
461.46        23.64888
461.90        23.72309
462.34        23.75883
462.79        23.73369
463.23         23.6619
463.68        23.59661
464.12        23.63444
464.56        23.78827
465.01        24.03978
465.45        24.24743
465.89        24.29613
466.34        24.18468
466.78        23.81998
467.22        23.39191
467.67        23.44215
468.11        23.90118
468.55        24.06677
468.99        23.88682
469.44        23.76302
469.88        23.78382
470.32        24.01295
470.77         24.3643
471.21        24.51468
471.65        24.42184
472.10         24.3305
472.54        24.27975
472.98        24.24382
473.42        24.24558
473.87        24.30462
474.31        24.39765
474.75        24.48684
475.20        24.56513
475.64         24.6253
476.08        24.68596
476.52        24.77325
476.97        24.89172
477.41        25.03563
477.85        25.15793
478.29        25.23262
478.74        25.25747
479.18        25.12554
479.62        24.92526
480.06        25.15295
480.50        25.29499
480.95        25.52915
481.39        25.66916
481.83        25.38105
482.27         25.5742
482.72          25.312
483.16        24.98967
483.60        25.10204
484.04        25.68102
484.48        25.96188
484.93        26.20126
485.37        26.74416
485.81        27.65167
486.25        27.45936
486.69        37.33827
487.14        29.87444
487.58        18.98586
488.02        23.26406
488.46        26.18928
488.90        26.58375
489.34        26.80891
489.79         26.5068
490.23        27.52714
490.67        28.17516
491.11        28.17477
491.55        28.19151
491.99        28.11982
492.43        27.95964
492.88         27.7899
493.32        27.79922
493.76        27.82841
494.20        28.04038
494.64        28.35275
495.08         28.8144
495.52        29.33846
495.96        29.61572
496.41        29.63572
496.85         29.8486
497.29        30.21313
497.73        29.95811
498.17        29.42216
498.61        29.60386
499.05        30.51705
499.49        30.63969
499.93        30.71632
500.37        30.82005
500.82        30.86484
501.26        31.14871
501.70        31.51557
502.14        31.70854
502.58        31.69613
503.02        31.73268
503.46         31.8278
503.90        31.81232
504.34        31.73041
504.78        31.73546
505.22          31.846
505.66        32.02669
506.10        32.21313
506.54        32.28986
506.98        32.23365
507.42        32.09654
507.86        31.97136
508.30        31.94935
508.74        32.13606
509.18         32.4187
509.62        32.73757
510.06        32.95394
510.50        33.03032
510.94        33.01503
511.38        32.95332
511.82        32.91866
512.26        32.93773
512.70        32.97763
513.14        33.04116
513.58        33.15728
514.02        33.31386
514.46        33.46379
514.90        33.54704
515.34        33.63611
515.78         33.3741
516.22        33.18568
516.66        33.05366
517.10          32.733
517.54        32.24819
517.98        32.95263
518.42        32.83712
518.86        33.16879
519.30        33.32825
519.74        33.50964
520.18        33.67253
520.62        33.72709
521.06        33.68695
521.50        33.56013
521.93        33.39564
522.37         33.2849
522.81        33.25412
523.25        33.27932
523.69        33.34503
524.13        33.42356
524.57        33.49924
525.01        33.57987
525.45        33.64148
525.89        33.64494
526.32        33.58067
526.76        33.45648
527.20        33.30677
527.64        33.19939
528.08         33.1569
528.52        33.13387
528.96        33.08733
529.40        33.04012
529.83        33.00129
530.27        32.63685
530.71        32.62591
531.15        32.49847
531.59        32.46176
532.03        32.47782
532.46        32.55165
532.90        32.68296
533.34        32.84449
533.78        33.02559
534.22         33.1726
534.66        33.21022
535.09        33.12082
535.53        32.94143
535.97        32.71217
536.41        32.50856
536.85        32.36331
537.28        32.26733
537.72        32.22049
538.16         32.2219
538.60        32.26625
539.04        32.32817
539.47        32.40136
539.91        32.55887
540.35        32.75924
540.79        32.86535
541.22           32.88
541.66        32.94277
542.10        33.05782
542.54        33.13634
542.97        33.20335
543.41        33.35439
543.85        33.58945
544.29        33.89323
544.72        34.18393
545.16        34.34727
545.60        34.36095
546.04        34.25723
546.47        34.15422
546.91        34.25208
547.35        34.57602
547.79        35.07137
548.22        35.57854
548.66        35.82342
549.10        35.76988
549.53        35.55611
549.97        35.34285
550.41        35.29252
550.84        35.46266
551.28        35.81717
551.72        36.26539
552.15        36.63736
552.59        36.87428
553.03        37.02193
553.46        37.11348
553.90        37.23459
554.34        37.40818
554.77        37.56447
555.21        37.67446
555.65        37.80963
556.08         37.9852
556.52        37.73743
556.96        37.97278
557.39        37.99422
557.83        38.09217
558.27        38.25077
558.70        38.47276
559.14        38.71681
559.57        38.94715
560.01        39.19277
560.45        39.39784
560.88        39.45364
561.32        39.37745
561.75        39.22711
562.19        39.08772
562.63        38.94396
563.06        38.86276
563.50        39.03814
563.93        39.39395
564.37         39.6455
564.80        39.74301
565.24        39.84578
565.68        39.95677
566.11        40.03014
566.55        40.10089
566.98        40.16662
567.42        40.26459
567.85        40.44767
568.29        40.74495
568.72        41.02594
569.16        41.33553
569.60         41.7848
570.03         42.1678
570.47        42.20307
570.90        42.10265
571.34        41.15569
571.77        42.08843
572.21        42.09958
572.64        41.98468
573.08         41.8214
573.51        40.15935
573.95        41.87862
574.38        44.42921
574.82        43.60226
575.25        43.29187
575.69        41.83122
576.12        41.13868
576.56        40.76422
576.99        41.79445
577.42        43.97766
577.86        43.77691
578.29        43.69536
578.73         45.7902
579.16        42.08467
579.60        38.43396
580.03        40.09611
580.47        42.68089
580.90        43.63488
581.33        42.74799
581.77        42.37487
582.20        46.46892
582.64        46.10986
583.07        39.25842
583.51        38.32476
583.94        37.42355
584.37        38.82405
584.81        40.54623
585.24        42.65177
585.68        43.77287
586.11        42.86492
586.54        40.14769
586.98        38.64329
587.41        38.96995
587.85        41.30998
588.28        42.41323
588.71        40.30243
589.15        39.08705
589.58        39.64446
590.01        39.79525
590.45        40.61925
590.88        40.83941
591.31        40.47616
591.75        40.27327
592.18        40.44766
592.61        41.53418
593.05        41.71066
593.48        43.89201
593.91        43.96097
594.35        40.64445
594.78        39.80367
595.21        39.58278
595.65         41.5275
596.08        43.42054
596.51        41.75854
596.94        40.69679
597.38        41.23596
597.81        43.17293
598.24        44.31564
598.68        43.62655
599.11        43.38708
599.54         45.4255
599.97        46.90081
600.41        43.90514
600.84        44.31176
601.27        45.48394
601.70        45.26178
602.14        45.46877
602.57        45.09701
603.00         45.6903
603.43        47.51442
603.87         48.7506
604.30        48.89781
604.73          47.917
605.16        46.90148
605.60        48.16373
606.03        49.21312
606.46        50.33506
606.89        50.82181
607.32        49.60565
607.76        49.70145
608.19        51.87024
608.62        51.44656
609.05        50.75215
609.48        51.42464
609.92        51.77803
610.35        51.79295
610.78        53.67491
611.21        54.57052
611.64        52.26955
612.07        53.08066
612.50        53.67421
612.94        54.23855
613.37        53.96812
613.80        54.30674
614.23         54.9343
614.66        55.15349
615.09         55.6409
615.52        55.87785
615.96        55.95476
616.39        56.29418
616.82        55.98405
617.25        55.62161
617.68        56.73024
618.11        57.31399
618.54        57.71088
618.97        57.48351
619.40        56.93382
619.84        57.13197
620.27        57.99902
620.70        58.56818
621.13        58.69857
621.56        58.35542
621.99        57.80089
622.42        58.49731
622.85        59.95371
623.28        59.85873
623.71        59.48925
624.14        59.16328
624.57        59.03988
625.00        59.11881
625.43         59.3294
625.86        58.77285
626.29        58.58893
626.72          58.885
627.15        58.53426
627.58          58.531
628.01        58.42838
628.44        58.44517
628.87        58.32439
629.30        58.37029
629.73        58.44034
630.16        58.29682
630.59        57.91796
631.02        57.42268
631.45        56.89851
631.88        56.43744
632.31        56.07464
632.74        55.78768
633.17        55.53699
633.60        55.25422
634.03        54.92017
634.46        54.56128
634.89        54.19745
635.32        53.85766
635.75        53.55065
636.18        53.26076
636.61        52.97564
637.04         52.6786
637.47        52.35936
637.89        52.02678
638.32        51.66877
638.75        51.30387
639.18        50.94374
639.61        50.59571
640.04        50.25841
640.47        49.92321
640.90        49.59423
641.33        49.27577
641.76        48.97695
642.18        48.78356
642.61         48.7021
643.04        48.59536
643.47        48.41309
643.90        48.70193
644.33        48.44579
644.76        48.47204
645.18        48.47104
645.61        48.44506
646.04        48.38567
646.47         48.2875
646.90         48.2459
647.33         48.3763
647.75        48.71362
648.18        49.26081
648.61        49.81976
649.04        50.07663
649.47        49.98824
649.89        49.54522
650.32        49.11872
650.75        49.41836
651.18        50.42121
651.61        51.53677
652.03        52.39895
652.46         52.7508
652.89        52.88501
653.32        52.74971
653.74        52.67243
654.17        54.28936
654.60        54.99385
655.03        53.47722
655.46        54.95313
655.88        58.30655
656.31        62.89685
656.74        147.1832
657.16        94.79152
657.59        32.71991
658.02        24.69361
658.45        43.25063
658.87        55.70983
659.30        58.58704
659.73        58.04161
660.15        56.51216
660.58        58.94304
661.01        60.75777
661.44        58.98205
661.86        58.44641
662.29        58.54736
662.72        59.52614
663.14        61.10626
663.57        61.21412
664.00        60.10924
664.42        60.01156
664.85        61.00984
665.27        61.70256
665.70        61.88334
666.13        62.00955
666.55        62.05539
666.98         61.8809
667.41        61.63098
667.83        61.59425
668.26        61.83368
668.69        62.24397
669.11        62.64215
669.54        63.02486
669.96        62.75321
670.39        62.43496
670.82        62.09526
671.24        62.01429
671.67         62.3243
672.09        63.02114
672.52        63.80019
672.94        64.57472
673.37        64.17253
673.80        64.02847
674.22        63.94556
674.65        63.92252
675.07        63.98748
675.50        64.04066
675.92        64.10832
676.35        64.30409
676.77        64.61419
677.20        64.96735
677.62        65.33421
678.05        65.54765
678.47        65.55235
678.90        65.86782
679.32         65.6974
679.75        65.64577
680.17        65.74577
680.60        65.79441
681.02        65.85183
681.45        65.86694
681.87        65.85027
682.30        65.85739
682.72         65.9123
683.15        65.95219
683.57        66.05257
684.00        66.35651
684.42        66.94183
684.85        67.26968
685.27        67.33401
685.70        67.32922
686.12        67.30331
686.54        67.31624
686.97        67.38978
687.39        67.52596
687.82        67.66849
688.24        67.77431
688.66        67.81364
689.09        67.81063
689.51        67.83018
689.94        67.94885
690.36        68.18799
690.78        68.50835
691.21        68.84122
691.63        69.08176
692.06        69.20425
692.48        69.25028
692.90        69.26461
693.33        69.30534
693.75        69.39218
694.17        69.50762
694.60        69.65252
695.02        69.79517
695.44        69.88671
695.87        70.15305
696.29        70.54192
696.71         70.3046
697.14        69.67347
697.56         70.1261
697.98         71.4063
698.41        71.31365
698.83        70.58258
699.25        70.20417
699.68         70.4364
700.10        70.50645
700.52        70.42735
700.94        70.54511
701.37         70.8065
701.79        71.37648
702.21        71.61483
702.64        72.01742
703.06        72.32088
703.48        72.39098
703.90        72.22027
704.33        71.84821
704.75        71.41533
705.17        71.25171
705.59         71.4269
706.01         71.6825
706.44        71.89204
706.86        72.52523
707.28        72.55679
707.70        72.74993
708.12        72.83311
708.55        72.81913
708.97        72.69508
709.39        72.61538
709.81         72.3905
710.23         72.3555
710.66        72.46329
711.08        72.72077
711.50         73.0098
711.92         73.1584
712.34        73.13028
712.76        72.96117
713.19        72.77591
713.61        72.80818
714.03        73.08932
714.45        73.54459
714.87        73.99981
715.29        74.18122
715.71        74.03368
716.13        73.65234
716.56        73.20644
716.98        72.99915
717.40        73.10212
717.82        73.42088
718.24        73.82726
718.66        74.10239
719.08        74.17641
719.50        74.11935
719.92         73.9812
720.34        73.86069
720.76        73.80157
721.19        73.65366
721.61        73.66844
722.03        73.74082
722.45         73.9343
722.87        74.22466
723.29        74.55697
723.71          74.827
724.13        74.99553
724.55        75.08394
724.97        75.10077
725.39        75.07091
725.81         75.0129
726.23        74.92214
726.65        74.83577
727.07        74.81091
727.49         74.8654
727.91         75.0022
728.33        75.17931
728.75        75.31739
729.17        75.39101
729.59        75.40766
730.01        75.42876
730.43         75.5578
730.85        75.81818
731.27        76.17805
731.69        76.50778
732.10          76.701
732.52        76.53375
732.94        76.19585
733.36        75.85709
733.78        75.73434
734.20        75.87952
734.62        76.63883
735.04        77.67566
735.46        77.46751
735.88        76.36097
736.30        76.57578
736.72        78.07664
737.13        78.80644
737.55        78.42934
737.97        78.41528
738.39        78.78584
738.81        78.04951
739.23        76.70828
739.65        77.51376
740.06        79.93213
740.48        80.16611
740.90        78.31692
741.32        77.48712
741.74        77.95586
742.16        78.17995
742.57        78.20383
742.99        78.92627
743.41        80.09294
743.83        80.69759
744.25        80.64023
744.67        80.40182
745.08         80.2012
745.50         80.1616
745.92        80.38109
746.34        80.86436
746.75         81.4431
747.17        81.73832
747.59        81.69608
748.01        81.52794
748.42        81.40139
748.84        81.39946
749.26        81.69701
749.68        82.48747
750.09        83.54929
750.51        84.45282
750.93        84.91852
751.35        84.46736
751.76        83.41769
752.18        83.01356
752.60        83.28771
753.01        83.35499
753.43        83.21779
753.85        83.36789
754.27        83.78857
754.68        84.81186
755.10        85.33199
755.52         85.8845
755.93        86.13782
756.35        86.27382
756.77        86.44318
757.18        86.54829
757.60        86.63091
758.02        87.28519
758.43         88.0778
758.85        87.26912
759.26        85.32993
759.68        84.82397
760.10        86.26452
760.51        87.07505
760.93        86.98265
761.34        86.03905
761.76        85.42561
762.18        84.65173
762.59        84.28252
763.01        84.46967
763.42        85.24818
763.84        86.13702
764.26        86.94176
764.67        87.43726
765.09         87.5182
765.50        87.51441
765.92        87.32931
766.33        85.92553
766.75        84.05592
767.16        83.39904
767.58        84.22669
768.00        85.75029
768.41        87.60635
768.83        89.28636
769.24        90.08729
769.66        89.43606
770.07         87.8738
770.49        86.04345
770.90        84.57902
771.32        85.68571
771.73        88.49944
772.15        88.10265
772.56        84.97816
772.97        84.02354
773.39        85.23241
773.80        86.42704
774.22        85.72788
774.63        85.95662
775.05        86.49864
775.46        86.76311
775.88        86.61763
776.29        86.09901
776.70        85.45104
777.12        85.21098
777.53        85.49687
777.95        86.06709
778.36        86.67183
778.77        86.88713
779.19        86.65774
779.60        86.13513
780.02        85.56725
780.43        85.48113
780.84          86.048
781.26        86.44234
781.67        86.66639
782.09        88.17618
782.50        90.17933
782.91        89.04743
783.33        85.67595
783.74        84.54002
784.15        85.86881
784.57        86.84278
784.98        87.02847
785.39        87.10611
785.81        86.95889
786.22        86.33327
786.63        85.62813
787.04        85.41729
787.46        85.86688
787.87        87.11813
788.28          88.725
788.70        89.51759
789.11        89.27594
789.52        88.65627
789.93        87.96091
790.35        87.14034
790.76        86.50217
791.17        86.79961
791.58        87.80499
792.00        88.28193
792.41        88.04929
792.82        87.89426
793.23        88.01536
793.65        87.69224
794.06        87.28218
794.47        88.60483
794.88        90.76337
795.29        90.38665
795.71        87.73424
796.12        85.14051
796.53        84.03755
796.94        83.37744
797.35        83.59299
797.76        85.09745
798.18        87.20188
798.59        88.53958
799.00        88.64616
799.41        87.83967
799.82        86.58224
800.23        85.69563
800.64        85.41577
801.06        85.39417
801.47        85.60925
801.88         85.9346
802.29        86.27723
802.70        86.71661
803.11        87.13333
803.52        87.28563
803.93        87.15376
804.34        86.77256
804.75        86.32059
805.17        86.26777
805.58        86.76693
805.99        87.18396
806.40        87.39814
806.81        88.43067
807.22         89.6059
807.63        88.25201
808.04         85.1487
808.45        83.84713
808.86        84.65051
809.27        85.75549
809.68        86.64819
810.09         87.1955
810.50        87.15009
810.91        86.59082
811.32        85.84568
811.73        85.39702
812.14        85.37766
812.55        85.72723
812.96        86.32177
813.37        86.60756
813.78         86.6197
814.19        87.19514
814.60        88.02715
815.01        88.01659
815.42        87.10606
815.83        85.76696
816.24        84.52528
816.65        84.11552
817.05        84.79585
817.46        86.32593
817.87        88.04996
818.28        88.78127
818.69        88.20072
819.10        86.60521
819.51        84.73864
819.92        83.86777
820.33        84.32418
820.74         85.7196
821.14        87.35657
821.55         87.9976
821.96        87.37412
822.37        85.92445
822.78        84.27605
823.19        83.34546
823.60        83.38228
824.00        84.15023
824.41        85.22129
824.82        85.99818
825.23        86.21378
825.64        86.07832
826.04        85.77692
826.45         85.5763
826.86        85.55315
827.27        85.56683
827.68        85.57677
828.08        85.58259
828.49        85.50141
828.90        85.43987
829.31        85.33658
829.72        85.05732
830.12        84.63506
830.53        84.10279
830.94        83.70213
831.35        83.75628
831.75         84.3523
832.16        85.32687
832.57        86.45078
832.97        87.23119
833.38        87.41679
833.79        87.14324
834.20        86.64809
834.60        86.30208
835.01        86.24007
835.42        86.34634
835.82         86.4856
836.23        86.34538
836.64        85.90762
837.04        85.31821
837.45        84.77267
837.86        84.56989
838.26        84.78715
838.67        85.27129
839.08        85.88869
839.48        86.38927
839.89        86.62891
840.29        86.69194
840.70        86.57547
841.11        86.26067
841.51        85.78796
841.92        85.13733
842.33        84.49641
842.73        84.18968
843.14        84.25264
843.54        84.66522
843.95        85.14048
844.35        85.25668
844.76        84.90302
845.17        84.22334
845.57        83.50687
845.98        83.21191
846.38        83.43393
846.79        83.99551
847.19        84.67653
847.60         84.9847
848.00         84.8241
848.41        84.34016
848.81        83.75543
849.22        83.31963
849.62        83.17276
850.03         83.2363
850.43        83.52324
850.84         83.9467
851.24        84.49804
851.65        85.00134
852.05        85.57022
852.46        86.19129
852.86         86.8377
853.27        87.52997
853.67        87.78459
854.07        87.00748
854.48        85.26891
854.88        82.79401
855.29        80.47784
855.69        79.60896
856.10        80.42286
856.50        82.77303
856.90          85.798
857.31        87.50761
857.71         87.2761
858.12        85.61076
858.52        83.47035
858.92        82.12834
859.33        81.85982
859.73        82.33636
860.13        83.27802
860.54        84.10382
860.94        84.64067
861.34        85.02122
861.75        85.32634
862.15        85.76495
862.55        86.33441
862.96        86.89967
863.36        87.34455
863.76        87.45795
864.17        87.21337
864.57         86.7738
864.97        86.32531
865.38        86.12695
865.78         86.2905
866.18          86.656
866.58        87.16771
866.99        87.70929
867.39        88.27112
867.79        88.91206
868.19        89.36479
868.60         89.1267
869.00        88.15458
869.40        86.59688
869.80        85.19351
870.21        85.10252
870.61         86.6436
871.01        89.44997
871.41        92.62987
871.81        94.63542
872.22        95.00007
872.62        94.16664
873.02        92.85529
873.42        92.29142
873.82        92.71539
874.22        93.63969
874.63        94.69352
875.03        95.17923
875.43        94.74374
875.83        94.10749
876.23        93.10848
876.63        92.88364
877.03         93.5485
877.44        95.63839
877.84         100.096
878.24         100.923
878.64        101.6745
879.04        100.1461
879.44        98.57427
879.84        97.89385
880.24        99.00165
880.64        100.3587
881.04        101.9902
881.44        102.6763
881.84        101.6189
882.24        99.40385
882.65        97.26268
883.05        96.56113
883.45        97.51367
883.85        99.87151
884.25        102.7345
884.65        104.3466
885.05        104.1483
885.45        102.7273
885.85        101.0329
886.25        100.3837
886.65        101.0476
887.05        102.5459
887.45        104.3393
887.85        105.4751
888.25        105.6005
888.65        105.0945
889.04        104.1624
889.44          103.15
889.84        102.2265
890.24        101.2647
890.64        100.5164
891.04        100.3878
891.44        100.8994
891.84        101.9856
892.24        103.1684
892.64        103.5405
893.04        102.9418
893.44        101.7391
893.83        100.4935
894.23        100.0484
894.63        100.5583
895.03        101.6921
895.43        103.2664
895.83        104.9155
896.23        106.3671
896.63        107.7067
897.02        108.5279
897.42        108.1836
897.82         106.694
898.22        104.3314
898.62        101.9188
899.01        100.6703
899.41        100.8609
899.81        102.0837
900.21        103.7767
900.61        104.9939
901.00        105.4033
901.40        105.2873
901.80        104.8288
902.20        104.3148
902.59        103.8814
902.99        103.4145
903.39        102.9393
903.79        102.5395
904.18        102.2549
904.58        102.1442
904.98        102.2549
905.38        102.6225
905.77        103.1753
906.17        103.8447
906.57        104.4469
906.96         104.769
907.36        104.7173
907.76        104.3783
908.15        103.8361
908.55        103.1347
908.95        102.3954
909.34        101.5903
909.74        100.9335
910.14        100.5626
910.53        100.5376
910.93        100.8952
911.33        101.4902
911.72        102.0505
912.12        102.3988
912.52        102.5086
912.91        102.6036
913.31        103.0402
913.70        103.9219
914.10        105.1946
914.49        106.3917
914.89        106.2361
915.29        104.4699
915.68        101.6136
916.08        99.03562
916.47        97.99108
916.87        98.59752
917.26        100.4406
917.66        102.5769
918.05        103.4681
918.45         102.703
918.84         100.823
919.24        98.78284
919.64        97.97153
920.03        98.76049
920.42        100.7003
920.82        103.0827
921.21        104.8266
921.61        105.3632
922.00        105.0614
922.40        104.2577
922.79        103.3651
923.19        102.5705
923.58        101.8024
923.98        101.0128
924.37        100.0668
924.77        99.17986
925.16        98.17877
925.55        97.99732
925.95        98.71418
926.34        100.5538
926.74        103.0394
927.13        105.4537
927.52        106.4392
927.92        105.8353
928.31        104.0699
928.70        101.7519
929.10        99.92039
929.49        98.88733
929.89        98.39023
930.28        98.55136
930.67        99.56293
931.07        101.2054
931.46          103.48
931.85        105.5815
932.24        106.3033
932.64        105.4357
933.03        103.1731
933.42        100.1686
933.82        97.98415
934.21        97.12312
934.60        97.23961
934.99        97.78557
935.39          98.017
935.78        97.79597
936.17         97.3342
936.56        96.55051
936.96        96.24429
937.35        95.54961
937.74        95.24579
938.13        95.22112
938.53        95.83097
938.92        97.05682
939.31        98.92056
939.70        100.8364
940.09        101.2558
940.49        99.76443
940.88        97.10352
941.27        94.39231
941.66        92.91138
942.05        92.83637
942.44          93.728
942.84        95.29816
943.23        97.12938
943.62        98.81507
944.01        100.3893
944.40        101.5586
944.79        101.8957
945.18        101.3008
945.57        99.74282
945.97        97.40337
946.36        95.16619
946.75        93.69376
947.14        92.97331
947.53        92.90124
947.92        93.23773
948.31        93.88284
948.70        94.96816
949.09        96.31156
949.48        97.37234
949.87        97.84633
950.26        97.68305
950.65        97.25534
951.04        97.25016
951.43        97.80542
951.82         98.7488
952.21        99.50793
952.60        99.16492
952.99        97.59995
953.38        95.19628
953.77        92.80581
954.16        91.63677
954.55        91.92628
954.94        93.35991
955.33        95.11738
955.72        95.81454
956.11        95.08331
956.50        93.28117
956.89        91.30087
957.28        90.79074
957.66        92.29655
958.05        95.04923
958.44        98.03507
958.83        99.76646
959.22        99.84299
959.61        98.65427
960.00        96.84151
960.39        95.43616
960.78        94.77304
961.16        94.62048
961.55         94.4464
961.94        93.41747
962.33        91.45366
962.72        89.02873
963.11        86.90313
963.49        86.00038
963.88        86.45283
964.27        88.03271
964.66        90.13445
965.04        91.43819
965.43        91.30722
965.82        90.18787
966.21         88.8299
966.60        88.24987
966.98        88.64124
967.37        89.59636
967.76        90.68884
968.15        91.11163
968.53        90.62341
968.92        89.58301
969.31        88.33297
969.69        87.23892
970.08        86.44738
970.47        85.84444
970.86        85.48441
971.24        85.50761
971.63        85.90062
972.02        86.63677
972.40        87.61315
972.79         88.5281
973.17        89.36795
973.56        90.06285
973.95        90.48948
974.33        90.42245
974.72        89.79137
975.11        88.63396
975.49        87.57768
975.88        87.59829
976.26        88.81476
976.65        91.14653
977.04        93.62259
977.42        93.82115
977.81        90.96415
978.19        86.02695
978.58        81.50258
978.96        79.99463
979.35        81.85673
979.74        86.56771
980.12        92.83465
980.51        96.43658
980.89        96.03918
981.28        92.88166
981.66        88.94298
982.05         86.7445
982.43        86.65747
982.82         87.7528
983.20        89.49527
983.59        91.27306
983.97         92.9156
984.35        94.75089
984.74        96.29253
985.12        96.80575
985.51        95.74609
985.89        93.20335
986.28        89.97476
986.66        87.38548
987.04        86.11444
987.43        85.97562
987.81        86.38686
988.20        86.63207
988.58         86.5258
988.96        86.12846
989.35        85.81931
989.73        87.16293
990.12        90.23141
990.50        93.99182
990.88        96.40411
991.27        96.37975
991.65        94.32209
992.03        90.63313
992.42        86.57115
992.80        84.36585
993.18        84.78965
993.56         86.6033
993.95          88.734
994.33        90.33745
994.71        91.10234
995.10        91.62431
995.48        91.56355
995.86        90.18656
996.24         87.3928
996.63         82.9386
997.01        78.17658
997.39        76.94984
997.77        80.76976
998.15        88.58526
998.54        96.66429
998.92        100.0203
999.30        97.24995
999.68        89.63002
1000.06        79.25782
1000.45        71.45228
1000.83        68.59165
1001.21        69.02597
1001.59        71.46568
1001.97        74.56264
1002.35        77.90365
1002.73        82.55141
1003.12        87.21823
1003.50        87.78255
1003.88        82.61902
1004.26        73.79708
1004.64        65.53642
1005.02        61.40515
1005.40        61.64505
1005.78         66.1469
1006.16        75.65061
1006.54        85.79276
1006.92        90.31885
1007.30        90.20693
1007.69        88.81687
1008.07        88.95116
1008.45         91.3321
1008.83        96.60914
1009.21        107.0173
1009.59        120.4286
1009.97        111.8485
1010.35        43.40062
1010.73       -2.300809
1011.11        11.78243
1011.49        35.66642
1011.86        56.81164
1012.24        70.44501
1012.62        77.67072
1013.00        81.31421
1013.38        83.41935
1013.76          86.156
1014.14        94.27474
1014.52        110.8523
1014.90        135.4208
1015.28        161.1781
1015.66        172.7748
1016.04        160.7786
1016.41         128.382
1016.79        90.90933
1017.17        65.23989
1017.55        54.01521
1017.93        50.36696
1018.31         50.8797
1018.69        54.24228
1019.06        60.21431
1019.44        69.87197
1019.82        84.97336
1020.20        103.1718
1020.58        120.1779
1020.95        132.1144
1021.33        132.0458
1021.71        82.85551
1022.09        111.3823
1022.46        112.4254
1022.84        111.7613
1023.22        110.0152
1023.60        104.8908
1023.97        43.81097
1024.35        151.5075
1024.73        142.6308
