SpectraSmart Spectrum 2.9.0.0
--------- Device Information -----------
Spectrum Name :  反射率_0
Saving Time :  2024/04/25 22:45:54
Spectro-Module Model Name : SE2030-DUVN
Spectro-Module Serial Number : OS361AC55029948
Wavelength Start : 200
Wavelength End : 1025
Wavelength Unit : Wavelength(nm)
Spectrum Unit : Reflectance(%)
-----------Spectrum Setting ------------
Integration Time : 20ms
Average : 10
Boxcar : 0
Background removal :  enabled
linearity correction :  enabled
SC :  disabled
Intensity correction :  disabled
DWT denoise :  enabled
savitzky-golay :  disabled
FFT :  disabled
Running average :  disabled
Kalman :  disabled
High pass :  disabled
---------------BEGIN--------------------
Wavelength(nm)             Reflectance(%)
200.29               0
200.75        101.7745
201.21        94.49297
201.67        84.95954
202.13        78.46459
202.58        75.87476
203.04        76.13256
203.50        77.35635
203.96        76.66165
204.42        73.80201
204.88        70.22458
205.34        67.63157
205.80        67.76862
206.26        71.52728
206.72        81.16125
207.18        101.1292
207.64        121.4173
208.10        114.7752
208.55        93.95731
209.01        79.59059
209.47        74.00025
209.93        73.46692
210.39        75.76523
210.85        78.82758
211.31        78.65916
211.77        74.22955
212.23        67.43451
212.69        61.35361
213.14        60.61016
213.60        65.82491
214.06        75.57719
214.52        86.87382
214.98        95.22035
215.44        99.05289
215.90        99.42075
216.36        97.78556
216.81        96.06283
217.27        95.26862
217.73        94.94452
218.19        94.04887
218.65        91.04601
219.11        85.22385
219.57        75.75693
220.02        64.29093
220.48        58.98365
220.94        63.98645
221.40         76.7277
221.86        88.30834
222.32        89.80302
222.77        82.39355
223.23        71.33316
223.69        61.82112
224.15        59.18023
224.61        62.94704
225.06        70.60983
225.52        78.61071
225.98        82.34281
226.44        81.05092
226.90        76.68401
227.36        72.03985
227.81        70.89835
228.27        74.17522
228.73        80.06457
229.19        86.39032
229.65        90.01319
230.10        90.30704
230.56         88.8699
231.02         86.9088
231.48        85.77768
231.93        85.64687
232.39        86.01288
232.85        86.60889
233.31         87.2141
233.77          87.665
234.22        88.13618
234.68         88.2878
235.14        87.47456
235.60        85.67394
236.05        83.18768
236.51        80.60125
236.97        78.64233
237.43        77.38635
237.88        76.63879
238.34        76.20659
238.80        76.09801
239.26        76.22854
239.71        77.00397
240.17        77.35666
240.63        76.00257
241.08         72.9436
241.54        68.57036
242.00        64.49374
242.46         62.7871
242.91        64.51672
243.37        71.76197
243.83        94.91232
244.28        160.3342
244.74        214.0259
245.20        160.2139
245.66        121.7977
246.11        109.4334
246.57        109.1109
247.03        120.0671
247.48        156.8617
247.94        137.8575
248.40        97.66669
248.85        85.47137
249.31        82.58303
249.77        83.75113
250.22        87.74649
250.68        95.03731
251.14        105.0075
251.59        109.9183
252.05        103.1202
252.51        88.83984
252.96        74.92184
253.42        68.20856
253.88        67.94334
254.33         71.6934
254.79        77.78438
255.25        83.24715
255.70        86.86237
256.16        89.56895
256.62        91.06438
257.07         90.9733
257.53        89.89751
257.99        87.61337
258.44        84.69038
258.90        82.87878
259.35        81.51668
259.81        80.49778
260.27        78.83495
260.72        75.51292
261.18        71.24151
261.63        66.35802
262.09        62.06697
262.55        59.03928
263.00         57.1913
263.46        56.28112
263.91        55.62544
264.37        54.86284
264.83        53.78021
265.28        52.40353
265.74        51.08133
266.19        50.02072
266.65        49.42172
267.11        49.09281
267.56         48.7392
268.02        48.04772
268.47        46.91379
268.93        45.48502
269.38         43.9796
269.84        42.98673
270.30        42.65038
270.75        42.80385
271.21        43.12268
271.66        43.11282
272.12        42.64264
272.57        41.85299
273.03        40.98685
273.48        40.31482
273.94        39.94585
274.39         39.7307
274.85        39.55583
275.31        39.22835
275.76        38.69313
276.22        38.06752
276.67        37.40574
277.13         36.9004
277.58        36.52091
278.04        36.24128
278.49        35.94179
278.95        35.54943
279.40        35.00294
279.86        34.41369
280.31        33.76134
280.77        33.15163
281.22        32.57035
281.68        32.03346
282.13        31.56799
282.59        31.27228
283.04        31.11867
283.50        31.10621
283.95        31.08041
284.41        30.84258
284.86        30.34767
285.32        29.67986
285.77        29.00576
286.22        28.64862
286.68        28.64106
287.13        28.84845
287.59        29.05117
288.04        28.90196
288.50        28.36872
288.95        27.55503
289.41        26.68141
289.86        25.95871
290.32        25.50381
290.77        25.22038
291.22        25.06943
291.68        24.95447
292.13        24.84415
292.59        24.77534
293.04        24.76331
293.50        24.83358
293.95        24.97143
294.40         25.1281
294.86         25.2639
295.31        25.33182
295.77        25.32355
296.22        25.26269
296.68        25.14873
297.13        24.95458
297.58        24.71522
298.04        24.46749
298.49        24.30223
298.95        24.38873
299.40        24.73494
299.85        25.27565
300.31        25.87571
300.76        26.33446
301.21        26.57335
301.67         26.6622
302.12        26.61824
302.58         26.5203
303.03        26.38536
303.48        26.20799
303.94         26.0574
304.39        26.01109
304.84        26.08638
305.30         26.2563
305.75        26.42884
306.20        26.46477
306.66         26.3553
307.11        26.13914
307.57        25.89723
308.02         25.6842
308.47        25.54709
308.93        25.45703
309.38        25.42799
309.83        25.51238
310.29        25.69019
310.74        25.93303
311.19        26.14387
311.65        26.17284
312.10         25.9913
312.55        25.64528
313.00        25.21566
313.46        24.85012
313.91        24.59293
314.36        24.42251
314.82        24.32943
315.27        24.28423
315.72         24.2758
316.18         24.3138
316.63        24.37733
317.08        24.40724
317.53         24.3846
317.99         24.3038
318.44        24.20531
318.89        24.16237
319.35        24.18222
319.80        24.25027
320.25        24.28933
320.70        24.17447
321.16        23.88855
321.61        23.47647
322.06        23.04945
322.51        22.77467
322.97        22.68039
323.42        22.72568
323.87         22.8066
324.32        22.74718
324.78        22.50112
325.23        22.12904
325.68        21.71952
326.13        21.41859
326.59        21.26615
327.04        21.23299
327.49        21.26413
327.94         21.2706
328.39        21.22473
328.85        21.14982
329.30        21.09938
329.75        21.12949
330.20        21.25275
330.66        21.42236
331.11         21.6135
331.56        21.75055
332.01        21.80697
332.46        21.78952
332.92        21.71756
333.37        21.64814
333.82        21.59785
334.27        21.57332
334.72        21.53657
335.17        21.42388
335.63        21.23041
336.08        20.98058
336.53         20.7856
336.98        20.82224
337.43        21.11375
337.88        21.60642
338.34         22.0996
338.79        22.30857
339.24        22.14189
339.69        21.67832
340.14        21.13578
340.59        20.89913
341.05        21.05743
341.50        21.48966
341.95        21.98601
342.40        22.23854
342.85        22.17829
343.30        21.91933
343.75        21.57161
344.20        21.32392
344.66        21.24021
345.11        21.21795
345.56        21.24976
346.01        21.32685
346.46        21.42193
346.91        21.56238
347.36        21.62342
347.81        21.39797
348.26        20.88412
348.72        20.18267
349.17        19.50267
349.62        19.27135
350.07        19.57628
350.52        20.26677
350.97        21.09892
351.42         21.6966
351.87        21.94731
352.32        21.95632
352.77        21.79837
353.22        21.59978
353.67        21.41636
354.13        21.20764
354.58        20.99502
355.03        20.85655
355.48        20.80442
355.93        20.84385
356.38        20.90547
356.83         20.8608
357.28        20.68262
357.73        20.40238
358.18        20.10466
358.63        19.92598
359.08        19.89583
359.53        19.97375
359.98        20.06606
360.43        20.02843
360.88        19.83147
361.33        19.52003
361.78        19.19755
362.23        19.03022
362.68        19.04967
363.13        19.19229
363.58        19.34695
364.03         19.3426
364.48        19.14182
364.93        18.81042
365.38         18.4285
365.83        18.12231
366.28        17.93518
366.73        17.82475
367.18        17.77803
367.63        17.77515
368.08        17.79444
368.53        17.84229
368.98        17.87671
369.43        17.82588
369.88        17.68241
370.33        17.47061
370.78         17.2384
371.23        17.07356
371.68        17.00385
372.13        16.99824
372.58        17.05215
373.03        17.15335
373.48        17.27818
373.93        17.42477
374.38        17.53007
374.83        17.49663
375.28        17.31536
375.72        17.00969
376.17        16.68796
376.62        16.48847
377.07          16.452
377.52        16.53372
377.97        16.68378
378.42        16.81648
378.87         16.8943
379.32        16.93987
379.77        16.94351
380.22        16.88982
380.67        16.78427
381.11        16.63017
381.56        16.45619
382.01        16.32372
382.46        16.24893
382.91        16.21593
383.36        16.20632
383.81        16.18354
384.26        16.13778
384.71          16.089
385.15        16.02304
385.60        15.92826
386.05          15.799
386.50        15.62429
386.95        15.45785
387.40        15.39502
387.85        15.44866
388.29        15.58766
388.74        15.71164
389.19        15.66668
389.64        15.44066
390.09        15.07746
390.54        14.71582
390.98         14.5908
391.43        14.75827
391.88        15.12203
392.33        15.51153
392.78         15.6769
393.23          15.576
393.67         15.2928
394.12        14.97725
394.57        14.78237
395.02        14.74576
395.47        14.81049
395.91        14.92162
396.36        14.96602
396.81        14.91197
397.26         14.7892
397.71         14.6432
398.15        14.51988
398.60        14.45463
399.05        14.43563
399.50        14.41385
399.95        14.28084
400.39        14.09119
400.84        13.82438
401.29        13.58972
401.74        13.55572
402.18        13.76695
402.63        14.14726
403.08        14.56257
403.53        14.80001
403.97        14.80352
404.42        14.63111
404.87        14.37575
405.32        14.20222
405.76        14.16142
406.21        14.20647
406.66        14.28083
407.11         14.3087
407.55        14.27494
408.00        14.20437
408.45        14.12567
408.90        14.07878
409.34        14.07642
409.79        14.09772
410.24        14.13055
410.68        14.16134
411.13        14.18833
411.58        14.22151
412.03        14.24685
412.47        14.24252
412.92        14.19793
413.37        14.11751
413.81         14.0428
414.26        14.05374
414.71        14.15184
415.15        14.31673
415.60         14.4635
416.05        14.47338
416.49        14.32233
416.94        14.06143
417.39        13.76832
417.83        13.57768
418.28        13.53726
418.73        13.59484
419.17        13.71343
419.62        13.82823
420.07        13.91506
420.51        13.99462
420.96        14.03513
421.41        13.97965
421.85        13.82406
422.30        13.60529
422.74        13.38657
423.19        13.29092
423.64        13.32671
424.08        13.47218
424.53        13.65258
424.98        13.75977
425.42        13.76468
425.87        13.69061
426.31        13.58621
426.76        13.57121
427.21        13.64733
427.65        13.68528
428.10         13.7136
428.54        13.86335
428.99        14.12656
429.44          14.438
429.88        14.67268
430.33        14.67931
430.77        14.44405
431.22         14.0206
431.66         13.5771
432.11         13.4383
432.56         13.6316
433.00        13.95297
433.45        14.24856
433.89          14.539
434.34        14.68058
434.78         14.3431
435.23        13.79194
435.67        13.70649
436.12        14.04778
436.57        14.20271
437.01        14.08983
437.46        13.99099
437.90        13.92701
438.35        13.82159
438.79        13.69695
439.24        13.62631
439.68        13.62611
440.13        13.61834
440.57        13.61054
441.02        13.79641
441.46        14.05946
441.91        13.91867
442.35        13.46381
442.80         13.2322
443.24        13.20854
443.69        13.18923
444.13        13.13263
444.58        12.97829
445.02        12.78045
445.47        12.81589
445.91        13.02125
446.36        13.05631
446.80        12.89412
447.24        12.72325
447.69        12.59891
448.13        12.52151
448.58        12.51271
449.02        12.56553
449.47        12.64315
449.91        12.68386
450.36        12.67355
450.80        12.62674
451.25        12.57478
451.69        12.55542
452.13        12.58153
452.58        12.62835
453.02        12.68202
453.47         12.7169
453.91        12.72967
454.36        12.73502
454.80        12.72895
455.24        12.70372
455.69        12.66877
456.13        12.61695
456.58        12.59172
457.02        12.63921
457.46        12.76779
457.91        12.95399
458.35        13.13908
458.79        13.22078
459.24         13.1904
459.68        13.07195
460.13        12.94275
460.57         12.8863
461.01         12.9394
461.46        13.06447
461.90         13.2256
462.34        13.35577
462.79        13.43131
463.23        13.46479
463.68        13.48131
464.12        13.52072
464.56        13.59434
465.01        13.69626
465.45        13.76512
465.89        13.75841
466.34        13.68313
466.78        13.48513
467.22        13.26862
467.67        13.33616
468.11        13.64402
468.55        13.78832
468.99        13.73569
469.44        13.71174
469.88        13.76518
470.32        13.93492
470.77        14.15217
471.21        14.20485
471.65        14.06835
472.10        13.89789
472.54        13.75818
472.98        13.70948
473.42        13.77667
473.87        13.94368
474.31        14.14287
474.75        14.26144
475.20         14.2756
475.64        14.21009
476.08        14.12109
476.52        14.09457
476.97        14.15246
477.41         14.2725
477.85        14.39893
478.29        14.47184
478.74        14.47705
479.18        14.36116
479.62        14.19381
480.06        14.32106
480.50        14.46103
480.95        14.62957
481.39        14.66649
481.83        14.63336
482.27        14.52231
482.72        14.22947
483.16        13.87883
483.60        13.86908
484.04        14.22735
484.48        14.46974
484.93         14.7364
485.37        15.19549
485.81         15.6525
486.25         15.6355
486.69         20.3859
487.14          15.856
487.58        10.68059
488.02        13.19933
488.46        14.69436
488.90        14.91918
489.34        15.33989
489.79        15.27075
490.23         15.7466
490.67        16.06704
491.11        16.06392
491.55        15.97312
491.99        15.75301
492.43         15.5251
492.88        15.35839
493.32        15.30776
493.76        15.28788
494.20        15.41966
494.64        15.65785
495.08         15.9715
495.52        16.31134
495.96        16.61845
496.41        16.82565
496.85        16.92431
497.29        16.93363
497.73        16.72385
498.17        16.50638
498.61        16.68226
499.05        17.23843
499.49        17.34475
499.93        17.41148
500.37         17.4737
500.82        17.49657
501.26        17.67328
501.70        17.91821
502.14        18.07842
502.58        18.11869
503.02        18.15771
503.46        18.19449
503.90        18.14001
504.34        18.03682
504.78        17.99812
505.22        18.04306
505.66        18.14967
506.10        18.26421
506.54        18.29399
506.98        18.22334
507.42        18.08744
507.86        17.97002
508.30        17.99855
508.74          18.193
509.18        18.50299
509.62        18.83952
510.06        19.05656
510.50        19.11448
510.94        19.06548
511.38        18.95962
511.82        18.87714
512.26        18.84859
512.70        18.84155
513.14        18.87113
513.58        18.96434
514.02        19.10452
514.46        19.28067
514.90        19.42677
515.34        19.39774
515.78        19.14704
516.22        18.88109
516.66        18.69694
517.10        18.29154
517.54        17.69728
517.98        18.54976
518.42        18.40477
518.86        18.80747
519.30        19.00374
519.74        19.23013
520.18        19.42752
520.62        19.47079
521.06        19.37521
521.50         19.1552
521.93        18.89212
522.37        18.73374
522.81        18.71857
523.25         18.8077
523.69        18.95318
524.13        19.07679
524.57        19.14862
525.01        19.18811
525.45        19.19687
525.89        19.17695
526.32        19.12985
526.76        19.05167
527.20        18.94631
527.64        18.83184
528.08        18.72085
528.52        18.59928
528.96        18.47289
529.40        18.39756
529.83        18.38661
530.27        18.23813
530.71         18.2977
531.15         18.2499
531.59        18.19805
532.03        18.13599
532.46        18.09379
532.90        18.12196
533.34        18.21724
533.78        18.35893
534.22        18.49325
534.66        18.54314
535.09        18.49001
535.53        18.36585
535.97        18.21346
536.41        18.10528
536.85        18.06552
537.28        18.07776
537.72        18.11941
538.16         18.1532
538.60        18.16835
539.04        18.16294
539.47        18.15891
539.91        18.23365
540.35        18.37237
540.79        18.48623
541.22        18.55559
541.66        18.62406
542.10        18.68633
542.54        18.70288
542.97        18.70592
543.41        18.77877
543.85        18.92863
544.29        19.14023
544.72        19.35078
545.16        19.46954
545.60        19.47963
546.04        19.40708
546.47         19.3402
546.91        19.42817
547.35        19.68771
547.79        20.07177
548.22        20.46198
548.66        20.65455
549.10        20.62244
549.53        20.46428
549.97        20.29515
550.41        20.23765
550.84         20.3356
551.28        20.55939
551.72        20.86438
552.15         21.1668
552.59        21.42316
553.03         21.6503
553.46        21.83245
553.90        21.96298
554.34        22.05136
554.77        22.07528
555.21        22.05223
555.65        22.08086
556.08         22.1859
556.52        22.07442
556.96        22.26566
557.39        22.34503
557.83        22.46749
558.27        22.61037
558.70        22.76106
559.14        22.88265
559.57        22.95739
560.01         23.0061
560.45        23.02462
560.88        23.00777
561.32        22.98081
561.75        22.93332
562.19        22.90596
562.63        22.92859
563.06        23.00218
563.50        23.12192
563.93        23.25834
564.37        23.37407
564.80        23.45121
565.24        23.51027
565.68        23.55653
566.11        23.60119
566.55        23.66721
566.98        23.74211
567.42        23.84768
567.85        24.01075
568.29         24.2431
568.72        24.46431
569.16          24.683
569.60        24.97658
570.03        25.22943
570.47        25.22587
570.90        25.09849
571.34        24.67671
571.77        25.09327
572.21        25.15232
572.64         25.2361
573.08        24.90036
573.51        24.25855
573.95        25.31257
574.38        26.80475
574.82        26.22597
575.25        25.84367
575.69        25.00946
576.12        24.80863
576.56        24.61926
576.99        25.27124
577.42        26.53264
577.86        26.19854
578.29        26.09229
578.73        27.32397
579.16        25.20437
579.60        23.12111
580.03        24.20386
580.47        25.83189
580.90        25.96959
581.33        25.42296
581.77        25.19044
582.20        27.48331
582.64        27.00516
583.07        22.93627
583.51         22.4613
583.94        22.20876
584.37        23.25663
584.81        24.28905
585.24        25.40524
585.68         25.9049
586.11        25.04605
586.54        23.26068
586.98        22.66953
587.41        23.04648
587.85        24.12364
588.28          24.815
588.71        23.66822
589.15        23.01335
589.58        23.35718
590.01        23.52626
590.45        23.97685
590.88        24.01834
591.31        23.75889
591.75        23.68366
592.18        23.76161
592.61        24.24313
593.05        24.67006
593.48        25.90563
593.91        25.65328
594.35        23.84085
594.78        23.44142
595.21        23.56129
595.65        24.63801
596.08        25.42045
596.51        24.54689
596.94        24.15723
597.38        24.66209
597.81        25.87691
598.24        26.50482
598.68        26.22321
599.11        26.23604
599.54        27.65764
599.97        28.02252
600.41        26.88683
600.84        27.20197
601.27         27.9621
601.70        27.88566
602.14        28.12672
602.57        28.12636
603.00        28.81488
603.43          29.957
603.87         31.1138
604.30        31.32338
604.73        30.65235
605.16         30.6616
605.60        31.37496
606.03        32.42476
606.46          33.502
606.89        33.34021
607.32        32.95263
607.76        33.50673
608.19         34.6561
608.62        34.51397
609.05        34.26889
609.48        34.88871
609.92        35.19445
610.35        35.63032
610.78        37.45494
611.21        37.87442
611.64        36.82926
612.07        37.41973
612.50        37.83483
612.94        38.34926
613.37        38.42793
613.80        38.84703
614.23        39.57631
614.66        39.83526
615.09        40.19052
615.52        40.41964
615.96        40.63453
616.39        40.99126
616.82        40.80812
617.25        41.01808
617.68          41.983
618.11        42.62083
618.54        42.96836
618.97        42.92922
619.40        42.72412
619.84         43.0091
620.27        43.72668
620.70        44.21661
621.13        44.40142
621.56        44.22498
621.99         43.8703
622.42        44.53804
622.85        45.89752
623.28        45.58574
623.71        45.45568
624.14        45.29355
624.57        45.12835
625.00        45.06972
625.43        45.02005
625.86        44.62447
626.29        44.72586
626.72        44.80139
627.15         44.6001
627.58        44.53347
628.01        44.44686
628.44        44.30352
628.87         44.1037
629.30        43.91232
629.73        43.68822
630.16        43.42672
630.59        42.90556
631.02         42.3833
631.45        41.84193
631.88        41.33202
632.31        40.86795
632.74        40.43774
633.17         40.0298
633.60        39.61805
634.03        39.19427
634.46        38.77079
634.89        38.33308
635.32        37.85651
635.75        37.34338
636.18        36.80346
636.61        36.27303
637.04         35.8069
637.47        35.41209
637.89        35.07288
638.32        34.74852
638.75        34.39344
639.18        33.99919
639.61        33.58993
640.04        33.18394
640.47        32.80321
640.90        32.45869
641.33        32.14194
641.76        31.85492
642.18        31.65023
642.61        31.53036
643.04        31.40945
643.47        31.25399
643.90        31.41152
644.33        31.22684
644.76        31.23664
645.18        31.24065
645.61        31.24674
646.04        31.24814
646.47        31.23649
646.90        31.28371
647.33        31.47965
647.75        31.85207
648.18        32.40456
648.61        32.97596
649.04        33.32171
649.47        33.40644
649.89        33.18871
650.32        32.98111
650.75        33.44639
651.18        34.54084
651.61        35.66292
652.03         36.5253
652.46        36.97385
652.89        37.26056
653.32        37.51463
653.74        37.91713
654.17        39.42426
654.60        40.22482
655.03        39.43895
655.46        40.80377
655.88        43.59296
656.31        46.75728
656.74        103.8056
657.16        66.58892
657.59        23.40599
658.02         18.5879
658.45        33.43109
658.87        43.24134
659.30        46.35199
659.73        46.03896
660.15        44.68321
660.58        47.24826
661.01        48.85685
661.44        47.58718
661.86         47.3049
662.29        47.59814
662.72        48.68048
663.14        50.29905
663.57        50.63942
664.00        49.88946
664.42        49.97536
664.85         50.9837
665.27        51.71667
665.70        51.97483
666.13        52.11345
666.55        52.11827
666.98        51.90213
667.41        51.64288
667.83        51.66318
668.26        52.03184
668.69        52.62772
669.11         53.2454
669.54        53.80143
669.96        53.72272
670.39        53.53537
670.82        53.25579
671.24        53.17441
671.67        53.40709
672.09         53.8187
672.52        54.23382
672.94        54.90837
673.37        54.81108
673.80         54.8111
674.22         54.7295
674.65        54.80199
675.07        55.04218
675.50        55.20907
675.92        55.30964
676.35        55.50005
676.77        55.78115
677.20        56.04684
677.62        56.28445
678.05        56.47531
678.47        56.60272
678.90           56.71
679.32        56.78324
679.75        56.76908
680.17        56.89318
680.60        56.97258
681.02        57.06005
681.45         57.1036
681.87        57.10831
682.30        57.10634
682.72        57.13646
683.15        57.22821
683.57        57.43438
684.00        57.74184
684.42        58.26742
684.85        58.56382
685.27         58.6443
685.70         58.6284
686.12        58.58324
686.54        58.62339
686.97        58.77318
687.39        59.01424
687.82        59.26807
688.24        59.44804
688.66        59.51145
689.09          59.493
689.51        59.46859
689.94        59.53712
690.36        59.73037
690.78        60.01108
691.21        60.31202
691.63        60.52829
692.06        60.63764
692.48        60.68525
692.90        60.72878
693.33        60.84509
693.75        61.05315
694.17         61.3237
694.60        61.62867
695.02        61.89296
695.44        62.06073
695.87        62.34343
696.29        62.68982
696.71        62.51131
697.14        62.05596
697.56        62.47371
697.98        63.47605
698.41         63.9306
698.83         63.0563
699.25        62.71529
699.68        63.08133
700.10        63.20498
700.52        63.18609
700.94        63.39506
701.37        63.79716
701.79        64.19373
702.21         64.5111
702.64        64.80841
703.06        65.01997
703.48        65.03907
703.90        64.87511
704.33        64.56215
704.75        64.22687
705.17        64.15633
705.59        64.41701
706.01        64.82448
706.44        65.22171
706.86        65.90295
707.28         65.9203
707.70        66.04416
708.12        66.05773
708.55         65.9725
708.97        65.83606
709.39        65.78063
709.81        65.85034
710.23        65.96977
710.66        66.14088
711.08        66.46423
711.50        66.82136
711.92         66.9917
712.34        66.93958
712.76        66.71322
713.19        66.46641
713.61        66.48124
714.03         66.8034
714.45        67.34722
714.87        67.90717
715.29        68.15807
715.71        68.02896
716.13        67.62534
716.56        67.15114
716.98        66.94724
717.40        67.09597
717.82        67.52621
718.24        68.07272
718.66        68.29311
719.08        68.36084
719.50        68.16383
719.92        67.90897
720.34        67.81129
720.76         67.9357
721.19        68.09793
721.61        68.42765
722.03        68.66624
722.45        68.83044
722.87        68.94891
723.29        69.06088
723.71         69.2201
724.13        69.43326
724.55        69.66969
724.97        69.87994
725.39        69.99464
725.81        69.99982
726.23        69.92567
726.65        69.82188
727.07        69.76189
727.49        69.77404
727.91         69.8477
728.33        69.96062
728.75        70.07291
729.17        70.16421
729.59        70.23561
730.01        70.31479
730.43        70.43305
730.85         70.6021
731.27        70.84419
731.69        71.07366
732.10        71.13755
732.52        71.01406
732.94        70.76102
733.36        70.56514
733.78        70.63576
734.20         71.0155
734.62        71.74142
735.04        72.97271
735.46        72.85397
735.88         71.8393
736.30        71.98048
736.72        73.24579
737.13        73.74171
737.55        73.17889
737.97        72.92249
738.39        73.04479
738.81        72.27792
739.23        71.09428
739.65        71.96208
740.06        74.35707
740.48        74.75484
740.90         73.2192
741.32        72.60731
741.74        73.17298
742.16        73.47718
742.57        73.55506
742.99        74.24249
743.41        75.31516
743.83         75.8482
744.25        75.76464
744.67        75.54214
745.08        75.37395
745.50        75.32938
745.92        75.50148
746.34        75.92099
746.75        76.45039
747.17        76.78265
747.59        76.87469
748.01        76.82624
748.42        76.77662
748.84        76.96165
749.26        77.44213
749.68        78.00191
750.09         78.5344
750.51        79.13926
750.93        79.64205
751.35        79.43745
751.76        78.72293
752.18        78.51558
752.60        78.82148
753.01        78.85925
753.43        78.66219
753.85        78.84192
754.27        79.43079
754.68        80.17641
755.10         80.8907
755.52        81.43648
755.93        81.71078
756.35        81.65676
756.77        81.45062
757.18        81.37416
757.60        81.52184
758.02        82.05479
758.43        82.41231
758.85        82.40415
759.26        79.85316
759.68        79.49678
760.10        80.59882
760.51        82.10377
760.93        81.97842
761.34        81.36402
761.76         80.5991
762.18        79.84916
762.59        79.58575
763.01        79.84113
763.42         80.6424
763.84        81.59986
764.26        82.48112
764.67        82.85518
765.09        82.71353
765.50         82.7207
765.92        82.72259
766.33        81.52344
766.75         79.6716
767.16        78.88863
767.58        79.48472
768.00        81.25834
768.41        83.70119
768.83        85.22037
769.24        85.19118
769.66        84.17487
770.07        82.75558
770.49        80.97924
770.90         79.4415
771.32        80.45979
771.73        83.27072
772.15        83.09708
772.56        80.33648
772.97        79.88186
773.39        81.65875
773.80        82.26313
774.22         81.4843
774.63        81.34439
775.05        81.84428
775.46        82.16032
775.88        82.20609
776.29         82.2104
776.70        82.21126
777.12        82.29924
777.53        82.50233
777.95        82.72763
778.36        82.86646
778.77        82.71719
779.19        82.29647
779.60        81.72411
780.02        81.21243
780.43        81.05783
780.84        81.44127
781.26        82.05537
781.67        82.77107
782.09        84.04871
782.50         85.2859
782.91        84.22439
783.33        81.65306
783.74        80.81416
784.15         81.8955
784.57        82.83924
784.98        83.22141
785.39        83.28524
785.81        82.97614
786.22        82.34621
786.63        81.78376
787.04        81.76701
787.46        82.37671
787.87        83.52043
788.28        84.81079
788.70        85.49271
789.11        85.38432
789.52         84.7963
789.93        84.03169
790.35         83.3856
790.76        83.05427
791.17        83.23094
791.58        83.75098
792.00        84.03378
792.41        83.96265
792.82        83.83949
793.23        83.85654
793.65        83.75592
794.06        83.72962
794.47        84.88103
794.88        86.45398
795.29        85.88577
795.71        83.45134
796.12        81.26411
796.53        80.02676
796.94        79.74105
797.35        80.50967
797.76        82.12791
798.18        83.89082
798.59        84.99801
799.00        85.04932
799.41          84.006
799.82        82.42768
800.23        81.49792
800.64        81.49432
801.06        81.76617
801.47        82.53555
801.88        83.09274
802.29        83.38265
802.70        83.54744
803.11        83.60587
803.52        83.54257
803.93        83.40108
804.34          83.149
804.75        82.86358
805.17        82.85213
805.58        83.21989
805.99        83.39639
806.40        83.33027
806.81        84.15472
807.22        85.23976
807.63        83.87819
808.04        80.82272
808.45        79.59564
808.86        80.48422
809.27        81.68339
809.68        82.69948
810.09         83.4335
810.50        83.63017
810.91        83.33301
811.32        82.79211
811.73        82.41813
812.14        82.33587
812.55        82.39611
812.96        82.55544
813.37        82.73256
813.78        82.88055
814.19        83.09379
814.60        83.23597
815.01         83.0666
815.42        82.56678
815.83        81.76773
816.24        80.98902
816.65        80.79703
817.05        81.36275
817.46        82.48841
817.87        83.71955
818.28        84.22692
818.69        83.79263
819.10        82.60667
819.51         81.2533
819.92        80.74268
820.33        81.32095
820.74        82.63802
821.14        84.06179
821.55        84.59215
821.96        83.94863
822.37        82.23867
822.78        80.19404
823.19         79.1535
823.60        79.40015
824.00        80.50628
824.41        81.92989
824.82        82.91449
825.23        83.11725
825.64        82.78786
826.04        82.21877
826.45        81.84795
826.86        81.79951
827.27         81.8821
827.68          82.007
828.08        82.08971
828.49        82.02113
828.90        81.94131
829.31         81.8055
829.72        81.50031
830.12        81.07118
830.53        80.53854
830.94        80.14581
831.35        80.22594
831.75        80.86486
832.16         81.8997
832.57        83.09131
832.97        83.92445
833.38        84.13824
833.79        83.86625
834.20        83.35064
834.60        82.97038
835.01        82.86629
835.42        82.92904
835.82        83.01588
836.23        82.80763
836.64        82.28673
837.04        81.59594
837.45        80.97066
837.86        80.76921
838.26        81.07461
838.67        81.72752
839.08        82.50581
839.48         83.0055
839.89        83.05843
840.29        82.80208
840.70        82.37463
841.11        81.97224
841.51         81.6783
841.92        81.40708
842.33         81.2122
842.73        81.19741
843.14        81.33043
843.54        81.64175
843.95        81.94495
844.35        81.98814
844.76         81.7034
845.17        81.17522
845.57         80.5937
845.98         80.2681
846.38        80.26906
846.79        80.48184
847.19        80.78657
847.60        80.87385
848.00        80.69743
848.41        80.32968
848.81        79.92152
849.22        79.61153
849.62        79.50396
850.03        79.57699
850.43         79.8064
850.84        80.05139
851.24        80.30948
851.65        80.41142
852.05         80.6394
852.46         81.2707
852.86        82.30809
853.27         83.6609
853.67        84.58128
854.07        84.06664
854.48        82.11501
854.88        79.10481
855.29        76.13801
855.69        74.81126
856.10        75.45841
856.50        77.84454
856.90        81.07934
857.31        83.08048
857.71         83.1375
858.12        81.77929
858.52        79.91567
858.92         78.7626
859.33        78.59473
859.73        79.06126
860.13        79.91733
860.54         80.6776
860.94        81.19711
861.34        81.61157
861.75          81.934
862.15         82.2499
862.55        82.54221
862.96        82.72203
863.36        82.81253
863.76        82.84112
864.17         82.8241
864.57        82.83178
864.97        82.86688
865.38         82.9115
865.78        83.00995
866.18        83.08439
866.58        83.19587
866.99        83.43159
867.39        83.85558
867.79        84.47939
868.19        85.00047
868.60        84.85093
869.00        83.95015
869.40        82.47703
869.80        81.18571
870.21        81.24535
870.61        82.97427
871.01          85.993
871.41        89.35761
871.81        91.45184
872.22        91.78996
872.62        90.81011
873.02         89.3242
873.42        88.72408
873.82        89.24844
874.22         90.3268
874.63        91.48135
875.03        91.79228
875.43        90.88528
875.83        89.79174
876.23        88.02845
876.63        87.55244
877.03        88.50275
877.44        91.29878
877.84        101.1908
878.24        99.04807
878.64        98.25957
879.04        95.93818
879.44        91.71162
879.84        89.50788
880.24         92.6207
880.64        94.91168
881.04        96.89738
881.44        98.12408
881.84        97.56237
882.24        95.73752
882.65        93.73579
883.05        92.69839
883.45        92.84028
883.85        93.97237
884.25         95.6066
884.65        96.71326
885.05        96.93093
885.45        96.61639
885.85        96.18545
886.25        96.20406
886.65        96.80048
887.05        97.72949
887.45        98.75874
887.85        99.49975
888.25        99.78526
888.65        99.77122
889.04        99.50085
889.44        99.08051
889.84        98.57748
890.24        97.96203
890.64        97.41817
891.04        97.23464
891.44        97.43738
891.84        97.96255
892.24        98.54077
892.64        98.65726
893.04        98.23711
893.44        97.53358
893.83        96.81734
894.23        96.49694
894.63        96.64397
895.03        97.04722
895.43        97.76625
895.83        98.88773
896.23        100.2997
896.63        101.9711
897.02        103.2699
897.42        103.1726
897.82        101.5886
898.22        98.91085
898.62        96.15367
899.01        94.81051
899.41        95.19976
899.81        96.80309
900.21        98.88732
900.61        100.2438
901.00        100.4958
901.40        100.0463
901.80        99.22649
902.20        98.54455
902.59        98.19671
902.99        97.98227
903.39        97.89307
903.79        97.95008
904.18          98.134
904.58        98.52444
904.98         99.0337
905.38        99.49204
905.77        99.82301
906.17        100.0203
906.57        100.1392
906.96        100.3383
907.36        100.5784
907.76        100.8226
908.15        100.9251
908.55        100.5387
908.95        99.67916
909.34        98.45547
909.74        97.23586
910.14          96.402
910.53        96.10205
910.93         96.2943
911.33        96.85361
911.72        97.53961
912.12        98.14497
912.52         98.6394
912.91        99.10853
913.31        99.72514
913.70        100.5722
914.10        101.5995
914.49        102.4692
914.89        102.2719
915.29         100.828
915.68        98.48488
916.08        96.31393
916.47        95.23425
916.87        95.34618
917.26        96.39841
917.66        97.61072
918.05        97.74432
918.45        96.52566
918.84        94.39832
919.24        92.33643
919.64        91.75993
920.03        92.99863
920.42        95.61004
920.82         98.6662
921.21        100.6509
921.61        100.9034
922.00        99.94052
922.40         98.3913
922.79        97.10612
923.19        96.38307
923.58           95.94
923.98        95.59509
924.37        95.16467
924.77        94.75266
925.16        93.36412
925.55        93.52615
925.95        94.02949
926.34        95.60684
926.74        97.74149
927.13        99.80877
927.52        100.5713
927.92        99.87748
928.31        98.14325
928.70        95.93381
929.10        94.20678
929.49        93.23868
929.89        92.79325
930.28        92.95621
930.67        93.86597
931.07        95.30692
931.46        97.29645
931.85         99.1199
932.24        99.71138
932.64        98.89846
933.03        96.83805
933.42        94.11373
933.82        92.12704
934.21        91.31617
934.60          91.372
934.99        91.79275
935.39         91.9898
935.78        91.87037
936.17        91.44151
936.56        90.50931
936.96        90.82599
937.35        89.70437
937.74        89.40791
938.13        89.39039
938.53        90.16125
938.92        91.73294
939.31        94.12891
939.70        96.69973
940.09         97.6143
940.49        96.28844
940.88        93.51054
941.27         90.5711
941.66        88.97955
942.05        88.94324
942.44        89.95903
942.84        91.59878
943.23        93.19391
943.62        94.31226
944.01         95.1272
944.40        95.55072
944.79         95.4388
945.18        94.78065
945.57         93.4874
945.97        91.72803
946.36        90.19994
946.75        89.37057
947.14        89.18059
947.53        89.43785
947.92        89.86685
948.31        90.39169
948.70         91.1127
949.09        91.94244
949.48         92.5965
949.87        92.90284
950.26        92.82506
950.65        92.52494
951.04        92.32383
951.43        92.30145
951.82        92.38233
952.21        92.37711
952.60        91.99652
952.99        91.19085
953.38        90.06276
953.77        88.91318
954.16        88.14429
954.55        87.84185
954.94        87.97242
955.33        88.13739
955.72        87.65687
956.11         86.4179
956.50        84.60307
956.89          82.981
957.28        82.93665
957.66        84.87092
958.05        88.10121
958.44         91.5498
958.83        93.62853
959.22          93.917
959.61        92.77024
960.00        90.89165
960.39        89.45635
960.78        88.84591
961.16         88.8219
961.55         88.7897
961.94         87.7808
962.33        85.69708
962.72        83.06138
963.11        80.77798
963.49        79.96775
963.88        80.79392
964.27        82.99019
964.66        85.75888
965.04        87.35065
965.43         86.9883
965.82        85.26988
966.21        83.24426
966.60        82.29858
966.98        82.70587
967.37        83.97869
967.76        85.54273
968.15        86.30896
968.53        85.91293
968.92        84.74792
969.31        83.33752
969.69        82.30587
970.08        81.82403
970.47        81.71835
970.86        81.72758
971.24          81.435
971.63        80.72336
972.02        79.74262
972.40        78.93495
972.79        79.01239
973.17        80.27415
973.56        82.41192
973.95        84.79642
974.33        86.19076
974.72        86.10773
975.11        84.87563
975.49        83.33524
975.88        82.71761
976.26        83.22583
976.65        84.62547
977.04         86.1152
977.42        85.80186
977.81        83.15811
978.19        79.07614
978.58        75.56763
978.96        74.62582
979.35        76.50449
979.74        80.75726
980.12        86.41174
980.51        90.02032
980.89        90.42651
981.28        88.53216
981.66        85.68236
982.05        83.62022
982.43        82.72031
982.82        82.40733
983.20        82.68547
983.59        83.69375
983.97         85.4692
984.35        88.18605
984.74         91.1211
985.12        92.82024
985.51        92.30965
985.89        89.73854
986.28        86.09756
986.66        83.10989
987.04        81.61667
987.43        81.33356
987.81        81.47942
988.20        81.01762
988.58        79.59174
988.96        77.02784
989.35        73.97401
989.73        73.76792
990.12        78.06071
990.50        85.03599
990.88        90.59494
991.27        91.99426
991.65        89.75955
992.03         84.7812
992.42        79.02482
992.80          76.073
993.18        77.08097
993.56        80.19963
993.95        83.72898
994.33        86.20341
994.71        87.22559
995.10        87.62405
995.48        87.35417
995.86        86.10653
996.24        83.89594
996.63        80.39448
997.01        76.59293
997.39        75.50131
997.77        78.29983
998.15         84.2595
998.54        90.35023
998.92        92.53082
999.30        89.63536
999.68        82.69788
1000.06        73.66793
1000.45        67.36115
1000.83        65.72639
1001.21        67.16452
1001.59        70.19915
1001.97        73.31902
1002.35        76.12135
1002.73        79.51781
1003.12        82.47133
1003.50        81.93085
1003.88          76.957
1004.26        69.39431
1004.64        62.49099
1005.02        58.81821
1005.40        58.42416
1005.78        61.00208
1006.16        67.66778
1006.54        76.79185
1006.92        83.29031
1007.30        86.28538
1007.69        86.98486
1008.07        86.93338
1008.45        86.55695
1008.83        84.92522
1009.21        79.57823
1009.59        62.98018
1009.97        20.71496
1010.35       -32.46603
1010.73       -17.55165
1011.11        18.12252
1011.49        42.24331
1011.86        59.71598
1012.24        69.40274
1012.62        72.82587
1013.00        72.31606
1013.38        68.34528
1013.76        63.44603
1014.14        66.79408
1014.52         86.1815
1014.90        124.5445
1015.28        171.8107
1015.66        197.6299
1016.04        183.3496
1016.41        133.8297
1016.79        77.38396
1017.17        46.24185
1017.55        40.11226
1017.93         44.4507
1018.31        51.46753
1018.69        57.23908
1019.06        61.95068
1019.44        67.24699
1019.82        75.82792
1020.20        91.97406
1020.58        121.4371
1020.95        174.3077
1021.33        281.3909
1021.71       -1127.922
1022.09        19.60089
1022.46        87.03087
1022.84        112.4111
1023.22        129.3972
1023.60        155.1427
1023.97        370.1295
1024.35        14.22452
1024.73        60.93062
