SpectraSmart Spectrum 2.9.0.0
--------- Device Information -----------
Spectrum Name :  反射率_0
Saving Time :  2024/04/26 00:07:13
Spectro-Module Model Name : SE2030-DUVN
Spectro-Module Serial Number : OS361AC55029948
Wavelength Start : 200
Wavelength End : 1025
Wavelength Unit : Wavelength(nm)
Spectrum Unit : Reflectance(%)
-----------Spectrum Setting ------------
Integration Time : 20ms
Average : 10
Boxcar : 0
Background removal :  enabled
linearity correction :  enabled
SC :  disabled
Intensity correction :  disabled
DWT denoise :  enabled
savitzky-golay :  disabled
FFT :  disabled
Running average :  disabled
Kalman :  disabled
High pass :  disabled
---------------BEGIN--------------------
Wavelength(nm)             Reflectance(%)
200.29               0
200.75        79.26474
201.21        75.98513
201.67        71.74715
202.13        69.15842
202.58        68.54813
203.04         69.6763
203.50        71.05001
203.96        70.27794
204.42        67.27905
204.88        63.23847
205.34        59.79577
205.80        58.43591
206.26        59.52298
206.72        64.15353
207.18        74.03719
207.64        81.55563
208.10        73.36797
208.55        60.02955
209.01        52.37937
209.47        51.02873
209.93        53.57494
210.39        58.99012
210.85        64.99525
211.31        66.46783
211.77        61.81986
212.23        53.01683
212.69        44.27106
213.14         42.0812
213.60        47.45407
214.06        58.59208
214.52        71.14063
214.98        78.39752
215.44        78.68468
215.90        74.17054
216.36        68.06103
216.81        64.75364
217.27        65.36443
217.73        68.20956
218.19        70.85706
218.65        70.22238
219.11        65.20383
219.57        55.19198
220.02        41.77217
220.48         33.8974
220.94         36.6134
221.40        47.74588
221.86        58.22364
222.32        58.59452
222.77         50.2246
223.23        38.46085
223.69        29.10369
224.15        28.08255
224.61         34.5858
225.06        45.46319
225.52        56.29934
225.98        61.30935
226.44        59.46341
226.90        53.23055
227.36        45.73303
227.81         41.1971
228.27        40.90849
228.73        43.22738
229.19        46.68306
229.65        49.15359
230.10         50.0256
230.56         50.1251
231.02        50.03973
231.48        50.36264
231.93        51.13756
232.39        52.07471
232.85        52.80991
233.31        52.90223
233.77        52.25642
234.22        51.04639
234.68        49.60448
235.14        48.55014
235.60        48.14659
236.05        48.24365
236.51        48.59657
236.97        48.77745
237.43        48.67502
237.88        48.50051
238.34        48.23942
238.80        48.10849
239.26        48.19358
239.71        48.36448
240.17         48.6628
240.63         49.6818
241.08        51.55156
241.54        54.14999
242.00        56.61526
242.46        57.69635
242.91        56.98018
243.37        52.77179
243.83        42.46074
244.28        36.19477
244.74        80.51443
245.20        118.9889
245.66        123.4814
246.11        122.9335
246.57        121.8471
247.03        117.4963
247.48        87.20763
247.94        36.95657
248.40        53.46983
248.85        65.95747
249.31        72.87064
249.77        77.39558
250.22        81.62767
250.68          87.443
251.14        94.75844
251.59        98.23361
252.05        93.36936
252.51        82.94646
252.96        72.22221
253.42        66.11362
253.88        64.03378
254.33        64.29457
254.79        66.87199
255.25        71.01709
255.70        75.50551
256.16        80.06565
256.62        82.83398
257.07        81.92585
257.53        78.26096
257.99        72.66235
258.44        67.03152
258.90        64.43244
259.35         64.0827
259.81        64.84409
260.27        64.89491
260.72        62.50029
261.18          58.339
261.63        53.15592
262.09        48.47844
262.55        45.41309
263.00        43.88381
263.46        43.39385
263.91         43.0415
264.37        42.12621
264.83        40.50123
265.28        38.36053
265.74        36.33062
266.19          35.109
266.65        34.88256
267.11        35.22507
267.56        35.56581
268.02        35.23979
268.47        34.13497
268.93        32.49976
269.38        30.66301
269.84        29.41074
270.30        28.96302
270.75        29.10259
271.21        29.45115
271.66        29.44545
272.12        28.93157
272.57        28.09699
273.03        27.23185
273.48        26.68237
273.94        26.55165
274.39        26.66526
274.85        26.81624
275.31        26.70643
275.76        26.26298
276.22        25.61864
276.67        24.92387
277.13        24.47936
277.58        24.28976
278.04        24.27909
278.49        24.24817
278.95        23.97603
279.40         23.4061
279.86         22.6851
280.31        21.93097
280.77        21.42123
281.22        21.17288
281.68        21.11724
282.13        21.14049
282.59         21.1148
283.04        20.99508
283.50        20.84729
283.95        20.67346
284.41        20.49145
284.86        20.30451
285.32        20.10939
285.77        19.94038
286.22        19.91254
286.68        20.01345
287.13        20.18721
287.59        20.32095
288.04        20.24018
288.50        19.94004
288.95        19.47098
289.41        18.95878
289.86        18.49454
290.32        18.16635
290.77        17.93431
291.22        17.82908
291.68        17.85734
292.13        18.01361
292.59        18.29251
293.04         18.6567
293.50        19.04514
293.95        19.42047
294.40        19.76308
294.86        20.06408
295.31         20.3276
295.77        20.56066
296.22        20.76761
296.68        20.93853
297.13        21.03174
297.58        21.07153
298.04        21.09767
298.49        21.19195
298.95        21.50857
299.40        22.05681
299.85        22.77561
300.31        23.54497
300.76        24.18735
301.21        24.63165
301.67        24.94663
302.12          25.141
302.58        25.27787
303.03        25.37537
303.48        25.43068
303.94         25.5335
304.39        25.79204
304.84        26.22128
305.30        26.77745
305.75         27.3233
306.20        27.65116
306.66        27.73635
307.11        27.63428
307.57         27.4718
308.02        27.37249
308.47        27.40322
308.93         27.5213
309.38        27.70372
309.83        27.94362
310.29        28.21062
310.74        28.49653
311.19        28.75386
311.65        28.90693
312.10         28.9395
312.55        28.87265
313.00        28.72658
313.46        28.54896
313.91        28.35914
314.36        28.16782
314.82        28.02586
315.27        27.99539
315.72        28.08922
316.18         28.2858
316.63        28.52699
317.08        28.69002
317.53        28.73678
317.99        28.68848
318.44        28.60187
318.89         28.5742
319.35        28.62349
319.80        28.72506
320.25        28.81296
320.70        28.78318
321.16        28.61587
321.61        28.34729
322.06        28.05453
322.51        27.85287
322.97        27.75926
323.42        27.74842
323.87        27.74703
324.32        27.63429
324.78         27.3826
325.23        27.04246
325.68        26.68223
326.13        26.41438
326.59        26.26797
327.04        26.22749
327.49        26.25165
327.94        26.27455
328.39        26.27227
328.85        26.25308
329.30        26.25652
329.75        26.30902
330.20        26.41454
330.66        26.53664
331.11        26.66096
331.56        26.72477
332.01        26.70921
332.46        26.61747
332.92        26.47661
333.37        26.36935
333.82        26.31343
334.27        26.31215
334.72        26.30676
335.17        26.19561
335.63        25.96206
336.08        25.64101
336.53        25.36004
336.98        25.32548
337.43        25.56964
337.88        26.03124
338.34        26.49968
338.79        26.67677
339.24        26.46726
339.69        25.95783
340.14        25.37465
340.59        25.11634
341.05         25.2742
341.50        25.71447
341.95         26.2208
342.40        26.47822
342.85        26.41178
343.30        26.13667
343.75        25.74824
344.20         25.4127
344.66         25.1998
345.11        25.02435
345.56         24.9119
346.01        24.90077
346.46        24.97448
346.91        25.14534
347.36        25.27378
347.81        25.12794
348.26        24.69188
348.72        24.06856
349.17        23.45335
349.62        23.25043
350.07        23.54548
350.52        24.19546
350.97        24.97454
351.42        25.53864
351.87        25.78189
352.32        25.79445
352.77         25.6513
353.22         25.4779
353.67         25.3229
354.13        25.14911
354.58        24.94419
355.03        24.73207
355.48        24.52493
355.93        24.35306
356.38        24.20901
356.83        24.06339
357.28        23.90905
357.73        23.74054
358.18        23.59594
358.63        23.53547
359.08        23.56198
359.53        23.66012
359.98        23.73291
360.43          23.632
360.88        23.33755
361.33        22.89174
361.78        22.44417
362.23        22.23999
362.68        22.32167
363.13         22.6009
363.58        22.90191
364.03        22.94838
364.48        22.67951
364.93        22.19612
365.38        21.62861
365.83        21.18534
366.28        20.93806
366.73        20.82172
367.18        20.80617
367.63        20.84353
368.08        20.89739
368.53        20.98021
368.98        21.04899
369.43        21.02796
369.88        20.90731
370.33         20.7088
370.78        20.46966
371.23        20.26439
371.68        20.12251
372.13        20.02091
372.58        19.98511
373.03        20.05076
373.48        20.20721
373.93        20.44141
374.38        20.65666
374.83        20.70374
375.28        20.55706
375.72        20.24539
376.17        19.90263
376.62        19.71159
377.07        19.71993
377.52        19.86889
377.97        20.06164
378.42        20.14038
378.87        20.06415
379.32        19.89164
379.77        19.68439
380.22         19.5266
380.67        19.44075
381.11         19.3966
381.56        19.36786
382.01        19.32347
382.46        19.25245
382.91        19.16951
383.36         19.0842
383.81        19.00661
384.26        18.94202
384.71        18.88771
385.15        18.82938
385.60        18.76204
386.05         18.6739
386.50        18.55704
386.95        18.43526
387.40         18.3503
387.85        18.31389
388.29        18.31904
388.74        18.31704
389.19        18.21107
389.64         17.9934
390.09        17.68151
390.54         17.3888
390.98         17.3061
391.43        17.47335
391.88        17.81383
392.33        18.15218
392.78        18.23066
393.23        18.01968
393.67          17.611
394.12        17.19745
394.57        16.98528
395.02         17.0191
395.47        17.22732
395.91        17.51614
396.36        17.69301
396.81        17.69827
397.26        17.57895
397.71        17.41049
398.15         17.2856
398.60        17.25424
399.05        17.28562
399.50        17.31428
399.95        17.20424
400.39         17.0186
400.84        16.73511
401.29        16.47641
401.74         16.4263
402.18        16.63321
402.63        17.01301
403.08        17.42029
403.53        17.62331
403.97        17.56521
404.42         17.3167
404.87         16.9825
405.32        16.74665
405.76        16.66796
406.21        16.69182
406.66        16.76921
407.11        16.83715
407.55        16.87749
408.00        16.91057
408.45        16.92761
408.90        16.89715
409.34         16.8167
409.79        16.69179
410.24         16.5675
410.68        16.51023
411.13        16.53537
411.58        16.63032
412.03        16.74991
412.47        16.81401
412.92        16.78925
413.37        16.70054
413.81        16.60364
414.26         16.6013
414.71         16.7019
415.15        16.87226
415.60        17.02891
416.05        17.05884
416.49        16.93695
416.94        16.71539
417.39        16.45705
417.83        16.26883
418.28        16.19564
418.73         16.1962
419.17         16.2581
419.62        16.35578
420.07        16.47084
420.51        16.60968
420.96        16.72206
421.41        16.71841
421.85        16.58276
422.30        16.36731
422.74        16.13555
423.19        16.01621
423.64        16.01988
424.08        16.11966
424.53        16.25885
424.98        16.36811
425.42        16.42555
425.87        16.44118
426.31        16.42041
426.76        16.42119
427.21        16.42643
427.65        16.30664
428.10        16.15174
428.54        16.20933
428.99        16.49944
429.44        16.92405
429.88         17.2902
430.33        17.35168
430.77        17.07182
431.22        16.53209
431.66        15.97511
432.11        15.82925
432.56         16.1311
433.00        16.68607
433.45        17.25114
433.89        17.56186
434.34        17.46163
434.78        17.06173
435.23        16.38394
435.67        16.30766
436.12        16.70251
436.57        16.96928
437.01         16.9777
437.46        16.94129
437.90        16.86876
438.35         16.7023
438.79        16.49545
439.24          16.374
439.68        16.37288
440.13        16.38804
440.57        16.42035
441.02        16.69565
441.46         17.0705
441.91        16.95942
442.35        16.47723
442.80        16.29049
443.24        16.38335
443.69        16.49533
444.13        16.54726
444.58        16.41376
445.02        16.15507
445.47        16.13863
445.91        16.31289
446.36        16.29779
446.80        16.07651
447.24        15.87141
447.69         15.7406
448.13        15.66888
448.58        15.67494
449.02        15.75732
449.47        15.86427
449.91        15.90777
450.36        15.86988
450.80        15.77175
451.25        15.66377
451.69        15.61455
452.13        15.64338
452.58        15.71339
453.02         15.7972
453.47        15.85097
453.91        15.86425
454.36        15.85953
454.80        15.83109
455.24        15.76635
455.69        15.68084
456.13         15.5712
456.58        15.49836
457.02         15.5304
457.46        15.67813
457.91        15.90578
458.35        16.14012
458.79        16.25793
459.24        16.24184
459.68        16.12028
460.13        15.96428
460.57        15.84418
461.01        15.80256
461.46        15.81065
461.90        15.85698
462.34        15.91451
462.79        15.96685
463.23        16.01554
463.68        16.06927
464.12        16.13926
464.56        16.22389
465.01        16.32831
465.45        16.38363
465.89        16.34679
466.34        16.22846
466.78        15.95867
467.22        15.66541
467.67        15.71404
468.11        16.05469
468.55        16.21332
468.99        16.14347
469.44         16.0967
469.88        16.12722
470.32          16.283
470.77        16.49902
471.21        16.55121
471.65        16.41612
472.10        16.26738
472.54        16.15598
472.98        16.11071
473.42         16.1529
473.87        16.27582
474.31        16.43572
474.75        16.55728
475.20        16.62284
475.64        16.64483
476.08        16.64405
476.52        16.65251
476.97        16.68198
477.41        16.72435
477.85        16.76628
478.29        16.82195
478.74         16.8933
479.18        16.89319
479.62        16.83852
480.06        17.04138
480.50        17.14992
480.95        17.21843
481.39        17.12901
481.83        17.05631
482.27         17.0094
482.72        16.83456
483.16        16.61298
483.60        16.69593
484.04        17.08484
484.48        17.30978
484.93        17.55165
485.37        17.95418
485.81        18.41087
486.25        18.62758
486.69        24.18033
487.14        19.45816
487.58        12.81871
488.02        15.65817
488.46        17.89616
488.90        17.97042
489.34        17.98619
489.79        17.81875
490.23        18.71791
490.67        19.30577
491.11        19.30466
491.55        19.18703
491.99        18.92913
492.43        18.70912
492.88        18.61375
493.32         18.6454
493.76        18.67811
494.20        18.87414
494.64         19.1739
495.08        19.52802
495.52        19.89886
495.96        20.25532
496.41        20.52447
496.85         20.6879
497.29        20.74461
497.73        20.49326
498.17        20.18656
498.61        20.32914
499.05        20.93352
499.49        21.04639
499.93        21.17977
500.37          21.355
500.82        21.49093
501.26        21.76583
501.70        22.06061
502.14        22.20408
502.58        22.18042
503.02         22.1779
503.46        22.21078
503.90        22.16273
504.34         22.0697
504.78        22.04518
505.22        22.10616
505.66        22.23019
506.10         22.3763
506.54        22.47052
506.98         22.4947
507.42         22.4726
507.86        22.45427
508.30        22.51748
508.74        22.67419
509.18        22.89058
509.62        23.11496
510.06        23.26373
510.50        23.31673
510.94        23.31118
511.38        23.27295
511.82        23.24137
512.26        23.23522
512.70        23.23559
513.14         23.2713
513.58        23.39069
514.02        23.58142
514.46        23.81955
514.90        24.02682
515.34        24.04495
515.78        23.82368
516.22        23.56432
516.66        23.36559
517.10        22.95362
517.54        22.36493
517.98        23.14152
518.42          22.979
518.86        23.33701
519.30        23.50434
519.74        23.70541
520.18        23.88485
520.62        23.92382
521.06         23.8352
521.50        23.63114
521.93        23.38378
522.37        23.22581
522.81        23.19205
523.25        23.24695
523.69        23.35021
524.13        23.43581
524.57        23.47803
525.01        23.49508
525.45        23.48465
525.89         23.4419
526.32        23.36811
526.76        23.26361
527.20        23.13986
527.64        23.02707
528.08        22.93865
528.52        22.84826
528.96        22.75028
529.40          22.696
529.83        22.69546
530.27        22.50466
530.71        22.55272
531.15        22.45554
531.59        22.34554
532.03        22.21646
532.46         22.1142
532.90        22.11337
533.34        22.21411
533.78        22.38648
534.22        22.55851
534.66        22.62485
535.09        22.55827
535.53        22.40079
535.97        22.19874
536.41        22.03248
536.85        21.93191
537.28        21.87871
537.72        21.86097
538.16        21.85992
538.60        21.86848
539.04        21.87916
539.47        21.89808
539.91        21.98723
540.35        22.12223
540.79        22.20472
541.22        22.23356
541.66        22.29753
542.10        22.39644
542.54        22.47076
542.97        22.53353
543.41        22.64399
543.85        22.80371
544.29        23.00971
544.72        23.21136
545.16         23.3383
545.60        23.37909
546.04        23.35026
546.47        23.34171
546.91        23.50659
547.35        23.85608
547.79        24.34159
548.22        24.82129
548.66        25.05351
549.10        25.00688
549.53        24.79679
549.97        24.56885
550.41        24.48494
550.84         24.6015
551.28        24.88342
551.72        25.26245
552.15        25.60987
552.59        25.87336
553.03        26.08537
553.46        26.25588
553.90        26.42281
554.34        26.60065
554.77          26.742
555.21        26.83733
555.65        26.95764
556.08        27.11827
556.52        26.97835
556.96        27.17948
557.39        27.22547
557.83        27.31659
558.27        27.42284
558.70        27.55497
559.14        27.71318
559.57        27.87848
560.01        28.05847
560.45        28.20733
560.88        28.25408
561.32        28.21402
561.75        28.09645
562.19        27.97598
562.63        27.93488
563.06          27.991
563.50        28.10766
563.93        28.25098
564.37        28.42998
564.80         28.5943
565.24         28.6553
565.68        28.64374
566.11        28.70387
566.55         28.8672
566.98        29.04689
567.42        29.23338
567.85        29.43646
568.29        29.66506
568.72        29.82661
569.16        29.97004
569.60        30.28078
570.03        30.63554
570.47        30.67789
570.90        30.51501
571.34        30.19834
571.77        30.54839
572.21        30.57656
572.64        30.63352
573.08        30.19018
573.51        29.37312
573.95        30.71802
574.38        32.74405
574.82         31.7009
575.25        31.69971
575.69        30.60831
576.12        30.13232
576.56         30.0343
576.99        30.66164
577.42        32.00076
577.86        31.94983
578.29         31.7132
578.73        33.23438
579.16        30.70861
579.60        28.04763
580.03        29.20618
580.47        31.07958
580.90        31.84284
581.33        31.10486
581.77        30.65995
582.20        33.32409
582.64        32.92172
583.07        28.08535
583.51        27.48302
583.94        26.90679
584.37        28.02567
584.81        29.33976
585.24        30.75133
585.68        31.39531
586.11        30.55608
586.54        28.62135
586.98        27.82612
587.41        27.93335
587.85        29.05033
588.28        30.00988
588.71        28.61164
589.15        27.60052
589.58        28.18287
590.01        28.39522
590.45        29.04714
590.88        29.10425
591.31        28.72052
591.75        28.51196
592.18        28.57435
592.61        29.22312
593.05        29.93015
593.48        31.12057
593.91        31.25285
594.35        28.65141
594.78        28.19383
595.21        28.38988
595.65        29.77001
596.08        30.77608
596.51        29.69506
596.94        29.15543
597.38        29.70422
597.81        31.09648
598.24        31.93031
598.68        31.60402
599.11        31.44995
599.54        33.13433
599.97        33.98687
600.41        32.17466
600.84        32.55146
601.27        33.48684
601.70        33.42218
602.14        33.70031
602.57        33.57502
603.00        34.18536
603.43        35.49743
603.87        36.83432
604.30        36.99878
604.73         36.1649
605.16        36.16409
605.60        37.04956
606.03        38.19352
606.46        39.22493
606.89        39.01336
607.32         38.4955
607.76         38.8772
608.19        40.31891
608.62        40.10885
609.05        39.77086
609.48         40.4419
609.92        40.75583
610.35        40.84605
610.78        42.68183
611.21        43.09722
611.64        41.73971
612.07        42.43205
612.50          42.933
612.94        43.48933
613.37        43.46161
613.80        43.75325
614.23        44.38709
614.66        44.57431
615.09        44.95737
615.52        45.27158
615.96        45.58403
616.39        45.90753
616.82        45.44237
617.25        45.63461
617.68        46.19215
618.11        46.82415
618.54        47.30863
618.97        47.14922
619.40        46.61698
619.84        46.80314
620.27        47.66384
620.70        48.30747
621.13        48.57367
621.56        48.28492
621.99        47.68734
622.42         48.3199
622.85        49.82288
623.28        49.62657
623.71        49.28936
624.14        49.08224
624.57        48.83449
625.00        48.59621
625.43         48.6707
625.86        48.22671
626.29        48.29904
626.72        48.50878
627.15        48.30286
627.58        48.26284
628.01        48.08787
628.44        48.10218
628.87        48.12755
629.30        47.35284
629.73        47.60942
630.16        47.25537
630.59        46.85205
631.02        46.45874
631.45        46.11742
631.88        45.69364
632.31         45.1458
632.74        45.00209
633.17        44.39062
633.60        44.00727
634.03        43.59657
634.46         43.1841
634.89        42.76312
635.32        42.33965
635.75        41.92411
636.18        41.51007
636.61        41.10305
637.04        40.70101
637.47        40.28902
637.89        39.89745
638.32        39.52751
638.75        39.10123
639.18        38.60633
639.61        38.49126
640.04        37.99431
640.47        37.69282
640.90        37.36397
641.33        37.02869
641.76        36.71719
642.18        36.54871
642.61        36.54187
643.04        36.57048
643.47        36.54239
643.90        36.78354
644.33        36.51048
644.76        36.37503
645.18        36.21145
645.61        36.13789
646.04        36.17566
646.47        36.28627
646.90         36.4809
647.33        36.74793
647.75        37.08929
648.18        37.54022
648.61        37.99282
649.04        38.28852
649.47        38.41815
649.89        38.30685
650.32        38.22151
650.75        38.79396
651.18        39.97576
651.61        41.06035
652.03        41.78751
652.46          42.395
652.89        43.03772
653.32        43.04813
653.74        42.76743
654.17        44.39085
654.60        45.35101
655.03        44.77878
655.46        45.43694
655.88        48.66051
656.31        52.27997
656.74        118.9113
657.16         77.1924
657.59        27.21912
658.02        21.05471
658.45        37.21103
658.87         48.2849
659.30        50.83922
659.73        50.24928
660.15         49.1778
660.58        51.21358
661.01        53.12743
661.44        52.01754
661.86        51.80262
662.29        51.95891
662.72         52.8278
663.14        54.24675
663.57        54.53258
664.00        53.84589
664.42        53.85141
664.85        54.62384
665.27        55.12926
665.70        55.22313
666.13        55.25728
666.55        55.22647
666.98        55.04151
667.41        54.82486
667.83        54.80919
668.26        55.04223
668.69        55.42967
669.11         55.8126
669.54        56.18209
669.96        55.95911
670.39        55.71589
670.82         55.4455
671.24        55.25689
671.67        55.30861
672.09        55.84643
672.52        56.58602
672.94        57.18581
673.37        56.63802
673.80        56.47954
674.22        56.52284
674.65        56.55518
675.07        56.58355
675.50        56.62028
675.92        56.68803
676.35        56.84406
676.77        57.07602
677.20         57.3348
677.62        57.59428
678.05        57.70704
678.47        57.62745
678.90        57.83424
679.32        57.60721
679.75         57.5537
680.17        57.69435
680.60        57.84416
681.02         58.0009
681.45        58.04557
681.87        57.97498
682.30        57.81031
682.72        57.65331
683.15        57.69352
683.57        57.97459
684.00        58.31442
684.42        58.79457
684.85        59.03994
685.27         59.0543
685.70        58.90817
686.12        58.69016
686.54        58.57909
686.97        58.60994
687.39        58.74058
687.82        58.90469
688.24        59.03892
688.66        59.10168
689.09         59.1255
689.51        59.14274
689.94        59.19064
690.36        59.29287
690.78        59.39156
691.21        59.47491
691.63        59.63775
692.06        59.81944
692.48        59.78783
692.90        59.63031
693.33         59.6418
693.75        59.84193
694.17        60.18615
694.60        60.55886
695.02         60.5639
695.44        60.25796
695.87        60.39618
696.29        60.93825
696.71        60.93766
697.14        60.53842
697.56        60.86658
697.98        61.66961
698.41        61.97892
698.83        61.01307
699.25        60.65859
699.68        60.73736
700.10        60.69083
700.52        60.53082
700.94        60.59592
701.37          60.869
701.79         61.1974
702.21        61.51266
702.64        61.85386
703.06        62.12085
703.48        62.14693
703.90        61.92668
704.33        61.51837
704.75        61.06344
705.17        60.85928
705.59        60.97916
706.01        61.25662
706.44        61.57743
706.86        62.14145
707.28        62.23023
707.70         62.4711
708.12        62.63531
708.55        62.47464
708.97        62.07778
709.39        61.91086
709.81         62.0187
710.23         62.0647
710.66        62.05008
711.08        62.24061
711.50        62.53482
711.92        62.65045
712.34        62.54916
712.76        62.30112
713.19        62.03083
713.61        61.96716
714.03        62.15028
714.45        62.50809
714.87        62.88235
715.29        63.02622
715.71        62.88687
716.13         62.5461
716.56        62.15834
716.98        61.99802
717.40         62.1271
717.82        62.45867
718.24        62.85722
718.66        63.09533
719.08        63.10523
719.50        62.95772
719.92        62.73463
720.34         62.5812
720.76        62.54757
721.19        62.49099
721.61        62.58208
722.03        62.66039
722.45        62.76432
722.87        62.89773
723.29        63.06078
723.71        63.24125
724.13        63.42499
724.55        63.60287
724.97        63.74331
725.39        63.80544
725.81        63.78422
726.23        63.69397
726.65        63.58139
727.07        63.51911
727.49        63.53133
727.91        63.60996
728.33        63.71944
728.75        63.79585
729.17        63.81687
729.59        63.79167
730.01        63.77009
730.43        63.82207
730.85        63.96478
731.27        64.20139
731.69        64.43271
732.10        64.48239
732.52        64.31711
732.94        64.02258
733.36        63.77879
733.78        63.74563
734.20        63.96341
734.62        64.67471
735.04        65.60007
735.46        65.59531
735.88        64.89152
736.30        65.05233
736.72        66.06721
737.13        66.61192
737.55         66.3969
737.97        66.19659
738.39        66.12563
738.81          65.512
739.23        64.74123
739.65        65.61099
740.06        67.60264
740.48        67.76668
740.90        66.17995
741.32        65.29784
741.74        65.42439
742.16        65.49552
742.57        65.59717
742.99        66.37212
743.41        67.55343
743.83        68.29772
744.25        68.43808
744.67        68.19683
745.08        67.80807
745.50        67.65359
745.92        67.85539
746.34        68.27017
746.75        68.75101
747.17        69.04928
747.59        69.11563
748.01        69.05967
748.42        69.01113
748.84        69.12309
749.26        69.47048
749.68        70.00639
750.09        70.60291
750.51        71.10812
750.93        71.39556
751.35        71.19714
751.76        70.66951
752.18        70.49183
752.60        70.66143
753.01        70.60292
753.43        70.35836
753.85        70.43879
754.27        70.87944
754.68        71.46677
755.10        72.04935
755.52        72.52163
755.93        72.79549
756.35        72.83822
756.77        72.80496
757.18        72.78105
757.60         72.7898
758.02        73.28275
758.43        73.93026
758.85        73.13821
759.26        71.45108
759.68        71.40766
760.10        72.83648
760.51        73.52641
760.93        73.13136
761.34        72.07442
761.76        71.54098
762.18        71.10703
762.59        71.19164
763.01         71.6318
763.42        72.35764
763.84        72.99612
764.26        73.41103
764.67        73.58349
765.09        73.50208
765.50        73.24657
765.92        72.81721
766.33        71.90178
766.75        70.83534
767.16        70.35362
767.58        70.68229
768.00         71.9789
768.41         73.9328
768.83        75.43353
769.24        75.84391
769.66        75.05469
770.07        73.59049
770.49        71.95128
770.90        70.68596
771.32        71.65112
771.73        74.12742
772.15        73.91097
772.56        71.36813
772.97        70.76815
773.39        72.03828
773.80        72.70328
774.22        71.71799
774.63        71.59141
775.05        72.02138
775.46        72.23238
775.88        72.13108
776.29           71.95
776.70        71.79956
777.12         71.8565
777.53        72.16762
777.95        72.61718
778.36        73.01572
778.77        73.04823
779.19        72.69295
779.60        72.05355
780.02          71.411
780.43        71.28004
780.84        71.80641
781.26         72.4288
781.67        73.01055
782.09        74.17068
782.50        75.35173
782.91        74.36023
783.33        71.92673
783.74        71.09247
784.15        72.03863
784.57        72.87978
784.98        73.22409
785.39        73.26863
785.81        72.96225
786.22        72.38736
786.63        71.88808
787.04        71.85006
787.46        72.34723
787.87        73.33014
788.28         74.4341
788.70        74.95967
789.11        74.75452
789.52        74.06371
789.93        73.22726
790.35        72.71849
790.76        72.66644
791.17        72.96735
791.58        73.43363
792.00        73.66344
792.41        73.53297
792.82        73.31004
793.23        73.17561
793.65        72.78017
794.06        72.45636
794.47        73.62373
794.88        75.46957
795.29        75.45062
795.71        73.08812
796.12        71.06698
796.53        69.87695
796.94        69.65014
797.35        70.43392
797.76        71.71041
798.18        72.89652
798.59        73.67422
799.00         73.7263
799.41        72.82521
799.82        71.44221
800.23        70.63018
800.64        70.61093
801.06        70.99272
801.47        71.63361
801.88        72.19978
802.29        72.53903
802.70        72.78302
803.11        72.92164
803.52        72.90525
803.93        72.76044
804.34        72.46175
804.75        72.12463
805.17        72.04563
805.58        72.32406
805.99        72.60753
806.40        72.77351
806.81        73.31573
807.22        73.82711
807.63        72.77722
808.04        70.72855
808.45        69.91942
808.86        70.55338
809.27        71.52813
809.68        72.41529
810.09         72.9026
810.50        72.77663
810.91        72.15025
811.32        71.33936
811.73        70.85286
812.14        70.83007
812.55        71.09277
812.96        71.50787
813.37        71.82484
813.78        71.94395
814.19        72.01099
814.60        71.95272
815.01        71.63253
815.42         71.0666
815.83        70.24568
816.24        69.50813
816.65        69.45696
817.05        70.24481
817.46         71.6655
817.87         73.1706
818.28        73.77238
818.69        73.21751
819.10        71.75281
819.51        70.04205
819.92        69.21925
820.33        69.58672
820.74        70.81252
821.14        72.29403
821.55        72.94401
821.96        72.51601
822.37        71.38298
822.78        70.06219
823.19        69.31183
823.60        69.33942
824.00        69.94059
824.41        70.76579
824.82        71.32858
825.23        71.41866
825.64        71.21725
826.04        70.89176
826.45        70.67244
826.86        70.62487
827.27        70.62941
827.68        70.64494
828.08        70.65242
828.49        70.58327
828.90        70.53617
829.31        70.45683
829.72        70.22794
830.12        69.88445
830.53        69.44709
830.94         69.1493
831.35        69.31224
831.75        70.01293
832.16        71.08978
832.57        72.29502
832.97         73.0993
833.38        73.25497
833.79        72.90919
834.20        72.30957
834.60        71.84004
835.01        71.64618
835.42        71.61329
835.82        71.63689
836.23        71.47317
836.64        71.09883
837.04        70.62083
837.45        70.17701
837.86        69.97138
838.26        70.05244
838.67        70.31932
839.08        70.63653
839.48        70.76302
839.89        70.61193
840.29        70.28796
840.70        69.90686
841.11        69.62954
841.51        69.50992
841.92        69.46143
842.33        69.50257
842.73        69.67554
843.14        69.92398
843.54        70.27197
843.95        70.53469
844.35        70.46656
844.76        70.02454
845.17        69.31837
845.57        68.57301
845.98        68.13806
846.38        68.09738
846.79        68.32354
847.19        68.72019
847.60        69.02325
848.00        69.16383
848.41        69.19199
848.81        69.12907
849.22        68.92929
849.62         68.6559
850.03        68.31255
850.43        68.03589
850.84        68.02249
851.24        68.36218
851.65        68.85292
852.05        69.50988
852.46        70.17409
852.86        70.76516
853.27        71.33118
853.67        71.50831
854.07        70.85965
854.48        69.45374
854.88        67.46348
855.29        65.55602
855.69        64.68967
856.10        65.04699
856.50        66.52759
856.90        68.58771
857.31        69.93089
857.71        70.14091
858.12        69.49165
858.52        68.51405
858.92        67.91543
859.33        67.86478
859.73        68.16141
860.13        68.68777
860.54        69.20429
860.94        69.65993
861.34        70.11707
861.75        70.53376
862.15        70.92333
862.55        71.24728
862.96        71.46696
863.36        71.62614
863.76         71.7855
864.17        71.95254
864.57        72.15819
864.97        72.36421
865.38        72.50217
865.78        72.60505
866.18        72.61523
866.58        72.59334
866.99        72.63594
867.39         72.8072
867.79        73.11445
868.19        73.32734
868.60        73.01177
869.00        72.11023
869.40        70.80194
869.80         69.7078
870.21        69.77146
870.61        71.25866
871.01        73.84956
871.41        76.79125
871.81        78.78872
872.22        79.44601
872.62        79.08253
873.02         78.2409
873.42        78.03932
873.82        78.52364
874.22        78.88925
874.63         79.0088
875.03        78.81152
875.43        78.21638
875.83        78.56168
876.23        77.12707
876.63        76.33422
877.03        75.81236
877.44        75.71061
877.84        107.1272
878.24        81.95364
878.64        83.08246
879.04        84.93726
879.44        79.81219
879.84        77.25647
880.24         83.0207
880.64        85.26023
881.04        85.22116
881.44        84.94007
881.84        84.27159
882.24        83.16854
882.65        82.29124
883.05        82.06699
883.45        82.57008
883.85        84.00925
884.25        85.81687
884.65        86.64523
885.05        86.15569
885.45        84.82938
885.85        83.37151
886.25        82.75549
886.65        83.17654
887.05        84.27601
887.45        85.69592
887.85         86.7944
888.25        87.28519
888.65        87.38554
889.04        87.10981
889.44        86.52168
889.84         85.7116
890.24        84.66106
890.64        83.66563
891.04        83.19329
891.44        83.32029
891.84        83.96088
892.24        84.78998
892.64        85.16932
893.04        84.96944
893.44        84.45753
893.83        83.94193
894.23        83.88428
894.63        84.36956
895.03        85.14899
895.43        86.20507
895.83        87.49257
896.23        88.85931
896.63        90.32113
897.02        91.32761
897.42        91.00175
897.82         89.3055
898.22        86.60366
898.62        83.89207
899.01        82.63141
899.41         83.1126
899.81        84.83369
900.21        87.03208
900.61        88.45061
901.00        88.69585
901.40        88.15592
901.80        87.19636
902.20         86.3859
902.59        85.92513
902.99        85.60672
903.39        85.35996
903.79        85.10336
904.18        84.82405
904.58        84.67849
904.98        84.69986
905.38        84.89278
905.77        85.22426
906.17        85.61123
906.57        86.04777
906.96        86.59854
907.36         87.1685
907.76        87.74004
908.15        88.12154
908.55        87.89386
908.95        87.06682
909.34         85.7708
909.74        84.44563
910.14        83.60159
910.53        83.40862
910.93        83.77379
911.33        84.54685
911.72        85.43835
912.12        86.18764
912.52         86.7824
912.91        87.22641
913.31        87.53093
913.70        87.75308
914.10        87.85769
914.49        87.66483
914.89        86.84924
915.29        85.49118
915.68        83.81551
916.08         82.4994
916.47        82.06143
916.87         82.5049
917.26        83.65836
917.66        84.93673
918.05        85.41548
918.45        84.85473
918.84        83.57825
919.24        82.18725
919.64        81.54827
920.03        81.89938
920.42        82.96121
920.82        84.35114
921.21        85.54167
921.61        86.14379
922.00        86.33666
922.40         86.1317
922.79        85.59758
923.19        84.90003
923.58        83.84599
923.98         82.4642
924.37        81.61721
924.77        81.80733
925.16        79.21725
925.55        80.89028
925.95        81.65257
926.34        83.52786
926.74        85.93991
927.13          88.317
927.52         89.4019
927.92        89.00102
928.31        87.55515
928.70        85.50818
929.10         83.6508
929.49        82.25562
929.89        81.15756
930.28        80.67945
930.67        81.36002
931.07        83.06799
931.46        85.68544
931.85        88.22236
932.24        89.18371
932.64        88.27377
933.03        85.73329
933.42        82.29324
933.82         79.6693
934.21        78.48629
934.60        78.40594
934.99        78.74181
935.39        78.86298
935.78        78.66985
936.17        77.71295
936.56        75.84266
936.96        77.99004
937.35        77.18803
937.74        78.56239
938.13          79.652
938.53        80.55173
938.92        81.34106
939.31        82.16621
939.70        82.81287
940.09        82.57077
940.49        81.38139
940.88        79.64318
941.27        78.02812
941.66        77.29377
942.05        77.50165
942.44        78.38821
942.84        79.66672
943.23        80.87827
943.62        81.70999
944.01          82.251
944.40        82.39812
944.79        82.00656
945.18        81.05435
945.57        79.47503
945.97        77.54749
946.36        76.06676
946.75        75.52659
947.14        75.76685
947.53        76.38178
947.92        76.88903
948.31        77.21802
948.70         77.5295
949.09        77.88287
949.48        78.34895
949.87        78.88818
950.26        79.31962
950.65        79.64925
951.04        79.97261
951.43        80.28476
951.82        80.58739
952.21        80.60081
952.60         79.8933
952.99        78.46117
953.38        76.49191
953.77        74.57868
954.16         73.5598
954.55        73.59705
954.94        74.53439
955.33        75.71223
955.72        75.99815
956.11        75.12163
956.50         73.3513
956.89        71.57565
957.28        71.43402
957.66        73.40062
958.05        76.67863
958.44        80.10011
958.83        81.95435
959.22        81.82438
959.61        80.20202
960.00        77.83988
960.39        75.96679
960.78        75.01075
961.16        74.67153
961.55        74.56721
961.94        74.05354
962.33        73.00072
962.72        71.75684
963.11        70.71219
963.49        70.30938
963.88        70.59753
964.27        71.43549
964.66        72.48693
965.04         73.0765
965.43        72.87405
965.82         72.1534
966.21        71.35724
966.60         71.0732
966.98        71.42268
967.37        72.15986
967.76        73.04883
968.15        73.61219
968.53        73.65575
968.92         73.2993
969.31        72.70668
969.69         72.0474
970.08        71.39729
970.47        70.73715
970.86        70.03463
971.24        69.25771
971.63         68.4464
972.02        67.63683
972.40        67.06127
972.79        67.09736
973.17        67.89283
973.56        69.24962
973.95         70.7454
974.33        71.54399
974.72        71.28656
975.11        70.18982
975.49        68.82555
975.88         68.0259
976.26        67.90899
976.65        68.32046
977.04        68.71967
977.42         67.9069
977.81        65.67889
978.19        62.65242
978.58          60.307
978.96        60.04778
979.35        62.06412
979.74        66.10433
980.12        71.41034
980.51        75.08391
980.89        76.11163
981.28        75.11176
981.66         73.2644
982.05        72.14462
982.43        72.06681
982.82        72.44489
983.20        73.19485
983.59        74.27396
983.97        75.67358
984.35         77.5826
984.74        79.32884
985.12        79.62678
985.51        77.77311
985.89        73.94473
986.28        69.43743
986.66        66.29217
987.04        65.30757
987.43        65.99717
987.81        67.12274
988.20        67.06367
988.58        65.32898
988.96        61.66582
989.35        56.86113
989.73         55.1925
990.12        59.48509
990.50        67.59889
990.88        74.56429
991.27        76.78685
991.65        74.84314
992.03        69.84247
992.42        63.99775
992.80        61.23646
993.18        62.75839
993.56        66.48495
993.95        70.45595
994.33        73.01768
994.71        73.75176
995.10        73.60418
995.48        72.72466
995.86        71.05393
996.24        68.69279
996.63        65.32224
997.01        61.76695
997.39        60.78755
997.77         63.4379
998.15        69.02097
998.54        74.75714
998.92        76.98515
999.30        74.59914
999.68        68.55424
1000.06        60.35534
1000.45        53.91962
1000.83        51.03131
1001.21        50.55977
1001.59        51.75412
1001.97        53.81445
1002.35        56.39231
1002.73        60.25512
1003.12        64.18351
1003.50        64.14467
1003.88        58.84597
1004.26        50.55153
1004.64        42.97305
1005.02        39.10298
1005.40        39.06868
1005.78        42.44503
1006.16        50.54266
1006.54        61.40662
1006.92        68.91176
1007.30        72.08693
1007.69        72.32193
1008.07        71.30296
1008.45        69.02761
1008.83        63.36898
1009.21        48.06201
1009.59        5.511365
1009.97       -91.19118
1010.35       -195.4469
1010.73       -146.7624
1011.11       -66.11884
1011.49        -16.1315
1011.86        16.93975
1012.24        34.84359
1012.62        42.09713
1013.00        42.95112
1013.38        38.84763
1013.76        31.55784
1014.14        28.50991
1014.52         36.2501
1014.90        56.42928
1015.28        83.90215
1015.66        100.3863
1016.04         94.5955
1016.41        70.59476
1016.79        42.48147
1017.17        25.40845
1017.55        20.43202
1017.93        20.46083
1018.31        22.88824
1018.69        27.22679
1019.06         33.4389
1019.44        42.39432
1019.82        55.25517
1020.20        68.17859
1020.58        73.92227
1020.95        63.15222
1021.33      -0.6903346
1021.71        1081.663
1022.09        212.0916
1022.46        168.5896
1022.84        157.6928
1023.22        160.2955
1023.60        181.0779
1023.97        406.3814
1024.35        22.89681
1024.73        65.52985
