SpectraSmart Spectrum 2.9.0.0
--------- Device Information -----------
Spectrum Name :  反射率_0
Saving Time :  2024/04/26 00:06:42
Spectro-Module Model Name : SE2030-DUVN
Spectro-Module Serial Number : OS361AC55029948
Wavelength Start : 200
Wavelength End : 1025
Wavelength Unit : Wavelength(nm)
Spectrum Unit : Reflectance(%)
-----------Spectrum Setting ------------
Integration Time : 20ms
Average : 10
Boxcar : 0
Background removal :  enabled
linearity correction :  enabled
SC :  disabled
Intensity correction :  disabled
DWT denoise :  enabled
savitzky-golay :  disabled
FFT :  disabled
Running average :  disabled
Kalman :  disabled
High pass :  disabled
---------------BEGIN--------------------
Wavelength(nm)             Reflectance(%)
200.29               0
200.75        81.04504
201.21        74.34188
201.67         67.0964
202.13        63.61258
202.58        64.26833
203.04        67.95809
203.50        72.84597
203.96        75.63969
204.42        75.44699
204.88        73.64883
205.34        71.43744
205.80        69.76105
206.26        68.67016
206.72        67.61008
207.18        65.91444
207.64        63.36496
208.10        61.85659
208.55        61.90564
209.01        62.65433
209.47        63.88837
209.93        65.52214
210.39        67.93331
210.85         69.6927
211.31           67.73
211.77        61.67441
212.23        52.90007
212.69        45.05981
213.14        43.85638
213.60        50.00563
214.06        61.96079
214.52         75.6895
214.98        84.87285
215.44        87.60251
215.90        85.57256
216.36        81.05253
216.81        77.19195
217.27        75.27184
217.73        74.42484
218.19         73.1646
218.65        69.32777
219.11        61.88361
219.57         49.8953
220.02        34.97831
220.48        26.53201
220.94        29.78244
221.40        42.20455
221.86        54.23232
222.32        55.90235
222.77        48.37188
223.23        37.09888
223.69        27.43234
224.15         24.7827
224.61        28.60538
225.06        36.10999
225.52        43.83779
225.98        47.51339
226.44        46.29372
226.90        42.06545
227.36        36.90089
227.81        33.51176
228.27        32.86624
228.73         33.8442
229.19        35.68999
229.65        37.33441
230.10        38.38863
230.56        39.21267
231.02        39.96116
231.48        40.75017
231.93        41.60141
232.39        42.41105
232.85        43.11271
233.31         43.6904
233.77        44.11606
234.22        44.39153
234.68        44.53271
235.14        44.48521
235.60        44.29037
236.05        44.06529
236.51        43.85113
236.97        43.64554
237.43         43.5139
237.88        43.53285
238.34        44.02279
238.80        45.74826
239.26        48.86794
239.71        53.18482
240.17        57.59398
240.63        60.73169
241.08         62.2418
241.54        62.28196
242.00        61.67219
242.46        61.71056
242.91         63.2529
243.37         67.2055
243.83        79.73309
244.28        121.1383
244.74        168.7126
245.20        144.1844
245.66        120.2155
246.11        111.5923
246.57         110.232
247.03        114.1951
247.48        123.2867
247.94        95.70287
248.40        79.90041
248.85        77.67658
249.31        78.76131
249.77        81.61642
250.22        86.39902
250.68        94.24162
251.14        104.8148
251.59        110.5737
252.05        104.7169
252.51        91.14654
252.96        77.38508
253.42        70.24045
253.88        68.99966
254.33        71.16974
254.79        75.72384
255.25        80.55276
255.70        84.41242
256.16        87.90153
256.62        89.74848
257.07        88.60442
257.53        85.34224
257.99        80.33253
258.44        75.28065
258.90        73.13145
259.35        72.93799
259.81        73.65437
260.27        73.35522
260.72        70.17714
261.18        64.97731
261.63        58.65538
262.09        52.92974
262.55        49.10186
263.00        47.10865
263.46        46.35163
263.91        45.87907
264.37        44.96531
264.83        43.41162
265.28        41.40527
265.74        39.47186
266.19        38.14428
266.65        37.63038
267.11         37.5859
267.56        37.57184
268.02        37.07806
268.47        35.99302
268.93        34.51313
269.38        32.88517
269.84        31.74782
270.30        31.27214
270.75        31.28081
271.21        31.46144
271.66        31.35061
272.12        30.81491
272.57        29.99993
273.03        29.14159
273.48        28.50658
273.94        28.18926
274.39        28.05646
274.85        27.95549
275.31        27.65767
275.76        27.11346
276.22        26.44058
276.67        25.76628
277.13        25.36004
277.58        25.21064
278.04        25.24137
278.49        25.26468
278.95        25.08043
279.40        24.62449
279.86        24.03078
280.31        23.36899
280.77        22.85194
281.22        22.49315
281.68        22.25677
282.13        22.09611
282.59        21.97883
283.04        21.87776
283.50         21.8353
283.95        21.79744
284.41        21.69692
284.86        21.51692
285.32        21.27839
285.77        21.06966
286.22        21.08812
286.68        21.33115
287.13        21.70804
287.59        22.03621
288.04         22.0378
288.50        21.69563
288.95        21.09998
289.41        20.45333
289.86        19.95518
290.32        19.71789
290.77        19.66552
291.22        19.77364
291.68        19.96411
292.13        20.21373
292.59        20.55228
293.04        20.98265
293.50        21.50562
293.95        22.09673
294.40        22.70724
294.86        23.30631
295.31        23.86773
295.77        24.38775
296.22        24.88247
296.68        25.33131
297.13         25.6728
297.58        25.92797
298.04        26.13641
298.49        26.41009
298.95        26.95885
299.40        27.79909
299.85        28.85378
300.31        29.95436
300.76        30.84014
301.21        31.42237
301.67        31.80124
302.12        32.02868
302.58        32.24746
303.03        32.48553
303.48        32.71393
303.94        32.99627
304.39        33.39374
304.84        33.91156
305.30        34.52864
305.75        35.10475
306.20        35.43203
306.66        35.49636
307.11        35.34816
307.57        35.15117
308.02        35.07202
308.47         35.1855
308.93        35.43595
309.38        35.75247
309.83         36.0564
310.29        36.30422
310.74         36.5083
311.19        36.66722
311.65        36.77542
312.10        36.83063
312.55        36.83109
313.00        36.76297
313.46        36.62035
313.91        36.40533
314.36        36.14613
314.82        35.91489
315.27        35.79779
315.72        35.81899
316.18        35.94827
316.63         36.1189
317.08        36.19622
317.53        36.13843
317.99        35.96876
318.44        35.75956
318.89        35.62991
319.35        35.59894
319.80        35.64206
320.25        35.65914
320.70        35.49144
321.16        35.11642
321.61        34.59294
322.06        34.05966
322.51        33.72477
322.97        33.61876
323.42          33.687
323.87        33.79241
324.32        33.70517
324.78        33.36404
325.23        32.85443
325.68         32.2871
326.13        31.84704
326.59        31.58811
327.04        31.47624
327.49        31.45804
327.94        31.44985
328.39        31.41871
328.85        31.37985
329.30        31.37389
329.75        31.41584
330.20        31.50618
330.66        31.60543
331.11        31.69972
331.56        31.72788
332.01        31.67229
332.46        31.53469
332.92        31.34223
333.37        31.19184
333.82        31.09899
334.27        31.06181
334.72        31.01841
335.17        30.86065
335.63        30.56954
336.08        30.18906
336.53        29.83603
336.98        29.69976
337.43        29.81474
337.88        30.12593
338.34        30.45669
338.79        30.56882
339.24        30.37662
339.69        29.94753
340.14        29.46449
340.59        29.24805
341.05        29.37082
341.50        29.73048
341.95        30.13751
342.40        30.31643
342.85        30.20688
343.30        29.90501
343.75        29.52597
344.20        29.27137
344.66        29.20297
345.11        29.21492
345.56        29.26445
346.01        29.28666
346.46        29.24962
346.91          29.202
347.36        29.06785
347.81        28.71727
348.26        28.16571
348.72        27.48825
349.17        26.85997
349.62        26.64846
350.07        26.92299
350.52        27.55449
350.97        28.31024
351.42        28.83097
351.87        29.01088
352.32        28.94357
352.77        28.71723
353.22        28.48166
353.67        28.29485
354.13         28.1151
354.58        27.92668
355.03        27.75005
355.48         27.5866
355.93         27.4534
356.38        27.33765
356.83        27.20144
357.28        27.03433
357.73        26.84341
358.18        26.63777
358.63        26.43306
359.08         26.2408
359.53        26.06702
359.98         25.9083
360.43        25.75982
360.88        25.62021
361.33        25.48035
361.78        25.36956
362.23        25.33616
362.68        25.37164
363.13        25.44709
363.58        25.47675
364.03        25.32891
364.48         24.9868
364.93        24.50716
365.38        23.98145
365.83        23.55691
366.28        23.28377
366.73        23.12102
367.18        23.05271
367.63        23.04819
368.08        23.07512
368.53        23.13348
368.98        23.16911
369.43        23.09198
369.88        22.89324
370.33        22.60943
370.78        22.28764
371.23        22.01769
371.68        21.83487
372.13        21.70356
372.58        21.66627
373.03        21.78667
373.48        22.04631
373.93        22.41762
374.38        22.73787
374.83        22.75727
375.28        22.43965
375.72        21.85281
376.17          21.213
376.62        20.84022
377.07        20.82129
377.52        21.05474
377.97        21.39591
378.42        21.60616
378.87        21.60966
379.32        21.48594
379.77        21.29091
380.22        21.09933
380.67         20.9401
381.11          20.785
381.56        20.63238
382.01        20.49896
382.46        20.38761
382.91        20.30001
383.36        20.23679
383.81        20.18915
384.26        20.14956
384.71        20.11887
385.15        20.06326
385.60        19.94813
386.05        19.76178
386.50        19.50968
386.95         19.2473
387.40        19.07664
387.85        19.02534
388.29        19.05982
388.74         19.1162
389.19        19.07611
389.64        18.92138
390.09        18.67765
390.54        18.42951
390.98        18.31914
391.43        18.38468
391.88        18.56797
392.33        18.75327
392.78        18.77143
393.23        18.60397
393.67        18.30926
394.12        18.02415
394.57        17.87591
395.02        17.89138
395.47        18.01895
395.91        18.19898
396.36        18.30083
396.81        18.28633
397.26        18.18468
397.71        18.03701
398.15        17.88571
398.60         17.7753
399.05        17.69711
399.50        17.62398
399.95        17.46839
400.39        17.30165
400.84        17.08555
401.29        16.90602
401.74        16.88102
402.18        17.04243
402.63        17.32825
403.08        17.63912
403.53         17.8144
403.97        17.81231
404.42        17.67706
404.87        17.47435
405.32        17.32337
405.76        17.25957
406.21        17.24716
406.66        17.25734
407.11        17.25472
407.55        17.23012
408.00        17.19622
408.45        17.14079
408.90        17.03109
409.34        16.87327
409.79        16.68606
410.24        16.52629
410.68        16.47096
411.13        16.53454
411.58        16.69618
412.03        16.90195
412.47        17.05482
412.92         17.1075
413.37        17.08294
413.81        17.02403
414.26        17.01816
414.71        17.07537
415.15        17.16944
415.60        17.24013
416.05        17.21234
416.49        17.07221
416.94        16.86371
417.39        16.63702
417.83        16.47461
418.28        16.41123
418.73        16.41147
419.17        16.46468
419.62        16.54748
420.07        16.64374
420.51        16.75957
420.96        16.84459
421.41        16.81251
421.85        16.64935
422.30         16.4052
422.74        16.15242
423.19         16.0311
423.64        16.05098
424.08         16.1839
424.53         16.3502
424.98        16.43925
425.42        16.42323
425.87        16.32841
426.31        16.20141
426.76        16.16195
427.21        16.20883
427.65        16.19671
428.10        16.17855
428.54          16.341
428.99        16.68046
429.44        17.10722
429.88        17.44924
430.33        17.49494
430.77        17.21786
431.22        16.69121
431.66        16.13048
432.11        15.93939
432.56         16.1546
433.00        16.53929
433.45        16.90089
433.89        17.21445
434.34        17.32151
434.78        16.90661
435.23        16.28329
435.67        16.20707
436.12        16.63256
436.57         16.8611
437.01        16.79604
437.46        16.75502
437.90        16.75846
438.35        16.71843
438.79        16.64361
439.24        16.59569
439.68        16.59392
440.13        16.55093
440.57        16.50823
441.02        16.75493
441.46        17.15952
441.91        17.11278
442.35        16.67925
442.80        16.46471
443.24        16.44631
443.69        16.38871
444.13        16.26228
444.58        16.02635
445.02        15.76304
445.47        15.80195
445.91         16.0634
446.36        16.12566
446.80        15.95179
447.24        15.77707
447.69        15.65969
448.13        15.58393
448.58        15.57288
449.02         15.6222
449.47        15.69639
449.91        15.73809
450.36        15.73307
450.80        15.69131
451.25        15.64437
451.69        15.62885
452.13         15.6568
452.58        15.70591
453.02        15.75249
453.47        15.75846
453.91        15.71926
454.36        15.65262
454.80        15.57634
455.24        15.51787
455.69         15.4945
456.13        15.48803
456.58         15.5129
457.02        15.56692
457.46        15.65237
457.91        15.76157
458.35        15.86483
458.79        15.90892
459.24        15.89387
459.68        15.82034
460.13        15.74143
460.57        15.70066
461.01        15.72615
461.46        15.79824
461.90        15.88566
462.34        15.92962
462.79        15.91158
463.23        15.83903
463.68        15.76164
464.12        15.76593
464.56        15.86812
465.01        16.04926
465.45        16.19571
465.89        16.19829
466.34        16.05558
466.78        15.72257
467.22        15.35415
467.67        15.35155
468.11        15.67902
468.55        15.85951
468.99        15.83479
469.44        15.83127
469.88        15.89362
470.32        16.07456
470.77         16.3097
471.21        16.37626
471.65        16.24925
472.10        16.09686
472.54        15.96943
472.98        15.89708
473.42        15.90478
473.87        15.99238
474.31        16.11738
474.75        16.20485
475.20        16.23986
475.64        16.23404
476.08        16.22239
476.52         16.2584
476.97        16.35278
477.41        16.48797
477.85        16.61823
478.29        16.70428
478.74        16.73758
479.18        16.65037
479.62        16.49503
480.06        16.63108
480.50         16.7277
480.95        16.82144
481.39        16.77864
481.83        16.73922
482.27        16.70482
482.72        16.53694
483.16        16.30298
483.60        16.36507
484.04        16.74821
484.48        16.88197
484.93        16.94638
485.37        17.52423
485.81        18.02898
486.25         18.0046
486.69        24.26366
487.14        19.30148
487.58        12.60717
488.02        15.39995
488.46        17.74215
488.90        17.51312
489.34        17.86695
489.79         17.6169
490.23        18.37893
490.67        18.94376
491.11        19.04389
491.55        18.95552
491.99         18.6455
492.43         18.4248
492.88        18.38067
493.32        18.45396
493.76          18.511
494.20        18.71854
494.64        19.01485
495.08         19.3525
495.52        19.70067
495.96        20.03716
496.41        20.29439
496.85        20.45447
497.29        20.51783
497.73        20.28598
498.17        20.00748
498.61        20.18173
499.05        20.81981
499.49        20.96714
499.93        21.12777
500.37        21.32254
500.82        21.46826
501.26        21.74132
501.70        22.02385
502.14        22.14615
502.58        22.09846
503.02        22.07818
503.46        22.10183
503.90        22.05108
504.34        21.95847
504.78        21.93069
505.22         21.9825
505.66        22.09439
506.10        22.22478
506.54        22.29837
506.98        22.29935
507.42        22.25389
507.86          22.218
508.30        22.27886
508.74        22.44952
509.18        22.69123
509.62        22.94836
510.06        23.13068
510.50        23.21287
510.94        23.23192
511.38         23.2065
511.82        23.16526
512.26        23.12725
512.70        23.07881
513.14        23.06107
513.58        23.14344
514.02        23.32018
514.46        23.56124
514.90        23.78385
515.34         23.8215
515.78         23.6185
516.22        23.37813
516.66        23.19162
517.10        22.77129
517.54         22.1538
517.98        22.89289
518.42        22.68925
518.86         23.0264
519.30        23.19603
519.74        23.41583
520.18        23.63119
520.62        23.72381
521.06        23.70085
521.50        23.57143
521.93        23.38604
522.37        23.24277
522.81        23.17106
523.25        23.14704
523.69        23.15789
524.13        23.18075
524.57        23.20167
525.01        23.22807
525.45        23.24268
525.89         23.2147
526.32        23.13702
526.76        23.01835
527.20        22.87688
527.64        22.75262
528.08        22.66134
528.52        22.57166
528.96        22.47352
529.40        22.41212
529.83        22.39674
530.27        22.19077
530.71        22.22137
531.15        22.11461
531.59        22.00296
532.03        21.87862
532.46         21.7865
532.90        21.80017
533.34        21.91677
533.78          22.103
534.22         22.2847
534.66        22.35368
535.09         22.2819
535.53          22.114
535.97        21.89275
536.41        21.69228
536.85        21.54621
537.28        21.44267
537.72        21.38601
538.16        21.38294
538.60        21.42949
539.04        21.50544
539.47        21.60235
539.91        21.76009
540.35        21.94615
540.79        22.06854
541.22        22.11783
541.66        22.17044
542.10        22.22953
542.54        22.24207
542.97        22.24611
543.41        22.34017
543.85        22.53325
544.29        22.80927
544.72        23.09514
545.16        23.28397
545.60        23.35228
546.04        23.32578
546.47        23.30088
546.91        23.44188
547.35        23.76585
547.79        24.22164
548.22        24.67106
548.66        24.87857
549.10        24.81638
549.53        24.60263
549.97        24.38165
550.41        24.31249
550.84        24.44824
551.28        24.74833
551.72        25.14746
552.15        25.52214
552.59        25.81733
553.03        26.06446
553.46        26.25236
553.90        26.38772
554.34        26.48615
554.77        26.51472
555.21        26.50497
555.65        26.59338
556.08        26.80798
556.52        26.78614
556.96        27.12364
557.39        27.26667
557.83        27.39599
558.27        27.49855
558.70         27.5982
559.14        27.71678
559.57        27.84675
560.01        27.99167
560.45        28.11017
560.88        28.13849
561.32        28.09384
561.75        27.98747
562.19        27.89382
562.63        27.88589
563.06        27.97519
563.50        28.14129
563.93         28.3415
564.37        28.52172
564.80        28.65242
565.24        28.76074
565.68        28.84342
566.11        28.89884
566.55        28.95343
566.98         28.9979
567.42         29.0711
567.85        29.22558
568.29        29.48532
568.72        29.75565
569.16        30.04254
569.60        30.41677
570.03        30.72561
570.47        30.73655
570.90        30.59455
571.34        30.07292
571.77        30.64631
572.21        30.82703
572.64        31.04177
573.08        30.56182
573.51        29.56791
573.95        30.76126
574.38        32.61082
574.82        32.11941
575.25         31.7856
575.69        30.72064
576.12        30.21551
576.56         30.1703
576.99        30.87166
577.42         32.4674
577.86        32.14273
578.29        31.89674
578.73        33.51311
579.16         30.9814
579.60        28.20898
580.03        29.45249
580.47        31.39449
580.90        31.80328
581.33        31.00322
581.77        30.76226
582.20        33.67212
582.64        33.02264
583.07         28.2554
583.51        27.62238
583.94        27.12422
584.37        28.19121
584.81        29.33464
585.24        30.71842
585.68        31.45141
586.11        30.70844
586.54        28.72035
586.98        27.87783
587.41        27.90173
587.85        29.19666
588.28        30.14742
588.71        28.81859
589.15        27.71879
589.58        28.28137
590.01        28.48802
590.45        28.99023
590.88        29.12393
591.31        28.71625
591.75        28.45646
592.18        28.49405
592.61        29.22163
593.05        29.54343
593.48        31.06583
593.91        31.25823
594.35        28.67887
594.78         28.1597
595.21         28.2209
595.65        29.66436
596.08        30.90592
596.51        29.70456
596.94        29.05129
597.38        29.53042
597.81        31.01145
598.24        31.91384
598.68         31.4977
599.11        31.60585
599.54        32.74042
599.97        33.97991
600.41        32.00675
600.84        32.48121
601.27        33.47059
601.70        33.19991
602.14        33.57996
602.57        33.46857
603.00        34.19326
603.43        35.40789
603.87        36.61068
604.30        36.82882
604.73        36.29874
605.16         35.7383
605.60        36.98485
606.03        38.03211
606.46        38.95736
606.89        39.23989
607.32        38.47747
607.76         38.7329
608.19        40.37014
608.62        40.15527
609.05         39.7597
609.48        40.35485
609.92        40.65253
610.35         40.5617
610.78        42.47427
611.21        43.09808
611.64        41.53776
612.07        42.23613
612.50        42.79071
612.94        43.35836
613.37        43.26945
613.80        43.81553
614.23        44.36453
614.66        44.57001
615.09        44.94386
615.52        45.18122
615.96        45.37983
616.39         45.6788
616.82        45.31493
617.25        45.35532
617.68        46.08766
618.11        46.78222
618.54        47.33433
618.97        47.27513
619.40        46.88831
619.84        46.67411
620.27        47.59877
620.70        48.19893
621.13        48.59924
621.56        48.41016
621.99        47.80827
622.42        48.41275
622.85        49.96125
623.28         49.5066
623.71        49.25352
624.14        49.56665
624.57        48.99658
625.00        48.51394
625.43        48.95496
625.86        48.41184
626.29         48.1254
626.72        48.89134
627.15        48.17135
627.58        48.21461
628.01         48.1613
628.44        48.10162
628.87        48.05149
629.30        47.93753
629.73        47.97204
630.16        48.01357
630.59        47.37143
631.02        46.82102
631.45        46.23535
631.88        45.65026
632.31        45.08072
632.74        44.82217
633.17        44.33076
633.60        43.96932
634.03        43.56831
634.46        43.16199
634.89        42.75416
635.32        42.35819
635.75        41.98113
636.18        41.60654
636.61        41.22688
637.04        40.83228
637.47        40.41546
637.89        39.98169
638.32        39.52906
638.75        39.08321
639.18        38.66131
639.61        38.27335
640.04        37.91513
640.47        37.57097
640.90        37.24086
641.33        36.92735
641.76        36.64796
642.18        36.48504
642.61        36.44363
643.04        36.41233
643.47        36.32662
643.90        36.55498
644.33        36.32898
644.76        36.28613
645.18        36.22494
645.61        36.20186
646.04        36.22454
646.47         36.2724
646.90        36.40195
647.33        36.67277
647.75        37.10115
648.18        37.69955
648.61        38.30592
649.04        38.66714
649.47        38.74583
649.89         38.5144
650.32        38.29411
650.75        38.71316
651.18        39.75191
651.61        40.91351
652.03        41.88135
652.46        42.32017
652.89        42.46557
653.32         42.5496
653.74        42.90501
654.17        44.13206
654.60        45.24062
655.03        44.42034
655.46        45.40285
655.88        48.33168
656.31        52.30938
656.74        119.9226
657.16        78.30521
657.59        27.57618
658.02        20.94035
658.45        36.72058
658.87        47.83084
659.30        50.43787
659.73        50.41155
660.15        48.86122
660.58        51.37788
661.01        52.92556
661.44        51.31914
661.86        50.93179
662.29        51.23584
662.72        52.18825
663.14         53.5616
663.57        53.83931
664.00        53.18831
664.42        53.26432
664.85        54.13503
665.27        54.70874
665.70        54.82738
666.13        54.87761
666.55        54.85469
666.98        54.64799
667.41        54.39681
667.83        54.37113
668.26         54.6288
668.69        55.06934
669.11        55.51388
669.54        55.93589
669.96         55.7567
670.39         55.4964
670.82        55.17526
671.24        55.09006
671.67        55.33599
672.09        55.81569
672.52        56.31133
672.94        56.87125
673.37        56.51203
673.80         56.5547
674.22        56.74469
674.65        56.84033
675.07        56.82345
675.50        56.71947
675.92        56.60993
676.35        56.64983
676.77        56.86544
677.20        57.15533
677.62        57.45088
678.05        57.64277
678.47        57.69116
678.90        57.64207
679.32        57.57842
679.75        57.52084
680.17        57.72447
680.60        57.97766
681.02        58.24601
681.45        58.32305
681.87        58.19819
682.30        57.97528
682.72        57.77968
683.15        57.79035
683.57        58.06101
684.00        58.42854
684.42        58.95671
684.85        59.22616
685.27        59.23473
685.70        59.06989
686.12        58.83018
686.54        58.72678
686.97        58.80344
687.39        58.95055
687.82        59.10631
688.24        59.35659
688.66        59.59137
689.09        59.52333
689.51         59.2496
689.94        59.18923
690.36         59.3923
690.78        59.62783
691.21        59.83771
691.63        60.02528
692.06        60.16705
692.48        60.27262
692.90         60.3577
693.33        60.43177
693.75        60.50094
694.17        60.56564
694.60        60.63482
695.02        60.68791
695.44        60.68964
695.87        60.85589
696.29        61.15842
696.71        60.91878
697.14        60.36657
697.56        60.90535
697.98        62.23833
698.41        62.21779
698.83        61.45931
699.25         60.9424
699.68        60.96809
700.10        60.90307
700.52        60.77851
700.94        61.03542
701.37        61.40197
701.79        61.82302
702.21          62.147
702.64        62.44012
703.06         62.6207
703.48        62.55867
703.90        62.26399
704.33        61.77566
704.75        61.24847
705.17        61.01472
705.59        61.15692
706.01        61.48873
706.44        61.84666
706.86        62.49054
707.28        62.51064
707.70        62.61413
708.12        62.59731
708.55        62.53687
708.97        62.44304
709.39        62.29838
709.81        62.16671
710.23        62.15206
710.66        62.27536
711.08         62.5379
711.50        62.81595
711.92        62.91947
712.34         62.8087
712.76        62.52855
713.19        62.21899
713.61        62.13568
714.03        62.32487
714.45        62.71236
714.87        63.12624
715.29        63.29222
715.71        63.15052
716.13        62.79706
716.56        62.40825
716.98        62.24287
717.40        62.35711
717.82        62.75452
718.24        63.32006
718.66        63.34145
719.08        63.56353
719.50        63.40709
719.92        63.19112
720.34        63.03169
720.76        62.98351
721.19        62.89194
721.61        62.94424
722.03        63.02785
722.45        63.18609
722.87        63.41416
723.29        63.66449
723.71        63.84507
724.13        63.92768
724.55        63.92781
724.97        63.88369
725.39        63.86839
725.81        63.90137
726.23        63.95985
726.65        64.02005
727.07        64.04209
727.49        64.02197
727.91        63.98911
728.33          63.957
728.75        63.94455
729.17         63.9578
729.59        63.97718
730.01        64.03174
730.43        64.16132
730.85        64.36698
731.27        64.65898
731.69        64.93066
732.10        64.99834
732.52        64.84466
732.94        64.51843
733.36        64.18687
733.78        64.16012
734.20        64.52666
734.62        64.87247
735.04        65.96564
735.46        66.06717
735.88        65.49294
736.30        65.65102
736.72        66.76913
737.13        67.25018
737.55        66.90686
737.97          66.758
738.39        66.85287
738.81        66.02258
739.23        64.76122
739.65        65.57446
740.06        67.93621
740.48        68.28876
740.90        66.67388
741.32        65.90529
741.74        66.25138
742.16        66.40007
742.57        66.41125
742.99        66.99844
743.41        67.96227
743.83        68.57695
744.25        68.70969
744.67        68.54189
745.08        68.25459
745.50        68.14368
745.92        68.30708
746.34        68.63564
746.75        69.00596
747.17        69.21172
747.59        69.21928
748.01        69.10004
748.42        69.00191
748.84        69.14749
749.26        69.58707
749.68        70.19576
750.09        70.81929
750.51        71.27712
750.93        71.47778
751.35        71.28395
751.76        70.84861
752.18        70.72113
752.60        70.89258
753.01        70.89017
753.43        70.75375
753.85        70.88857
754.27        71.31149
754.68        72.04069
755.10        72.55904
755.52        73.07167
755.93        73.37666
756.35        73.43257
756.77        73.39468
757.18        73.35388
757.60        73.35957
758.02         73.8662
758.43        74.48117
758.85        73.63419
759.26        71.97288
759.68        71.40697
760.10        72.78013
760.51        73.71445
760.93        74.14855
761.34        72.24271
761.76        72.32455
762.18        71.48003
762.59        71.15105
763.01        71.34473
763.42        72.06538
763.84         72.7359
764.26        73.18642
764.67        73.53211
765.09        73.69405
765.50        73.68194
765.92        73.42022
766.33        72.41419
766.75        71.09851
767.16        70.53974
767.58        70.99288
768.00        72.50049
768.41        74.64799
768.83        76.04616
769.24         76.1106
769.66        75.17631
770.07        73.79931
770.49        72.20346
770.90        70.92875
771.32        71.96652
771.73        74.57413
772.15        74.40314
772.56        71.79763
772.97        71.13734
773.39        72.43034
773.80        72.84921
774.22         72.2296
774.63        72.20096
775.05        72.69042
775.46        72.94453
775.88        72.86213
776.29        72.63483
776.70        72.36269
777.12        72.26374
777.53         72.3913
777.95        72.60962
778.36        72.81335
778.77        72.78626
779.19         72.5149
779.60        72.19114
780.02        71.90957
780.43        71.66017
780.84         71.7169
781.26        72.07272
781.67        72.59541
782.09        73.99947
782.50        75.34806
782.91         73.6496
783.33         72.1442
783.74        71.33981
784.15        72.17527
784.57        72.88268
784.98        73.15977
785.39        73.07792
785.81        72.64141
786.22        72.42773
786.63        72.29367
787.04        72.41604
787.46        72.73405
787.87        73.45976
788.28        74.36386
788.70        74.79581
789.11        74.63647
789.52        74.28354
789.93        73.87251
790.35        73.17486
790.76        72.44587
791.17         72.5307
791.58        73.29204
792.00        73.60894
792.41        73.35561
792.82        73.28815
793.23         73.4687
793.65        73.25332
794.06        73.01108
794.47        74.01254
794.88        75.38002
795.29        76.44392
795.71        73.25464
796.12        71.47037
796.53        70.48104
796.94        70.07442
797.35        70.35572
797.76        71.48878
798.18        72.94633
798.59        73.81064
799.00        73.74528
799.41        72.87411
799.82        71.64635
800.23        70.91029
800.64        70.87389
801.06        71.19615
801.47        71.77158
801.88        72.33411
802.29        72.74571
802.70        73.10397
803.11         73.3646
803.52        73.41348
803.93        73.26649
804.34        72.95417
804.75        72.60602
805.17        72.44068
805.58         72.8141
805.99        73.01151
806.40        73.04102
806.81         73.8449
807.22        74.85606
807.63        73.73498
808.04        71.10545
808.45        69.97909
808.86        70.59957
809.27        71.41236
809.68        72.02895
810.09        72.44263
810.50        72.47095
810.91        72.14995
811.32        71.67278
811.73        71.34685
812.14        71.26326
812.55        71.29842
812.96        71.44681
813.37          71.691
813.78        71.98861
814.19        72.39046
814.60        72.69499
815.01        72.57644
815.42        72.00293
815.83        71.04018
816.24        70.06213
816.65        69.73101
817.05        70.24676
817.46        71.38772
817.87        72.68395
818.28        73.27891
818.69        72.93781
819.10        71.87717
819.51        70.62619
819.92        70.08318
820.33        70.48087
820.74         71.5388
821.14         72.7563
821.55        73.23161
821.96        72.77475
822.37        71.69987
822.78        70.46475
823.19        69.73628
823.60        69.69792
824.00        70.18915
824.41        70.88861
824.82        71.35654
825.23         71.4064
825.64        71.19674
826.04        70.90057
826.45         70.7603
826.86        70.83571
827.27        71.00801
827.68        71.18549
828.08        71.26266
828.49        71.14535
828.90         70.9375
829.31        70.65765
829.72        70.33149
830.12        70.02653
830.53         69.7196
830.94         69.5357
831.35        69.62918
831.75        70.05045
832.16        70.70215
832.57        71.44125
832.97        71.94029
833.38        72.03417
833.79        71.80656
834.20        71.45149
834.60        71.27229
835.01        71.36956
835.42        71.64431
835.82        71.93836
836.23        71.91083
836.64        71.52258
837.04        70.90765
837.45        70.27563
837.86        69.95667
838.26        70.03711
838.67        70.37826
839.08        70.83392
839.48        71.13599
839.89        71.16046
840.29        71.00842
840.70        70.73072
841.11        70.38469
841.51        70.02409
841.92        69.61816
842.33        69.26488
842.73        69.14104
843.14        69.24519
843.54        69.56357
843.95        69.94063
844.35        70.16763
844.76        70.16283
845.17        69.99344
845.57        69.73481
845.98        69.51698
846.38        69.38509
846.79        69.27546
847.19        69.20826
847.60        69.14721
848.00        69.11745
848.41        69.11193
848.81        69.13273
849.22        69.09534
849.62        69.03416
850.03        68.97528
850.43        68.97936
850.84        69.09191
851.24        69.35612
851.65        69.58189
852.05        69.89548
852.46        70.34019
852.86        70.89648
853.27        71.57419
853.67        71.89953
854.07        71.26151
854.48        69.69965
854.88          67.444
855.29        65.28961
855.69        64.38714
856.10        64.95718
856.50        66.84712
856.90        69.36333
857.31        70.87955
857.71        70.87289
858.12        69.75254
858.52        68.24433
858.92        67.29707
859.33        67.13534
859.73        67.48293
860.13        68.20868
860.54        69.03479
860.94        69.85073
861.34        70.71568
861.75        71.49006
862.15        72.03513
862.55        72.28651
862.96        72.24075
863.36         72.0263
863.76        71.87554
864.17        71.86806
864.57        71.99326
864.97        72.23222
865.38        72.53458
865.78        72.91217
866.18        73.30984
866.58        73.66702
866.99        73.86526
867.39        73.91695
867.79         73.8638
868.19        73.62503
868.60        73.06902
869.00        72.22622
869.40        71.17833
869.80        70.39592
870.21        70.56947
870.61        71.89344
871.01        74.15259
871.41        76.64668
871.81        78.16821
872.22        78.39445
872.62        77.62783
873.02        76.50854
873.42        76.31841
873.82        77.08594
874.22        77.93726
874.63        78.64052
875.03        78.79945
875.43        78.19022
875.83        78.27728
876.23         76.4755
876.63        75.40472
877.03        74.71872
877.44         74.5026
877.84        107.4928
878.24        81.17564
878.64        82.63542
879.04        84.81547
879.44         79.8644
879.84        77.30207
880.24        82.87854
880.64        84.81674
881.04        84.32976
881.44        83.75627
881.84        83.16134
882.24        82.42243
882.65        81.99598
883.05        82.04993
883.45        82.62421
883.85        83.97382
884.25         85.6643
884.65         86.6001
885.05        86.47213
885.45        85.62756
885.85        84.56331
886.25        83.97601
886.65        84.02803
887.05        84.48697
887.45        85.14504
887.85        85.63421
888.25        85.80747
888.65        85.82472
889.04        85.71722
889.44         85.5589
889.84         85.3801
890.24        85.11485
890.64        84.89692
891.04        84.95976
891.44        85.31594
891.84        85.91718
892.24        86.49261
892.64        86.53607
893.04        85.99371
893.44        85.12386
893.83        84.27215
894.23        83.93185
894.63        84.18993
895.03        84.81485
895.43        85.76149
895.83        86.92412
896.23        88.13007
896.63        89.39154
897.02         90.2095
897.42        89.79304
897.82        88.12561
898.22        85.57171
898.62        83.01488
899.01        81.74674
899.41        82.05168
899.81        83.48267
900.21        85.48724
900.61        87.14344
901.00        88.08846
901.40         88.5599
901.80        88.64085
902.20         88.4716
902.59        88.14517
902.99        87.57665
903.39        86.86122
903.79        86.22135
904.18        85.75983
904.58         85.5389
904.98        85.56247
905.38        85.78498
905.77        86.14275
906.17        86.59689
906.57        87.07202
906.96        87.51154
907.36        87.80392
907.76         87.9418
908.15        87.85671
908.55        87.34677
908.95        86.47372
909.34        85.32646
909.74        84.17043
910.14        83.22567
910.53        82.60546
910.93        82.30275
911.33        82.41731
911.72        83.10731
912.12        84.20071
912.52        85.49265
912.91        86.68201
913.31        87.42348
913.70        87.71115
914.10        87.58868
914.49        87.00413
914.89        85.96313
915.29        84.69072
915.68        83.29299
916.08         82.2606
916.47         81.9007
916.87        82.20158
917.26        83.08314
917.66         84.0908
918.05        84.51176
918.45        84.15653
918.84         83.2571
919.24        82.28941
919.64        81.94087
920.03        82.39195
920.42        83.40791
920.82        84.64202
921.21        85.64419
921.61        86.07241
922.00         86.0956
922.40        85.73363
922.79        85.05884
923.19        84.24217
923.58         83.0998
923.98        81.66666
924.37        80.84966
924.77        81.14902
925.16        78.58852
925.55        80.42706
925.95        81.32362
926.34        83.35047
926.74          85.936
927.13        88.42059
927.52        89.42027
927.92        88.73503
928.31        86.83199
928.70         84.3453
929.10        82.37801
929.49        81.25225
929.89        80.70854
930.28        80.79421
930.67        81.58208
931.07        82.83976
931.46         84.6186
931.85        86.22188
932.24        86.59232
932.64        85.56992
933.03        83.28563
933.42        80.35245
933.82         78.2252
934.21         77.3765
934.60         77.4956
934.99        77.96621
935.39        78.28571
935.78        78.39262
936.17        77.82729
936.56        76.29403
936.96        78.22969
937.35        76.72182
937.74         77.1622
938.13        77.52544
938.53        78.22238
938.92        79.31355
939.31        80.89225
939.70        82.53262
940.09        82.90971
940.49        81.68278
940.88        79.43192
941.27        77.22687
941.66        76.32869
942.05        76.86323
942.44        78.40284
942.84        80.38067
943.23        81.84106
943.62        82.32937
944.01        82.11606
944.40        81.40216
944.79         80.4847
945.18        79.47735
945.57        78.22316
945.97         76.8401
946.36         75.7099
946.75        75.14778
947.14        75.14297
947.53        75.47772
947.92        75.85596
948.31         76.2168
948.70        76.64198
949.09        77.08801
949.48        77.43438
949.87        77.59168
950.26        77.48841
950.65        77.27419
951.04        77.22408
951.43        77.39471
951.82        77.75367
952.21        78.00106
952.60        77.65929
952.99         76.6614
953.38        75.15398
953.77        73.67717
954.16        73.00281
954.55         73.2685
954.94        74.33206
955.33        75.49483
955.72         75.5686
956.11        74.30404
956.50        72.01233
956.89        69.74707
957.28        69.44403
957.66        71.66079
958.05        75.50262
958.44        79.63932
958.83        82.11428
959.22        82.42107
959.61        81.10025
960.00        78.88664
960.39        76.98945
960.78        75.85728
961.16        75.19662
961.55        74.71654
961.94        73.95372
962.33        72.84318
962.72         71.6992
963.11         70.8532
963.49        70.65779
963.88        71.12721
964.27        72.13179
964.66        73.30871
965.04        73.92315
965.43        73.62482
965.82        72.71575
966.21        71.65822
966.60        71.05286
966.98        71.03938
967.37        71.38373
967.76        71.94879
968.15        72.44354
968.53        72.70744
968.92        72.76995
969.31        72.66222
969.69        72.37495
970.08        71.94611
970.47        71.42059
970.86        70.76477
971.24        69.95246
971.63        69.04181
972.02        68.03851
972.40        67.30899
972.79        67.48177
973.17        68.75806
973.56        70.89294
973.95        73.17778
974.33        74.23414
974.72        73.59954
975.11        71.72246
975.49        69.53368
975.88        68.29726
976.26         68.2142
976.65        69.02054
977.04        70.08099
977.42        69.90249
977.81        68.05724
978.19        65.19135
978.58         62.8384
978.96        62.49296
979.35         64.3554
979.74        68.10371
980.12        72.90189
980.51          75.797
980.89        75.89346
981.28        73.97849
981.66        71.40008
982.05        69.85717
982.43        69.65552
982.82        70.14941
983.20        71.18394
983.59         72.6089
983.97        74.39501
984.35         76.7821
984.74        79.07832
985.12        79.91161
985.51        78.48824
985.89        74.89003
986.28        70.48167
986.66         67.4923
987.04        66.73707
987.43        67.67577
987.81        68.89256
988.20        68.52036
988.58         65.9505
988.96        60.74544
989.35        53.68977
989.73        50.09614
990.12        53.98615
990.50        63.12503
990.88        71.39872
991.27        74.00275
991.65        71.50549
992.03        65.38725
992.42        58.43163
992.80         55.6306
993.18        58.31977
993.56        63.72316
993.95        69.34029
994.33        73.01342
994.71        74.25056
995.10        74.22431
995.48        73.10201
995.86        70.80332
996.24        67.44841
996.63        62.64452
997.01        57.44466
997.39         55.3265
997.77        57.80631
998.15         64.2548
998.54         71.4493
998.92        74.95912
999.30        73.48331
999.68        68.07231
1000.06        60.57959
1000.45        55.52861
1000.83        54.59419
1001.21        56.14097
1001.59        58.81557
1001.97        61.25535
1002.35        63.07833
1002.73        65.12738
1003.12        66.38021
1003.50        64.07828
1003.88        57.90468
1004.26         49.8762
1004.64        43.08873
1005.02        39.78414
1005.40        39.95988
1005.78        43.53957
1006.16        51.67934
1006.54        61.97034
1006.92        68.48175
1007.30        70.53426
1007.69        70.12228
1008.07        69.36774
1008.45        68.39864
1008.83        66.01249
1009.21        58.07818
1009.59         28.8226
1009.97       -55.37033
1010.35       -173.3079
1010.73        -151.971
1011.11       -74.77604
1011.49       -19.28284
1011.86        19.28854
1012.24        41.07851
1012.62        50.62214
1013.00        52.80675
1013.38        49.87706
1013.76        43.71526
1014.14        41.13238
1014.52        47.99771
1014.90        65.47652
1015.28        87.88596
1015.66        97.35664
1016.04        83.92033
1016.41        53.29605
1016.79        23.88118
1017.17         12.6534
1017.55        16.07171
1017.93        24.02685
1018.31         31.7458
1018.69        37.26296
1019.06        41.04033
1019.44        43.82005
1019.82        46.45397
1020.20        49.24595
1020.58        51.65357
1020.95         52.9096
1021.33        35.36641
1021.71        578.5543
1022.09        160.3958
1022.46        145.3929
1022.84        144.8357
1023.22        151.4284
1023.60        172.8439
1023.97         391.098
1024.35        20.33778
1024.73        60.66928
