SpectraSmart Spectrum 2.9.0.0
--------- Device Information -----------
Spectrum Name :  反射率_0
Saving Time :  2024/04/25 22:50:19
Spectro-Module Model Name : SE2030-DUVN
Spectro-Module Serial Number : OS361AC55029948
Wavelength Start : 200
Wavelength End : 1025
Wavelength Unit : Wavelength(nm)
Spectrum Unit : Reflectance(%)
-----------Spectrum Setting ------------
Integration Time : 20ms
Average : 10
Boxcar : 0
Background removal :  enabled
linearity correction :  enabled
SC :  disabled
Intensity correction :  disabled
DWT denoise :  enabled
savitzky-golay :  disabled
FFT :  disabled
Running average :  disabled
Kalman :  disabled
High pass :  disabled
---------------BEGIN--------------------
Wavelength(nm)             Reflectance(%)
200.29               0
200.75        79.59692
201.21        76.32925
201.67         72.0515
202.13         68.7936
202.58         66.8923
203.04        66.09193
203.50        65.84103
203.96        65.42911
204.42        64.71631
204.88        63.94324
205.34        63.48022
205.80        63.71553
206.26        64.89738
206.72        67.80054
207.18        73.13023
207.64        76.10949
208.10        69.86718
208.55        61.26089
209.01        56.51974
209.47        55.67173
209.93        57.17196
210.39        60.66232
210.85        64.36666
211.31        64.39283
211.77        59.76315
212.23        51.90627
212.69        44.64359
213.14        43.96581
213.60        50.60022
214.06        62.83102
214.52        76.03846
214.98        83.12401
215.44        82.45329
215.90         76.4232
216.36        68.57109
216.81        63.83947
217.27        63.49572
217.73         65.6786
218.19        67.93076
218.65        67.06953
219.11        61.94788
219.57        52.14898
220.02         38.9153
220.48        30.35606
220.94        31.27913
221.40        39.81191
221.86        48.47928
222.32        49.32059
222.77        43.12672
223.23        34.24112
223.69        26.94065
224.15        25.57405
224.61        29.57342
225.06         36.6093
225.52        43.57337
225.98         46.6372
226.44        45.12075
226.90        40.81142
227.36        35.61694
227.81        32.04856
228.27        31.04449
228.73          31.522
229.19        33.07148
229.65         35.0907
230.10        37.08246
230.56        39.09781
231.02        40.70684
231.48        41.33963
231.93        41.06704
232.39        40.12438
232.85        38.97504
233.31        38.42115
233.77        38.63459
234.22        39.33855
234.68        40.29048
235.14        40.89512
235.60        40.92348
236.05        40.65627
236.51         40.1106
236.97         39.1989
237.43        37.96705
237.88        36.37403
238.34        34.91578
238.80        35.06303
239.26        37.48176
239.71        41.92491
240.17        47.23069
240.63        51.63031
241.08        54.44206
241.54        55.82947
242.00        56.22779
242.46        56.43414
242.91        56.95874
243.37        57.59906
243.83        60.38129
244.28        77.16677
244.74        110.7732
245.20        111.3503
245.66        102.8742
246.11        100.5895
246.57        103.2969
247.03        113.3171
247.48        140.3043
247.94        119.0689
248.40        88.21408
248.85        79.39433
249.31        77.23009
249.77        77.56952
250.22        79.41974
250.68        83.01461
251.14        87.66412
251.59        88.36505
252.05        81.94173
252.51        71.67682
252.96        62.48879
253.42        58.55446
253.88        58.99649
254.33        62.01049
254.79         66.7318
255.25        71.32617
255.70        74.74127
256.16        77.47533
256.62        78.49405
257.07        76.70998
257.53         72.9568
257.99        67.64468
258.44        62.45143
258.90        60.15331
259.35        59.93746
259.81        60.78515
260.27         60.8142
260.72        58.21103
261.18         53.7107
261.63        48.15066
262.09        43.23023
262.55        40.29435
263.00        39.20994
263.46         39.2924
263.91        39.47317
264.37        38.85763
264.83        37.31443
265.28        35.12032
265.74        32.98035
266.19         31.7236
266.65         31.5464
267.11        31.96556
267.56        32.37051
268.02        32.03937
268.47        30.85974
268.93        29.10493
269.38        27.11353
269.84        25.68881
270.30        25.07535
270.75        25.06617
271.21        25.30888
271.66        25.27908
272.12        24.82018
272.57        24.09896
273.03        23.38258
273.48        22.98601
273.94        22.98938
274.39        23.22642
274.85        23.45214
275.31        23.32176
275.76        22.77138
276.22        21.95535
276.67        21.10344
277.13        20.62309
277.58        20.53766
278.04        20.72425
278.49        20.91734
278.95        20.79165
279.40        20.27306
279.86        19.53361
280.31        18.73369
280.77        18.20748
281.22        17.98685
281.68        17.97632
282.13        18.03833
282.59        18.00302
283.04        17.82986
283.50        17.61203
283.95        17.38166
284.41        17.19175
284.86        17.05961
285.32        16.96333
285.77        16.94163
286.22        17.11203
286.68        17.44866
287.13        17.88782
287.59        18.27153
288.04        18.36469
288.50        18.15069
288.95        17.69837
289.41        17.17839
289.86        16.75543
290.32        16.53185
290.77        16.44911
291.22        16.50044
291.68         16.6347
292.13        16.83743
292.59        17.12675
293.04        17.50089
293.50        17.95123
293.95        18.45209
294.40        18.96276
294.86         19.4464
295.31        19.86683
295.77         20.2199
296.22        20.52362
296.68        20.78017
297.13        20.96618
297.58        21.11106
298.04        21.24485
298.49        21.44628
298.95        21.86833
299.40        22.51745
299.85        23.33233
300.31        24.18583
300.76        24.88781
301.21         25.3642
301.67         25.6879
302.12        25.87452
302.58        25.99915
303.03        26.08447
303.48        26.12822
303.94        26.21959
304.39        26.46416
304.84        26.87738
305.30        27.41717
305.75        27.94973
306.20         28.2728
306.66        28.36045
307.11        28.26257
307.57        28.09773
308.02        27.97711
308.47        27.96433
308.93         28.0195
309.38        28.12393
309.83        28.27873
310.29        28.45841
310.74        28.65592
311.19        28.82275
311.65        28.88055
312.10        28.81177
312.55        28.63619
313.00         28.3831
313.46        28.11507
313.91        27.85411
314.36        27.60889
314.82        27.40701
315.27        27.27383
315.72        27.21605
316.18        27.22154
316.63        27.26703
317.08        27.29001
317.53        27.26451
317.99        27.19034
318.44        27.08114
318.89        26.96496
319.35        26.84094
319.80        26.70395
320.25        26.52125
320.70        26.24822
321.16        25.89017
321.61        25.47327
322.06        25.05695
322.51          24.724
322.97        24.48212
323.42        24.31529
323.87        24.17011
324.32        23.95885
324.78        23.66042
325.23        23.30791
325.68        22.93992
326.13        22.62178
326.59        22.37015
327.04        22.18167
327.49        22.03826
327.94        21.91229
328.39        21.79459
328.85        21.68595
329.30        21.61713
329.75        21.60701
330.20        21.65491
330.66        21.72898
331.11        21.81122
331.56        21.83217
332.01        21.76958
332.46        21.62669
332.92        21.42957
333.37        21.25179
333.82        21.11512
334.27        21.02134
334.72        20.92917
335.17        20.76585
335.63        20.52033
336.08        20.21983
336.53        19.95917
336.98        19.88873
337.43        20.02972
337.88        20.33597
338.34        20.64015
338.79        20.71289
339.24        20.47761
339.69        19.99955
340.14        19.46647
340.59        19.20885
341.05        19.29984
341.50        19.63655
341.95        20.03032
342.40        20.20272
342.85        20.08917
343.30        19.78854
343.75        19.40064
344.20        19.10095
344.66        18.95035
345.11         18.8573
345.56          18.815
346.01          18.812
346.46         18.8245
346.91        18.88198
347.36        18.87542
347.81        18.62244
348.26        18.12337
348.72        17.46939
349.17        16.84677
349.62        16.64577
350.07        16.94306
350.52        17.59758
350.97        18.37907
351.42        18.93424
351.87        19.15697
352.32        19.14381
352.77        18.96633
353.22        18.74647
353.67        18.53837
354.13        18.30683
354.58        18.07136
355.03        17.90267
355.48        17.81672
355.93        17.82654
356.38        17.87284
356.83        17.84372
357.28        17.71292
357.73        17.49763
358.18        17.28145
358.63         17.2004
359.08        17.27422
359.53        17.45909
359.98         17.6264
360.43        17.57858
360.88        17.28436
361.33        16.81155
361.78        16.32027
362.23        16.06909
362.68        16.11252
363.13        16.35744
363.58         16.6526
364.03         16.7617
364.48         16.6242
364.93        16.32459
365.38        15.94658
365.83        15.62201
366.28         15.4027
366.73        15.24446
367.18        15.15061
367.63        15.13225
368.08        15.17328
368.53        15.26907
368.98        15.36766
369.43        15.37883
369.88        15.28703
370.33        15.12384
370.78        14.91995
371.23        14.73557
371.68        14.59734
372.13        14.48041
372.58        14.42456
373.03         14.4936
373.48        14.67962
373.93        14.95802
374.38        15.20985
374.83        15.25023
375.28        15.05059
375.72        14.66115
376.17        14.23445
376.62        13.98129
377.07        13.96307
377.52        14.11048
377.97        14.34381
378.42        14.53103
378.87        14.62021
379.32        14.65022
379.77         14.6273
380.22        14.55717
380.67        14.45125
381.11        14.30518
381.56        14.13859
382.01        14.00008
382.46         13.9037
382.91        13.83959
383.36         13.8014
383.81        13.77086
384.26        13.74015
384.71         13.7205
385.15        13.68589
385.60        13.60404
386.05        13.46816
386.50         13.2794
386.95         13.0951
387.40        13.01736
387.85        13.06382
388.29        13.19844
388.74        13.33402
389.19        13.34484
389.64        13.21665
390.09        12.98487
390.54        12.74395
390.98        12.65244
391.43        12.75237
391.88        12.97698
392.33        13.21441
392.78        13.30177
393.23          13.213
393.67        13.00231
394.12        12.77718
394.57        12.63843
395.02        12.61185
395.47        12.66119
395.91        12.74582
396.36        12.77862
396.81        12.73746
397.26        12.64098
397.71        12.53302
398.15        12.46194
398.60        12.45509
399.05        12.49604
399.50        12.52727
399.95         12.4337
400.39           12.26
400.84        11.99605
401.29        11.74741
401.74          11.682
402.18        11.84712
402.63        12.16883
403.08        12.52823
403.53        12.73398
403.97        12.73484
404.42         12.5885
404.87        12.36753
405.32        12.20134
405.76        12.13383
406.21        12.12516
406.66        12.14928
407.11        12.17454
407.55        12.19156
408.00        12.21409
408.45         12.2308
408.90        12.20772
409.34        12.14011
409.79        12.03556
410.24        11.93561
410.68        11.90071
411.13        11.94401
411.58        12.05455
412.03        12.18511
412.47        12.25264
412.92        12.22545
413.37        12.12454
413.81        12.01447
414.26        12.00925
414.71         12.1202
415.15        12.31475
415.60         12.4918
416.05        12.50919
416.49        12.33789
416.94        12.03948
417.39        11.71039
417.83        11.51493
418.28          11.507
418.73        11.62195
419.17         11.8018
419.62        11.95075
420.07        12.03725
420.51        12.09003
420.96        12.09076
421.41        12.00436
421.85        11.83672
422.30         11.6206
422.74        11.40948
423.19        11.30905
423.64        11.32496
424.08        11.43491
424.53        11.58498
424.98        11.70018
425.42        11.75419
425.87        11.76044
426.31        11.72079
426.76        11.67912
427.21        11.62615
427.65        11.46872
428.10         11.2941
428.54        11.31215
428.99        11.54204
429.44        11.90401
429.88        12.23367
430.33        12.30795
430.77        12.09449
431.22        11.66824
431.66        11.22112
432.11        11.08691
432.56        11.30012
433.00        11.70214
433.45        12.11402
433.89        12.37125
434.34        12.36186
434.78        12.03567
435.23        11.61585
435.67        11.51633
436.12        11.70908
436.57        11.77337
437.01        11.66202
437.46        11.58989
437.90        11.57504
438.35        11.55965
438.79        11.53674
439.24        11.52814
439.68        11.53822
440.13        11.50836
440.57        11.46226
441.02        11.59251
441.46        11.80916
441.91         11.6991
442.35        11.32683
442.80        11.13252
443.24        11.09889
443.69        11.06148
444.13        10.98907
444.58         10.8392
445.02        10.65934
445.47        10.67778
445.91        10.83786
446.36        10.85203
446.80        10.69683
447.24        10.53116
447.69        10.40429
448.13        10.31957
448.58        10.29772
449.02        10.33357
449.47        10.39444
449.91        10.42532
450.36        10.41414
450.80        10.37198
451.25        10.33187
451.69        10.33581
452.13        10.39289
452.58        10.47332
453.02        10.55124
453.47        10.58103
453.91        10.55683
454.36        10.50116
454.80        10.42115
455.24        10.33027
455.69        10.24714
456.13        10.16243
456.58        10.12061
457.02        10.17011
457.46         10.3166
457.91        10.53769
458.35        10.76332
458.79        10.87176
459.24        10.84719
459.68        10.71266
460.13        10.56109
460.57        10.50516
461.01        10.58347
461.46        10.75104
461.90        10.93981
462.34        11.02976
462.79        10.99237
463.23        10.85978
463.68        10.71092
464.12        10.67529
464.56        10.78647
465.01        11.00152
465.45        11.21166
465.89        11.29921
466.34        11.25198
466.78        11.05122
467.22        10.81304
467.67        10.83139
468.11        11.08456
468.55        11.22955
468.99           11.22
469.44        11.21085
469.88          11.236
470.32        11.33999
470.77        11.48343
471.21        11.51998
471.65        11.43522
472.10        11.34708
472.54        11.29148
472.98         11.2946
473.42        11.37092
473.87        11.51468
474.31         11.6831
474.75        11.80103
475.20        11.85265
475.64        11.84958
476.08        11.83035
476.52        11.85597
476.97         11.9402
477.41        12.06856
477.85        12.19438
478.29        12.26632
478.74        12.27567
479.18         12.1805
479.62        12.04295
480.06        12.16298
480.50        12.30256
480.95        12.46955
481.39        12.53532
481.83        12.56385
482.27        12.54918
482.72        12.40132
483.16        12.19416
483.60        12.23127
484.04         12.5301
484.48        12.68029
484.93        12.85971
485.37        13.29438
485.81        13.78456
486.25        13.98118
486.69        18.01598
487.14        14.06709
487.58        9.667543
488.02        11.90968
488.46        13.55682
488.90        13.53558
489.34         13.5241
489.79        13.53948
490.23        14.47081
490.67        15.04591
491.11        15.01546
491.55        14.88583
491.99        14.66642
492.43         14.4835
492.88        14.41706
493.32        14.46202
493.76        14.52365
494.20        14.73712
494.64        15.05397
495.08        15.43024
495.52        15.81995
495.96        16.17636
496.41        16.43639
496.85        16.58828
497.29         16.6491
497.73        16.48946
498.17        16.31677
498.61        16.52937
499.05         17.1213
499.49        17.27432
499.93        17.39453
500.37        17.51486
500.82        17.59039
501.26        17.80118
501.70        18.06021
502.14         18.2182
502.58        18.25488
503.02        18.31367
503.46        18.39987
503.90        18.41851
504.34        18.39558
504.78        18.41947
505.22        18.50262
505.66        18.62658
506.10        18.75547
506.54        18.82666
506.98         18.8287
507.42        18.78602
507.86        18.75226
508.30         18.8093
508.74        18.97103
509.18        19.20465
509.62        19.45873
510.06         19.6481
510.50        19.74896
510.94        19.79445
511.38        19.80458
511.82        19.81135
512.26        19.83054
512.70        19.84412
513.14        19.87983
513.58        19.98544
514.02        20.15127
514.46        20.35629
514.90        20.53104
515.34         20.5287
515.78        20.30047
516.22        20.05145
516.66        19.87571
517.10        19.47035
517.54        18.86756
517.98        19.68353
518.42         19.5092
518.86        19.86928
519.30        20.02251
519.74        20.20279
520.18        20.36259
520.62        20.39475
521.06          20.316
521.50        20.13565
521.93        19.91495
522.37        19.76827
522.81        19.72685
523.25        19.76157
523.69         19.8454
524.13        19.93318
524.57        20.00243
525.01        20.06176
525.45        20.09695
525.89        20.08448
526.32        20.01904
526.76        19.90642
527.20        19.76047
527.64        19.61473
528.08        19.48586
528.52        19.35162
528.96        19.21512
529.40        19.13049
529.83        19.10997
530.27        18.94861
530.71        18.99883
531.15        18.92191
531.59         18.8246
532.03        18.70085
532.46        18.60147
532.90        18.61217
533.34         18.7331
533.78         18.9299
534.22        19.11363
534.66         19.1537
535.09        19.02328
535.53        18.77586
535.97         18.4874
536.41        18.28256
536.85        18.20215
537.28        18.21525
537.72        18.28679
538.16        18.35806
538.60        18.40841
539.04        18.44166
539.47        18.47638
539.91        18.58553
540.35        18.75298
540.79        18.88575
541.22        18.96821
541.66        19.05493
542.10        19.14309
542.54        19.19127
542.97        19.22753
543.41        19.32841
543.85        19.50103
544.29        19.73439
544.72         19.9723
545.16         20.1343
545.60        20.20455
546.04        20.20322
546.47        20.21332
546.91        20.37581
547.35         20.7038
547.79         21.1538
548.22        21.60191
548.66        21.83607
549.10        21.82958
549.53        21.68316
549.97        21.52896
550.41        21.51437
550.84        21.68752
551.28        22.01408
551.72        22.42319
552.15         22.7841
552.59        23.04495
553.03        23.23988
553.46        23.38684
553.90        23.53201
554.34        23.69545
554.77        23.83521
555.21        23.94389
555.65        24.08436
556.08        24.26934
556.52        24.19225
556.96        24.42983
557.39        24.54085
557.83        24.70187
558.27        24.88067
558.70        25.07271
559.14        25.25557
559.57        25.40911
560.01        25.55056
560.45        25.65419
560.88         25.6798
561.32        25.65122
561.75         25.5715
562.19        25.50586
562.63        25.52527
563.06        25.64019
563.50         25.8124
563.93        26.00639
564.37        26.22299
564.80        26.41244
565.24        26.49526
565.68        26.48942
566.11         26.5184
566.55        26.61596
566.98        26.69591
567.42        26.78452
567.85        26.97562
568.29        27.27161
568.72        27.50128
569.16        27.68742
569.60        28.03592
570.03        28.42142
570.47        28.46862
570.90        28.29421
571.34        28.04749
571.77        28.39474
572.21        28.53825
572.64        28.61222
573.08        28.28516
573.51        27.29984
573.95        28.57653
574.38         30.5631
574.82        29.93154
575.25        29.61887
575.69        28.58306
576.12        28.21372
576.56        27.98918
576.99        28.63243
577.42        30.18443
577.86        29.88872
578.29        29.84553
578.73        31.03816
579.16        28.53279
579.60        26.14397
580.03         27.3343
580.47        29.13519
580.90        29.48478
581.33        29.04844
581.77        28.66794
582.20        30.96409
582.64        30.46035
583.07        25.87245
583.51        25.37565
583.94        25.02749
584.37        26.20245
584.81          27.271
585.24        28.49623
585.68         29.0094
586.11        28.25373
586.54        26.19908
586.98        25.32841
587.41        25.88249
587.85        26.98787
588.28        27.55639
588.71        26.24331
589.15        25.55843
589.58        25.94578
590.01        26.29578
590.45        26.82418
590.88        26.83582
591.31         26.5235
591.75         26.4337
592.18        26.55497
592.61        27.16639
593.05        27.53701
593.48        28.78388
593.91        28.67733
594.35        26.46223
594.78        26.05116
595.21        26.24008
595.65        27.53961
596.08        28.51752
596.51        27.57755
596.94        27.13893
597.38        27.72848
597.81        29.13041
598.24        29.83874
598.68        29.65665
599.11        29.56964
599.54        31.05558
599.97        31.90528
600.41        30.46279
600.84        30.93771
601.27        31.85164
601.70        31.78493
602.14        32.05744
602.57         32.1132
603.00        33.00233
603.43        34.29913
603.87        35.53819
604.30        35.76609
604.73        35.18749
605.16         35.2677
605.60        36.15073
606.03        37.40457
606.46        38.64082
606.89        38.68908
607.32        38.10271
607.76        38.63542
608.19        40.18597
608.62        40.10355
609.05        39.85882
609.48        40.62142
609.92        40.99459
610.35         41.2916
610.78        43.00768
611.21         43.5294
611.64        42.22038
612.07        43.01853
612.50        43.63351
612.94        44.30035
613.37        44.35561
613.80        44.87578
614.23         45.7792
614.66           45.82
615.09        46.46272
615.52        46.76201
615.96        47.03206
616.39        47.65454
616.82        47.10347
617.25        47.48528
617.68        48.25296
618.11        48.99953
618.54        49.49885
618.97        49.39843
619.40        48.99075
619.84        49.29675
620.27        50.27671
620.70        51.03578
621.13        51.39413
621.56        51.23412
621.99        50.78608
622.42        51.38179
622.85        52.63573
623.28        52.53622
623.71        52.22189
624.14        51.80774
624.57        51.72982
625.00        51.69576
625.43        51.74387
625.86        51.25641
626.29        51.23598
626.72        51.27748
627.15        51.11842
627.58         51.0247
628.01         50.8023
628.44        50.92382
628.87        50.59436
629.30           50.54
629.73        50.45398
630.16        50.14837
630.59        49.60255
631.02        48.93478
631.45        48.24952
631.88        47.62946
632.31        47.10277
632.74        46.73803
633.17        46.30437
633.60        45.83266
634.03        45.24854
634.46        44.59834
634.89        43.92675
635.32        43.30747
635.75        42.76602
636.18        42.27391
636.61        41.81401
637.04        41.35697
637.47         40.8839
637.89        40.40754
638.32        39.90676
638.75        39.37513
639.18        38.82733
639.61        38.28193
640.04        37.76868
640.47         37.3271
640.90        36.96803
641.33        36.67752
641.76         36.4438
642.18        36.29886
642.61        36.23327
643.04        36.15293
643.47        36.01012
643.90        36.19558
644.33        35.95745
644.76        35.91693
645.18        35.87406
645.61        35.88596
646.04        35.95689
646.47        36.06607
646.90        36.25879
647.33        36.57647
647.75        37.03099
648.18        37.63808
648.61        38.24855
649.04        38.63354
649.47        38.76803
649.89        38.61282
650.32        38.47366
650.75        39.00305
651.18        40.16425
651.61        41.33018
652.03        42.20401
652.46        42.79057
652.89         43.3363
653.32        43.57652
653.74        43.68147
654.17        45.76723
654.60        46.06553
655.03        45.44051
655.46        47.13029
655.88        50.32729
656.31        54.39224
656.74        120.7273
657.16        76.99555
657.59        27.44654
658.02        21.43855
658.45        38.72116
658.87        50.26066
659.30        52.97771
659.73        52.90519
660.15         52.1473
660.58        54.14059
661.01        56.13615
661.44         54.9846
661.86        54.94351
662.29        55.39199
662.72        56.36232
663.14        57.69776
663.57        57.95969
664.00        57.35233
664.42        57.43675
664.85        58.30352
665.27         58.9749
665.70        59.27111
666.13         59.4639
666.55        59.53304
666.98        59.40962
667.41        59.24137
667.83        59.30379
668.26        59.65582
668.69        60.18398
669.11        60.69977
669.54        61.18249
669.96        60.99964
670.39         60.7536
670.82        60.45657
671.24        60.32334
671.67        60.50115
672.09        61.10226
672.52        61.84146
672.94        62.51393
673.37        62.02712
673.80        61.97106
674.22        62.11966
674.65        62.24038
675.07        62.33232
675.50        62.40968
675.92        62.51259
676.35        62.73766
676.77        63.08945
677.20        63.46779
677.62         63.8277
678.05        64.08675
678.47        64.18694
678.90        64.24287
679.32        64.33334
679.75        64.20068
680.17         64.0717
680.60        64.80013
681.02        64.54957
681.45        64.68614
681.87        64.65443
682.30        64.53217
682.72        64.41733
683.15        64.52477
683.57        64.91387
684.00         65.3901
684.42         65.9867
684.85        66.31187
685.27        66.34834
685.70        66.20729
686.12        65.98507
686.54        65.82641
686.97        65.80341
687.39        65.99364
687.82         66.3151
688.24        66.56864
688.66        66.69186
689.09        66.79608
689.51        66.91506
689.94         67.0212
690.36        67.12887
690.78        67.29179
691.21        67.39069
691.63        67.50713
692.06        67.60989
692.48        67.70813
692.90        67.82378
693.33        67.97877
693.75        68.17715
694.17        68.41504
694.60        68.65218
695.02        68.81655
695.44        68.86229
695.87        68.93736
696.29        69.06493
696.71        68.90891
697.14        68.65423
697.56        69.13058
697.98        70.04951
698.41          70.371
698.83        69.50845
699.25        69.26159
699.68        69.51186
700.10        69.62615
700.52        69.60415
700.94        69.82537
701.37        70.24814
701.79        70.66455
702.21          70.995
702.64        71.30202
703.06        71.50327
703.48        71.46011
703.90        71.18233
704.33        70.72107
704.75         70.2295
705.17        70.04041
705.59        70.23384
706.01        70.60522
706.44        70.99266
706.86        71.71574
707.28         71.7363
707.70        71.92659
708.12        72.02139
708.55        71.89468
708.97        71.63205
709.39        71.61029
709.81        71.83891
710.23        71.97384
710.66        72.00047
711.08         72.1719
711.50        72.41708
711.92        72.52631
712.34        72.47433
712.76        72.29872
713.19        72.11102
713.61        72.12486
714.03        72.36707
714.45        72.78001
714.87        73.17557
715.29        73.25561
715.71        72.97084
716.13        72.42435
716.56        71.84749
716.98        71.64429
717.40        71.90234
717.82        72.49463
718.24         73.2045
718.66        73.66177
719.08         73.7524
719.50        73.58643
719.92        73.28649
720.34        73.06992
720.76        73.01431
721.19        72.93507
721.61        73.04144
722.03        73.16438
722.45        73.34831
722.87        73.59789
723.29        73.88319
723.71        74.13507
724.13        74.32504
724.55        74.45626
724.97        74.52568
725.39        74.54432
725.81        74.52021
726.23        74.44936
726.65        74.36131
727.07        74.30067
727.49        74.28486
727.91         74.3231
728.33         74.3819
728.75        74.39911
729.17        74.36353
729.59        74.27982
730.01         74.2077
730.43        74.31273
730.85        74.63133
731.27        74.99464
731.69        75.22028
732.10        75.80001
732.52        75.39757
732.94        75.13905
733.36        74.85653
733.78        74.77147
734.20        74.93605
734.62        75.66718
735.04        76.65013
735.46        76.53425
735.88        75.60728
736.30        75.67255
736.72        76.76444
737.13        77.49136
737.55        77.46852
737.97        77.40462
738.39        77.36468
738.81        76.53844
739.23         75.4268
739.65        76.30355
740.06        78.63036
740.48        78.89165
740.90         77.1871
741.32        76.47809
741.74        77.02444
742.16        77.31943
742.57        77.39982
742.99        78.10201
743.41        79.20549
743.83        79.87489
744.25        79.97286
744.67        79.72152
745.08        79.34495
745.50        79.20844
745.92        79.42223
746.34        79.83618
746.75        80.32922
747.17        80.66338
747.59        80.79224
748.01        80.90569
748.42        81.04762
748.84        81.07221
749.26        81.13454
749.68        81.54464
750.09        82.23755
750.51        83.01931
750.93        83.64303
751.35         83.4841
751.76        82.71848
752.18        82.45065
752.60         82.6731
753.01        82.48185
753.43        81.99217
753.85        81.98475
754.27        82.51525
754.68        83.43562
755.10        84.49072
755.52        84.82296
755.93        85.00213
756.35        85.07657
756.77        85.33286
757.18        85.37391
757.60        85.26601
758.02        85.66711
758.43        86.11765
758.85        85.79904
759.26        83.23322
759.68        83.08933
760.10        84.65134
760.51        85.55788
760.93        84.84837
761.34        84.02193
761.76        83.90136
762.18        83.22259
762.59        82.57543
763.01        82.98933
763.42        84.38464
763.84        85.31469
764.26        85.59315
764.67        85.64039
765.09         85.5237
765.50        85.63954
765.92         85.7623
766.33        84.48225
766.75        82.38424
767.16        81.65145
767.58        82.56732
768.00        84.30313
768.41        86.38812
768.83        88.07334
769.24         88.6376
769.66        87.60587
770.07        85.71107
770.49        83.99458
770.90        82.91981
771.32        84.28698
771.73         86.5274
772.15        86.11401
772.56        83.30915
772.97        82.52614
773.39        83.77422
773.80        84.88025
774.22        84.57206
774.63        84.79255
775.05        85.18439
775.46         85.4935
775.88        85.61537
776.29        85.40033
776.70        84.99587
777.12        84.86713
777.53         85.0985
777.95        85.48106
778.36         85.8288
778.77        85.81091
779.19        85.40911
779.60         84.7973
780.02         84.2085
780.43        84.02599
780.84        84.46549
781.26        84.97414
781.67        85.46809
782.09        87.02139
782.50        88.91609
782.91         87.4452
783.33        84.56474
783.74        83.47688
784.15         84.7235
784.57        85.71322
784.98         86.0023
785.39        86.09723
785.81        85.89053
786.22        85.19439
786.63        84.40691
787.04        84.29482
787.46        84.96819
787.87        86.00854
788.28         86.9463
788.70        88.09217
789.11        87.43472
789.52        86.79456
789.93        85.96383
790.35        85.32553
790.76        85.08368
791.17        85.41289
791.58        86.15423
792.00        86.74789
792.41        86.97193
792.82         86.9136
793.23         86.7569
793.65        86.33036
794.06        85.94887
794.47        86.98834
794.88         88.6892
795.29        88.12486
795.71        85.55925
796.12         83.4963
796.53         82.5527
796.94        82.11704
797.35        82.37801
797.76        83.94215
798.18        86.08718
798.59        87.28011
799.00        87.07573
799.41        85.87637
799.82        84.30649
800.23         83.3881
800.64        83.39275
801.06         83.9296
801.47        84.76178
801.88        85.37859
802.29        85.58284
802.70        85.55627
803.11        85.40164
803.52        85.25798
803.93        85.20921
804.34        85.17312
804.75        85.15551
805.17         85.3185
805.58        85.72306
805.99         85.9156
806.40        85.87539
806.81         86.5892
807.22        87.53561
807.63        86.41908
808.04        83.86069
808.45        82.80341
808.86        83.48746
809.27        84.41872
809.68        85.17513
810.09        85.65599
810.50        85.66106
810.91        85.24153
811.32        84.66545
811.73         84.3696
812.14        84.46463
812.55        84.77979
812.96        85.20314
813.37        85.52446
813.78        85.65512
814.19        85.73233
814.60        85.64563
815.01        85.19978
815.42         84.4097
815.83        83.29518
816.24        82.26794
816.65        82.05567
817.05        82.85052
817.46        84.40128
817.87        86.09575
818.28         86.8286
818.69        86.31065
819.10         84.8161
819.51        83.03475
819.92        82.19588
820.33        82.63047
820.74        83.83494
821.14        85.21506
821.55        86.04129
821.96        85.90619
822.37        84.42755
822.78        82.30503
823.19        81.22639
823.60        81.47749
824.00        82.38467
824.41        83.46086
824.82         84.2286
825.23        84.41164
825.64        84.18646
826.04        83.79702
826.45        83.60187
826.86        83.69122
827.27        83.89911
827.68        84.12434
828.08        84.25469
828.49        84.17504
828.90        84.02749
829.31        83.78473
829.72        83.37791
830.12         82.8745
830.53        82.29005
830.94        81.87598
831.35        81.97015
831.75        82.65305
832.16        83.76037
832.57        85.02286
832.97        85.86681
833.38        86.01554
833.79        85.62365
834.20        84.97088
834.60        84.49329
835.01        84.34974
835.42        84.41862
835.82        84.55103
836.23        84.41138
836.64        83.97363
837.04        83.38464
837.45        82.86777
837.86        82.76659
838.26        83.15277
838.67        83.84667
839.08        84.63293
839.48        85.12665
839.89         85.1586
840.29        84.87189
840.70        84.35866
841.11        83.73708
841.51        83.09838
841.92        82.40213
842.33        81.81506
842.73        81.62404
843.14        81.83533
843.54        82.41131
843.95        83.07067
844.35        83.39544
844.76        83.25414
845.17        82.78232
845.57        82.16731
845.98        81.71931
846.38        81.53381
846.79        81.49258
847.19        81.58332
847.60        81.68677
848.00        81.79716
848.41        81.93307
848.81        82.09138
849.22        82.18276
849.62        82.24831
850.03        82.29132
850.43        82.39632
850.84        82.62327
851.24        83.02362
851.65        83.36803
852.05        83.76305
852.46        84.19674
852.86         84.6507
853.27        85.18669
853.67        85.32416
854.07         84.4473
854.48        82.62531
854.88        80.08503
855.29        77.73883
855.69        76.91019
856.10        77.83807
856.50        80.35971
856.90        83.58047
857.31        85.42281
857.71        85.22688
858.12        83.53973
858.52        81.35178
858.92        79.98531
859.33        79.72908
859.73        80.20916
860.13        81.20703
860.54         82.2518
860.94        83.16772
861.34         84.0718
861.75        84.80608
862.15        85.20158
862.55          85.195
862.96        84.74735
863.36        84.12472
863.76        83.78671
864.17        83.87278
864.57        84.34326
864.97        84.96066
865.38        85.32418
865.78        85.38834
866.18        85.19339
866.58         84.9896
866.99        85.18134
867.39        85.92081
867.79        87.10321
868.19        88.25069
868.60        88.48418
869.00        87.60471
869.40        85.87322
869.80        84.15341
870.21        83.79117
870.61        85.18127
871.01        87.90662
871.41        91.01576
871.81        92.88102
872.22        93.02324
872.62        91.91879
873.02        90.39513
873.42        89.83977
873.82        90.48746
874.22        91.77611
874.63        93.20143
875.03        93.74919
875.43        92.98262
875.83        91.84727
876.23        90.15091
876.63        89.67252
877.03        90.60606
877.44        93.23683
877.84        100.6971
878.24        100.6573
878.64        100.0216
879.04        97.90778
879.44        94.67634
879.84         92.9528
880.24        95.12366
880.64        96.92668
881.04        98.64233
881.44        99.56836
881.84        98.82066
882.24        96.93066
882.65        95.01124
883.05        94.25654
883.45        94.87455
883.85        96.65292
884.25        98.90543
884.65        100.2594
885.05        100.2642
885.45        99.39536
885.85        98.31837
886.25         97.9496
886.65        98.48759
887.05        99.57734
887.45        100.8855
887.85        101.8325
888.25        102.1724
888.65        102.1382
889.04        101.7619
889.44        101.1261
889.84        100.3213
890.24        99.31863
890.64        98.42217
891.04        98.10816
891.44        98.43778
891.84        99.31515
892.24         100.326
892.64        100.6841
893.04        100.2428
893.44        99.33092
893.83        98.39346
894.23        98.09896
894.63        98.56722
895.03         99.5066
895.43        100.8065
895.83        102.2478
896.23         103.608
896.63        104.9251
897.02        105.7392
897.42        105.3186
897.82        103.6583
898.22        101.0769
898.62        98.42641
899.01        96.95064
899.41        96.94292
899.81        98.00214
900.21        99.58389
900.61        100.7678
901.00        101.2375
901.40        101.2762
901.80        101.0643
902.20        100.8874
902.59        100.8621
902.99        100.8368
903.39        100.8199
903.79        100.8668
904.18        100.9803
904.58        101.2174
904.98        101.5189
905.38        101.7759
905.77        101.9256
906.17        101.9582
906.57        101.9256
906.96        101.9612
907.36        102.0288
907.76        102.1308
908.15        102.0918
908.55        101.5134
908.95        100.4207
909.34        98.93021
909.74        97.54496
910.14          96.866
910.53        97.06217
910.93         98.0106
911.33        99.33833
911.72        100.3552
912.12        100.7427
912.52        100.6386
912.91        100.3912
913.31        100.4845
913.70        101.0603
914.10        101.9995
914.49        102.9124
914.89        102.7537
915.29        101.3153
915.68         99.0335
916.08        97.03836
916.47        96.32923
916.87         96.9973
917.26        98.68718
917.66        100.5748
918.05        101.3384
918.45        100.6215
918.84        98.89429
919.24        96.98166
919.64        96.07191
920.03        96.49374
920.42        97.87357
920.82        99.65388
921.21        101.0196
921.61        101.5037
922.00        101.4068
922.40        100.9264
922.79        100.3042
923.19        99.69379
923.58        99.02225
923.98        98.31214
924.37         97.6665
924.77         97.3012
925.16        96.61371
925.55        96.95851
925.95        97.77444
926.34        99.39407
926.74        101.4225
927.13        103.3041
927.52        103.9169
927.92        103.1519
928.31         101.363
928.70        99.10957
929.10        97.33971
929.49         96.3316
929.89        95.88862
930.28        96.04869
930.67        96.86508
931.07        98.10924
931.46        99.78976
931.85        101.3534
932.24          101.99
932.64        101.5624
933.03        100.1935
933.42        98.14924
933.82        96.21161
934.21        94.72244
934.60         93.6632
934.99        93.03787
935.39        92.82832
935.78        93.02998
936.17        93.55417
936.56        94.14597
936.96        95.06307
937.35        94.38384
937.74        93.61829
938.13        92.93361
938.53        92.99688
938.92        93.83545
939.31        95.34332
939.70        97.04623
940.09         97.6684
940.49        96.80071
940.88        94.99637
941.27        93.12115
941.66        92.17899
942.05        92.30802
942.44        93.17068
942.84        94.40548
943.23        95.49467
943.62         96.1164
944.01        96.40131
944.40        96.42353
944.79        96.29922
945.18        96.06947
945.57        95.64671
945.97        94.95402
946.36          94.024
946.75        93.06752
947.14        92.29054
947.53        91.85197
947.92        91.82041
948.31        92.16491
948.70        92.87459
949.09         93.8493
949.48        94.78338
949.87        95.44292
950.26        95.76622
950.65        95.84317
951.04        95.89111
951.43        95.95392
951.82        95.96902
952.21        95.69102
952.60        94.77104
952.99        93.22668
953.38        91.25349
953.77        89.37599
954.16        88.30911
954.55        88.19459
954.94        88.90802
955.33        89.87828
955.72        90.12514
956.11        89.41367
956.50        87.96481
956.89        86.56113
957.28          86.644
957.66        88.61852
958.05        91.73928
958.44        94.93185
958.83        96.62497
959.22        96.43681
959.61        94.80748
960.00        92.46417
960.39        90.58989
960.78        89.60618
961.16        89.27274
961.55        89.16293
961.94        88.58163
962.33        87.39384
962.72        85.92921
963.11        84.72546
963.49         84.4432
963.88        85.15903
964.27        86.71117
964.66        88.45282
965.04        89.06532
965.43        88.03766
965.82        85.90849
966.21         83.7112
966.60         82.7575
966.98        83.27187
967.37        84.83363
967.76        86.77219
968.15        87.77266
968.53        87.40742
968.92         86.1035
969.31        84.54948
969.69        83.63457
970.08        83.57488
970.47        84.11625
970.86        84.83876
971.24        85.04023
971.63        84.48962
972.02        83.39299
972.40         82.3272
972.79        82.25175
973.17        83.55416
973.56        85.84645
973.95        88.35059
974.33        89.57084
974.72        88.99268
975.11        87.10555
975.49        84.92754
975.88        83.86111
976.26        84.12829
976.65        85.43674
977.04        86.96368
977.42        86.76673
977.81         84.2768
978.19        80.39366
978.58        77.11646
978.96        76.44308
979.35        78.65363
979.74        83.31314
980.12          89.439
980.51        93.49985
980.89        94.25938
981.28        92.59418
981.66        89.90505
982.05        88.04034
982.43        87.39412
982.82        87.38851
983.20        87.92805
983.59        89.03304
983.97         90.6853
984.35        92.98724
984.74        95.36137
985.12        96.75557
985.51        96.35241
985.89        94.36475
986.28        91.15284
986.66        87.39589
987.04         83.9604
987.43        81.09895
987.81        79.09221
988.20        78.11919
988.58        78.08672
988.96        79.02393
989.35        81.32858
989.73        85.07151
990.12        88.77381
990.50        91.66432
990.88         92.6424
991.27        91.56396
991.65        88.93386
992.03        84.77384
992.42         80.4238
992.80        78.32854
993.18        79.24991
993.56        81.91298
993.95        84.88407
994.33        86.89847
994.71         87.6377
995.10        87.79711
995.48        87.41981
995.86         86.4047
996.24        84.82974
996.63        82.41616
997.01        80.03974
997.39        80.22489
997.77        83.81096
998.15        90.00172
998.54        96.00822
998.92        98.31142
999.30        95.89068
999.68        89.66808
1000.06        81.21075
1000.45        74.60413
1000.83        71.70383
1001.21        71.33745
1001.59        72.67567
1001.97         74.7851
1002.35         77.3173
1002.73        81.13813
1003.12        84.91773
1003.50        84.72598
1003.88        79.18642
1004.26        70.41481
1004.64        62.55357
1005.02        59.09235
1005.40         60.3078
1005.78        66.27842
1006.16         77.5615
1006.54        88.29395
1006.92        91.54684
1007.30        89.44012
1007.69        86.29328
1008.07        85.13503
1008.45        86.32007
1008.83        89.94668
1009.21        97.18472
1009.59        103.8877
1009.97        84.29043
1010.35        9.711174
1010.73       -24.76353
1011.11      -0.7884823
1011.49        27.94182
1011.86         51.8457
1012.24        66.21112
1012.62        72.03807
1013.00         72.3992
1013.38         68.8357
1013.76        63.89905
1014.14        66.36385
1014.52        83.69927
1014.90        117.9899
1015.28        160.1313
1015.66        183.1967
1016.04        170.5378
1016.41        126.8536
1016.79        76.78675
1017.17        48.14348
1017.55        41.30603
1017.93        43.78654
1018.31        49.13992
1018.69        54.30992
1019.06        59.33584
1019.44        65.59675
1019.82        75.32484
1020.20        90.33394
1020.58        112.7729
1020.95        148.2414
1021.33        210.3381
1021.71       -555.6647
1022.09         70.2804
1022.46        109.4864
1022.84        124.5523
1023.22        133.3668
1023.60        144.0174
1023.97        218.5349
1024.35         98.1208
1024.73        112.7957
