SpectraSmart Spectrum 2.9.0.0
--------- Device Information -----------
Spectrum Name :  反射率_0
Saving Time :  2024/04/26 00:06:54
Spectro-Module Model Name : SE2030-DUVN
Spectro-Module Serial Number : OS361AC55029948
Wavelength Start : 200
Wavelength End : 1025
Wavelength Unit : Wavelength(nm)
Spectrum Unit : Reflectance(%)
-----------Spectrum Setting ------------
Integration Time : 20ms
Average : 10
Boxcar : 0
Background removal :  enabled
linearity correction :  enabled
SC :  disabled
Intensity correction :  disabled
DWT denoise :  enabled
savitzky-golay :  disabled
FFT :  disabled
Running average :  disabled
Kalman :  disabled
High pass :  disabled
---------------BEGIN--------------------
Wavelength(nm)             Reflectance(%)
200.29               0
200.75        88.82902
201.21        80.00551
201.67          69.394
202.13        61.92858
202.58        58.35387
203.04        57.75174
203.50        59.16845
203.96        60.92266
204.42        62.17393
204.88        63.18908
205.34        64.30482
205.80        66.15115
206.26        69.44798
206.72        75.78668
207.18        86.80743
207.64        93.79319
208.10        82.94996
208.55        66.91763
209.01        57.87533
209.47        55.85081
209.93         57.9734
210.39        63.23429
210.85        69.17841
211.31        70.29623
211.77        64.96439
212.23        55.28691
212.69        45.69762
213.14        43.07527
213.60        48.48721
214.06        59.94801
214.52        73.04472
214.98        80.96516
215.44         81.9089
215.90        78.09024
216.36        72.37891
216.81        68.68182
217.27        68.22746
217.73        69.61298
218.19        70.97166
218.65        69.92603
219.11        65.56343
219.57        57.31547
220.02        46.53486
220.48        40.78291
220.94        43.84665
221.40        53.52217
221.86        61.79732
222.32        60.49501
222.77        51.08596
223.23        38.67793
223.69         28.3785
224.15        25.30467
224.61        28.84888
225.06        36.36351
225.52        44.33105
225.98        48.37465
226.44        47.64431
226.90        43.96716
227.36        39.60884
227.81         37.6077
228.27         38.8641
228.73        42.00105
229.19        45.68309
229.65        48.02993
230.10        48.59167
230.56        48.19106
231.02        47.52398
231.48        47.29591
231.93        47.62445
232.39        48.28533
232.85        48.98112
233.31        49.35708
233.77        49.31449
234.22        48.93406
234.68        48.56691
235.14        48.77302
235.60        49.67618
236.05        51.10627
236.51        52.45116
236.97        52.83422
237.43        52.06741
237.88         50.2476
238.34         48.0153
238.80        47.44153
239.26        49.54053
239.71        54.04104
240.17        59.21925
240.63        62.35491
241.08        62.70046
241.54        60.95843
242.00        58.56197
242.46        57.48765
242.91        58.81108
243.37        63.64041
243.83        79.91936
244.28        133.6129
244.74        195.1079
245.20        162.9906
245.66        132.6373
246.11        123.9064
246.57        127.5446
247.03        146.4249
247.48        200.5543
247.94        161.0753
248.40        99.99712
248.85        82.85053
249.31        78.49588
249.77        78.85889
250.22        82.03164
250.68        88.27724
251.14        97.29497
251.59        102.7595
252.05        98.79023
252.51        88.53538
252.96        77.60205
253.42        71.31633
253.88        69.22256
254.33        69.41929
254.79        71.94121
255.25        76.18787
255.70        80.96564
256.16        86.03259
256.62        89.49038
257.07        89.40977
257.53        86.68736
257.99        82.02309
258.44        77.17897
258.90        75.15739
259.35        75.03813
259.81        75.72965
260.27        75.47356
260.72        72.58239
261.18        67.85561
261.63        62.09306
262.09        56.77874
262.55        52.91052
263.00        50.51028
263.46        49.20894
263.91        48.29506
264.37        47.31859
264.83        46.05238
265.28        44.53122
265.74        43.12631
266.19        42.11102
266.65        41.63649
267.11        41.46346
267.56         41.2127
268.02        40.44066
268.47        39.05156
268.93        37.22678
269.38        35.25721
269.84        33.88195
270.30        33.31033
270.75        33.34981
271.21        33.64737
271.66        33.65895
272.12        33.22593
272.57        32.51387
273.03        31.75126
273.48        31.19461
273.94        30.93824
274.39        30.83001
274.85        30.75062
275.31         30.5255
275.76        30.10031
276.22        29.57171
276.67        28.99782
277.13        28.55383
277.58        28.22281
278.04         27.9862
278.49        27.72822
278.95        27.35235
279.40        26.81573
279.86        26.22488
280.31        25.61781
280.77        25.16542
281.22        24.85799
281.68        24.66646
282.13        24.54371
282.59        24.46357
283.04        24.39376
283.50        24.37471
283.95        24.33092
284.41        24.17016
284.86        23.87987
285.32        23.50222
285.77         23.1659
286.22        23.13122
286.68        23.40297
287.13        23.85804
287.59        24.28276
288.04         24.3481
288.50        24.02006
288.95        23.40276
289.41        22.68873
289.86        22.05881
290.32        21.63579
290.77        21.35163
291.22         21.2304
291.68        21.26792
292.13        21.45244
292.59        21.79322
293.04        22.24579
293.50        22.73221
293.95         23.2112
294.40        23.66413
294.86        24.09248
295.31        24.52056
295.77         24.9561
296.22        25.38772
296.68        25.79189
297.13        26.10448
297.58        26.33898
298.04        26.54423
298.49        26.79158
298.95        27.22481
299.40        27.85852
299.85        28.63878
300.31        29.48235
300.76        30.26661
301.21        30.92439
301.67        31.50238
302.12        31.95617
302.58        32.28569
303.03        32.48751
303.48        32.58033
303.94        32.68452
304.39        32.94887
304.84         33.4049
305.30        34.00161
305.75          34.581
306.20        34.90941
306.66        34.96357
307.11        34.80886
307.57        34.60793
308.02        34.52214
308.47        34.62545
308.93        34.85798
309.38        35.15699
309.83        35.45932
310.29        35.72261
310.74        35.95499
311.19        36.13826
311.65        36.24111
312.10         36.2574
312.55        36.19346
313.00        36.05797
313.46        35.88182
313.91        35.67664
314.36        35.46102
314.82        35.28426
315.27        35.19713
315.72        35.21691
316.18         35.3261
316.63        35.47919
317.08        35.57567
317.53        35.58113
317.99        35.50408
318.44        35.39756
318.89        35.35293
319.35        35.37884
319.80        35.45531
320.25        35.48705
320.70        35.32449
321.16        34.94852
321.61        34.41603
322.06        33.86333
322.51        33.49408
322.97        33.34317
323.42         33.3664
323.87        33.43915
324.32        33.34987
324.78        33.04266
325.23        32.59319
325.68        32.11075
326.13        31.77883
326.59        31.64098
327.04        31.65529
327.49        31.73876
327.94        31.76135
328.39        31.68099
328.85        31.52822
329.30        31.37532
329.75        31.29502
330.20        31.31325
330.66        31.38181
331.11        31.48503
331.56        31.55371
332.01        31.56292
332.46        31.51871
332.92          31.432
333.37        31.36538
333.82        31.32337
334.27        31.30948
334.72        31.27293
335.17        31.13234
335.63        30.87728
336.08        30.53812
336.53        30.23911
336.98        30.18251
337.43        30.39912
337.88        30.83179
338.34        31.26596
338.79        31.39952
339.24        31.13535
339.69        30.55983
340.14        29.90996
340.59        29.60354
341.05        29.74043
341.50        30.18769
341.95        30.71005
342.40        30.96291
342.85        30.86785
343.30        30.54551
343.75        30.12476
344.20        29.82986
344.66        29.73553
345.11        29.72666
345.56        29.77094
346.01        29.82218
346.46         29.8474
346.91         29.8885
347.36        29.84731
347.81        29.55773
348.26          29.025
348.72        28.33165
349.17        27.66612
349.62        27.42001
350.07         27.6717
350.52        28.28768
350.97        29.02978
351.42        29.52928
351.87        29.68064
352.32        29.58501
352.77         29.3406
353.22        29.11115
353.67        28.95576
354.13        28.82426
354.58         28.6922
355.03        28.56606
355.48        28.44344
355.93        28.34911
356.38        28.26417
356.83        28.14266
357.28        27.97442
357.73        27.76241
358.18        27.54267
358.63        27.37509
359.08         27.2721
359.53        27.22298
359.98        27.16934
360.43        27.02034
360.88        26.76177
361.33        26.41745
361.78        26.08016
362.23        25.90045
362.68        25.90131
363.13        26.02747
363.58        26.15423
364.03        26.08683
364.48        25.78661
364.93        25.32447
365.38        24.80911
365.83        24.41605
366.28        24.19756
366.73        24.09469
367.18        24.06481
367.63        24.03738
368.08        23.98006
368.53        23.92313
368.98        23.84145
369.43        23.68678
369.88        23.46343
370.33        23.18726
370.78        22.92246
371.23          22.785
371.68        22.80135
372.13        22.92863
372.58        23.12126
373.03         23.2957
373.48        23.40946
373.93        23.48139
374.38        23.47774
374.83          23.351
375.28        23.10566
375.72        22.74376
376.17         22.3766
376.62        22.14805
377.07        22.09496
377.52         22.1807
377.97        22.31453
378.42        22.34292
378.87        22.22804
379.32        22.02015
379.77        21.78798
380.22        21.63052
380.67         21.5669
381.11        21.55904
381.56        21.55724
382.01        21.49208
382.46        21.34641
382.91        21.15072
383.36        20.93927
383.81         20.7626
384.26        20.64009
384.71        20.55848
385.15        20.49748
385.60        20.44266
386.05         20.3755
386.50        20.29229
386.95        20.20424
387.40        20.13091
387.85        20.07984
388.29        20.04661
388.74        20.00637
389.19        19.88908
389.64        19.69061
390.09        19.42165
390.54        19.17339
390.98        19.09942
391.43        19.23136
391.88        19.50315
392.33        19.77093
392.78        19.82183
393.23        19.63282
393.67        19.28099
394.12        18.92332
394.57        18.71195
395.02        18.68297
395.47         18.7767
395.91        18.94633
396.36        19.08187
396.81         19.1436
397.26        19.15045
397.71        19.10829
398.15        19.00613
398.60        18.88085
399.05        18.74086
399.50        18.58804
399.95        18.37334
400.39        18.18174
400.84         17.9607
401.29        17.78433
401.74        17.74886
402.18        17.87935
402.63        18.12144
403.08        18.38922
403.53        18.53906
403.97        18.53434
404.42        18.41785
404.87        18.23891
405.32        18.08943
405.76        18.00219
406.21        17.95164
406.66        17.94086
407.11         17.9819
407.55         18.0732
408.00        18.21316
408.45        18.34848
408.90        18.36436
409.34        18.23609
409.79        18.00249
410.24        17.76295
410.68        17.65857
411.13        17.71868
411.58        17.90241
412.03        18.13125
412.47        18.26537
412.92         18.2488
413.37        18.13104
413.81        17.97579
414.26        17.89793
414.71        17.91551
415.15        17.98777
415.60        18.06088
416.05        18.07097
416.49        17.99929
416.94        17.88782
417.39        17.74524
417.83        17.58399
418.28        17.42981
418.73        17.27245
419.17        17.16649
419.62        17.18704
420.07        17.33606
420.51        17.58787
420.96        17.84076
421.41        17.91761
421.85        17.77719
422.30        17.50402
422.74         17.1976
423.19        17.03731
423.64         17.0447
424.08        17.17396
424.53        17.35189
424.98        17.48437
425.42         17.5394
425.87        17.53564
426.31        17.48586
426.76        17.45856
427.21        17.44099
427.65        17.29663
428.10        17.11724
428.54        17.16641
428.99         17.4648
429.44        17.89038
429.88        18.25558
430.33        18.35576
430.77        18.13484
431.22        17.60486
431.66        17.00315
432.11         16.8124
432.56        17.07113
433.00        17.52494
433.45        17.96155
433.89        18.26178
434.34        18.29934
434.78        17.95607
435.23        17.50048
435.67        17.48624
436.12        17.85702
436.57        17.99529
437.01        17.84405
437.46         17.7578
437.90        17.77346
438.35        17.78688
438.79        17.78014
439.24        17.77593
439.68        17.78284
440.13        17.72499
440.57        17.64528
441.02        17.85069
441.46        18.20724
441.91        18.06922
442.35        17.54564
442.80        17.32514
443.24        17.38556
443.69        17.46276
444.13        17.47831
444.58        17.30407
445.02        17.00848
445.47        16.97528
445.91        17.15571
446.36        17.16083
446.80        16.97217
447.24        16.81918
447.69        16.74903
448.13        16.72323
448.58        16.75555
449.02          16.849
449.47        16.96082
449.91         17.0193
450.36        17.00872
450.80        16.94202
451.25        16.86032
451.69        16.81741
452.13        16.83084
452.58        16.87349
453.02         16.9217
453.47        16.93721
453.91         16.9132
454.36        16.86889
454.80        16.81133
455.24        16.74894
455.69        16.69698
456.13        16.64261
456.58        16.61944
457.02         16.6523
457.46         16.7485
457.91        16.89158
458.35        17.03321
458.79        17.09176
459.24         17.0607
459.68         16.9487
460.13        16.82475
460.57         16.7552
461.01        16.77364
461.46         16.8531
461.90        16.94915
462.34        16.98323
462.79        16.93357
463.23        16.81821
463.68        16.70134
464.12        16.69385
464.56        16.81888
465.01        17.04818
465.45        17.25748
465.89         17.3288
466.34        17.25522
466.78        16.98278
467.22          16.664
467.67        16.71285
468.11        17.08478
468.55        17.26416
468.99        17.19504
469.44        17.13877
469.88        17.15285
470.32        17.29591
470.77        17.50391
471.21        17.54475
471.65        17.39438
472.10        17.22984
472.54        17.10705
472.98         17.0585
473.42        17.10539
473.87        17.24415
474.31        17.40997
474.75        17.49515
475.20        17.48184
475.64         17.3945
476.08        17.29615
476.52         17.2829
476.97         17.3774
477.41        17.55132
477.85        17.74231
478.29        17.88481
478.74         17.9591
479.18        17.89524
479.62         17.7532
480.06        17.92691
480.50         18.0612
480.95        18.19121
481.39        18.16137
481.83         18.1111
482.27        18.04089
482.72        17.80444
483.16        17.50829
483.60         17.5629
484.04        17.99095
484.48        18.22729
484.93        18.44228
485.37         18.9225
485.81        19.55233
486.25        19.43891
486.69        25.49413
487.14        20.41758
487.58        13.26713
488.02        16.47151
488.46        18.81265
488.90        18.89962
489.34        18.98541
489.79        18.81062
490.23        19.78875
490.67        20.30248
491.11         20.1363
491.55        20.04986
491.99        19.98487
492.43        19.83958
492.88        19.68165
493.32        19.68297
493.76        19.73077
494.20        19.95219
494.64        20.28818
495.08        20.69569
495.52        21.12226
495.96        21.51315
496.41        21.78546
496.85        21.93381
497.29        21.96737
497.73        21.66283
498.17        21.30568
498.61        21.48564
499.05        22.19239
499.49        22.31388
499.93        22.38113
500.37        22.47108
500.82        22.53095
501.26         22.7775
501.70        23.09566
502.14          23.295
502.58        23.33564
503.02        23.37828
503.46        23.42642
503.90        23.36779
504.34        23.24885
504.78        23.20362
505.22        23.25484
505.66        23.37148
506.10        23.51154
506.54         23.6009
506.98        23.62085
507.42         23.5991
507.86        23.58134
508.30        23.63589
508.74         23.7751
509.18        23.96902
509.62        24.17661
510.06        24.33251
510.50        24.41845
510.94        24.46119
511.38        24.47565
511.82        24.48475
512.26        24.49992
512.70        24.50642
513.14        24.52762
513.58        24.60386
514.02        24.72731
514.46        24.88146
514.90        25.00801
515.34        24.97962
515.78        24.75349
516.22        24.52049
516.66        24.36777
517.10        24.00554
517.54        23.46137
517.98        24.25978
518.42        24.12297
518.86        24.48075
519.30        24.63282
519.74         24.8006
520.18        24.94508
520.62        24.97609
521.06        24.91087
521.50        24.75298
521.93        24.55463
522.37        24.41444
522.81        24.35917
523.25        24.36588
523.69        24.40973
524.13        24.44745
524.57        24.46213
525.01        24.46679
525.45         24.4561
525.89         24.4212
526.32        24.35877
526.76        24.26613
527.20        24.15572
527.64        24.05872
528.08        23.98674
528.52        23.91376
528.96        23.81705
529.40         23.7248
529.83        23.64971
530.27        23.35137
530.71         23.3141
531.15          23.198
531.59        23.14958
532.03        23.14029
532.46        23.17994
532.90        23.28111
533.34        23.42181
533.78        23.58883
534.22        23.72153
534.66        23.73379
535.09        23.60876
535.53        23.38374
535.97        23.11708
536.41        22.90943
536.85        22.79569
537.28        22.75726
537.72        22.76873
538.16        22.78552
538.60        22.79446
539.04        22.79383
539.47        22.80263
539.91        22.90637
540.35        23.08207
540.79        23.21627
541.22        23.29463
541.66        23.39074
542.10        23.49965
542.54        23.56808
542.97        23.61336
543.41        23.70299
543.85        23.84324
544.29        24.02824
544.72        24.21696
545.16        24.35503
545.60        24.43033
546.04        24.45309
546.47        24.49382
546.91        24.67407
547.35        24.99968
547.79        25.43564
548.22        25.85625
548.66        26.04548
549.10        25.98177
549.53        25.77356
549.97        25.56708
550.41        25.52359
550.84         25.6943
551.28        26.04185
551.72        26.48164
552.15        26.85614
552.59        27.10657
553.03        27.27467
553.46        27.38416
553.90        27.49555
554.34        27.63148
554.77        27.73952
555.21         27.8131
555.65        27.93027
556.08        28.10603
556.52        27.98543
556.96        28.22459
557.39        28.29372
557.83        28.39646
558.27        28.50461
558.70        28.63401
559.14        28.79339
559.57        28.96691
560.01        29.16238
560.45        29.33088
560.88        29.39484
561.32        29.36848
561.75        29.26498
562.19        29.16641
562.63        29.15193
563.06        29.23921
563.50        29.41987
563.93        29.64017
564.37        29.81665
564.80        29.91599
565.24        29.97951
565.68        30.01689
566.11        30.04147
566.55        30.08447
566.98        30.13344
567.42        30.21303
567.85        30.35332
568.29        30.57664
568.72        30.79181
569.16        31.02567
569.60        31.38844
570.03        31.72762
570.47        31.76243
570.90        31.65698
571.34        31.13406
571.77        31.67454
572.21        31.80333
572.64        31.97039
573.08        31.43263
573.51        30.27661
573.95        31.61827
574.38        33.81049
574.82         33.1827
575.25        32.71386
575.69        31.62259
576.12        31.14771
576.56         31.0107
576.99        31.86567
577.42        33.15998
577.86        33.09757
578.29        32.85614
578.73        34.37392
579.16        31.64554
579.60        29.02363
580.03        30.35163
580.47         32.3101
580.90        32.58443
581.33        32.00647
581.77        31.51278
582.20        34.43591
582.64        34.00434
583.07        29.06189
583.51        28.44303
583.94         27.8536
584.37        28.94637
584.81        30.18006
585.24        31.59773
585.68        32.30777
586.11        31.41288
586.54         29.3543
586.98         28.6071
587.41        28.90396
587.85        30.20751
588.28        31.07732
588.71        29.58984
589.15        28.76996
589.58        29.13383
590.01        29.63385
590.45        29.98704
590.88        30.04269
591.31        29.63037
591.75        29.55503
592.18        29.60227
592.61        30.04982
593.05        30.77958
593.48        32.00122
593.91        31.83667
594.35        29.48199
594.78          29.092
595.21        29.39833
595.65        30.89342
596.08        31.95197
596.51        30.81024
596.94        30.20331
597.38        30.74286
597.81        32.19213
598.24        33.09634
598.68        32.63063
599.11         32.6841
599.54        33.96486
599.97        34.79171
600.41        33.07842
600.84        33.49407
601.27        34.39711
601.70        34.30877
602.14        34.61824
602.57        34.55258
603.00        35.26862
603.43        36.51543
603.87        37.80413
604.30        37.95939
604.73        37.16386
605.16        37.08157
605.60        37.82161
606.03        38.86606
606.46        39.83706
606.89        40.14091
607.32        39.54552
607.76          40.012
608.19        41.44805
608.62        41.08579
609.05        40.55381
609.48        41.13624
609.92        41.47956
610.35        41.70849
610.78        43.79787
611.21        44.25393
611.64        42.80031
612.07        43.42849
612.50        43.91082
612.94        44.41048
613.37        44.28048
613.80        44.73838
614.23        45.42913
614.66        45.56763
615.09        45.75543
615.52        46.05352
615.96        46.52202
616.39        46.91066
616.82        46.39905
617.25        46.59103
617.68        47.26474
618.11        47.91581
618.54        48.34644
618.97        48.17934
619.40        47.70578
619.84        47.86059
620.27        48.75245
620.70        49.45346
621.13        49.80678
621.56        49.40398
621.99        48.56487
622.42        49.21246
622.85        50.92825
623.28        50.94596
623.71        50.29569
624.14        50.18121
624.57         49.9228
625.00        49.85838
625.43        49.73711
625.86        49.23577
626.29        49.31479
626.72        49.38836
627.15        49.20477
627.58        49.18063
628.01           49.14
628.44        49.10563
628.87        49.08738
629.30        48.84032
629.73        48.90218
630.16        48.63323
630.59        48.20161
631.02        47.68065
631.45        47.13629
631.88        46.62783
632.31         46.1751
632.74        45.77296
633.17         45.3979
633.60        45.00925
634.03        44.59644
634.46        44.17467
634.89         43.7549
635.32        43.35236
635.75        42.97031
636.18         42.5999
636.61         42.2265
637.04         41.8274
637.47        41.39418
637.89        40.93683
638.32        40.46289
638.75        40.01495
639.18        39.61335
639.61        39.26063
640.04         38.9432
640.47         38.6312
640.90        38.32015
641.33        38.01754
641.76        37.74082
642.18         37.5739
642.61         37.5246
643.04        37.47848
643.47        37.37873
643.90        37.62214
644.33        37.41801
644.76        37.41175
645.18        37.38546
645.61        37.37986
646.04        37.39998
646.47        37.43452
646.90        37.53319
647.33        37.76215
647.75        38.14814
648.18        38.65208
648.61         39.1521
649.04        39.59386
649.47          39.882
649.89        39.66367
650.32        39.29236
650.75        39.70626
651.18        40.89414
651.61        42.16447
652.03        43.13217
652.46        43.57504
652.89        43.78037
653.32         43.7282
653.74        43.66193
654.17        45.60629
654.60        46.40561
655.03        45.45506
655.46        46.44845
655.88        50.25006
656.31        53.30297
656.74        120.5099
657.16        78.11317
657.59        27.61502
658.02        21.34812
658.45         37.7762
658.87        49.01979
659.30        51.64956
659.73        51.49367
660.15        50.24926
660.58        52.12854
661.01        53.95693
661.44         52.9167
661.86        52.66372
662.29        52.66328
662.72        53.42023
663.14        54.78138
663.57        55.01864
664.00        54.30528
664.42        54.31838
664.85        55.13092
665.27        55.71452
665.70        55.89916
666.13        55.98928
666.55        55.96942
666.98        55.76138
667.41        55.51017
667.83        55.48822
668.26        55.75309
668.69        56.19437
669.11        56.63377
669.54        57.04567
669.96        56.83901
670.39        56.57593
670.82        56.25673
671.24        56.08581
671.67        56.20023
672.09        56.64827
672.52        57.19553
672.94        57.81561
673.37        57.45499
673.80        57.33306
674.22         57.2659
674.65        57.28847
675.07        57.41379
675.50         57.5165
675.92        57.59495
676.35        57.73823
676.77        57.94259
677.20        58.11663
677.62        58.26287
678.05        58.39468
678.47        58.49957
678.90        58.58414
679.32        58.65199
679.75        58.60156
680.17        58.67047
680.60        58.68273
681.02        58.68406
681.45        58.61445
681.87        58.48785
682.30        58.31706
682.72        58.19113
683.15        58.28109
683.57        58.61828
684.00         59.0215
684.42        59.56606
684.85        59.87196
685.27        59.93879
685.70        59.83725
686.12        59.63552
686.54        59.50573
686.97        59.49191
687.39        59.49845
687.82        59.50788
688.24        59.70125
688.66        59.97668
689.09        59.96253
689.51        59.72598
689.94        59.72324
690.36        59.99632
690.78        60.19858
691.21        60.29348
691.63        60.55131
692.06        60.85843
692.48        60.73817
692.90        60.32027
693.33        60.20302
693.75        60.43441
694.17        60.73065
694.60        61.01496
695.02        61.18478
695.44        61.19712
695.87        61.42231
696.29        61.81707
696.71        61.55663
697.14        60.86474
697.56        61.20116
697.98        62.33068
698.41        62.20268
698.83        61.45682
699.25        61.02633
699.68        61.16401
700.10        61.18757
700.52        61.10811
700.94        61.27331
701.37        61.63142
701.79        62.00901
702.21        62.32866
702.64        62.63795
703.06        62.85076
703.48        62.82888
703.90        62.57677
704.33        62.13875
704.75        61.66978
705.17        61.50096
705.59        61.71088
706.01        62.10635
706.44        62.51206
706.86        63.17459
707.28        63.17015
707.70        63.22625
708.12         63.1461
708.55        63.00082
708.97         62.8162
709.39        62.61955
709.81        62.46675
710.23        62.40759
710.66        62.46257
711.08        62.66713
711.50        62.91538
711.92        63.03173
712.34         62.9773
712.76        62.78444
713.19         62.5725
713.61        62.56444
714.03        62.79398
714.45        63.19629
714.87        63.59667
715.29        63.71992
715.71        63.51432
716.13        63.07253
716.56         62.5908
716.98        62.41107
717.40          62.609
717.82        63.07809
718.24        63.63372
718.66        63.96486
719.08        63.98498
719.50        63.77773
719.92        63.45663
720.34        63.26667
720.76        63.28402
721.19        63.14719
721.61        63.35376
722.03        63.46355
722.45         63.6063
722.87        63.78878
723.29        63.98569
723.71         64.1334
724.13        64.20936
724.55        64.22092
724.97         64.2048
725.39        64.20828
725.81        64.24091
726.23        64.33383
726.65        64.46436
727.07        64.34891
727.49        64.37115
727.91        64.25212
728.33         64.1452
728.75        64.10204
729.17        64.13981
729.59        64.22125
730.01        64.34142
730.43        64.49567
730.85        64.67213
731.27        64.89856
731.69         65.0916
732.10        65.09532
732.52        64.89167
732.94        64.56646
733.36        64.29702
733.78        64.24656
734.20        64.45406
734.62        65.14359
735.04        66.06716
735.46        66.13747
735.88        65.56004
736.30        65.89034
736.72        67.05905
737.13         67.5038
737.55        67.01325
737.97        66.78916
738.39        66.92001
738.81        66.38013
739.23        65.52156
739.65        66.21358
740.06        68.00739
740.48        68.20039
740.90        66.91006
741.32        66.04044
741.74        66.61187
742.16        66.80464
742.57        66.89284
742.99        67.59774
743.41        68.67815
743.83        69.18264
744.25        69.02875
744.67        68.74427
745.08        68.54644
745.50        68.51054
745.92        68.72587
746.34        69.22883
746.75        69.84422
747.17         70.1512
747.59        70.08035
748.01        69.89281
748.42        69.74394
748.84        69.58123
749.26        69.63068
749.68        70.38898
750.09        71.59095
750.51        72.41521
750.93        72.61179
751.35        72.08289
751.76        71.15797
752.18        70.82397
752.60        71.13557
753.01        71.34697
753.43        71.38619
753.85        71.65292
754.27        72.12466
754.68         72.6039
755.10        73.01389
755.52        73.38065
755.93        73.65499
756.35        73.76347
756.77        73.78238
757.18        73.73429
757.60        73.66206
758.02        73.87757
758.43        74.14692
758.85        73.55264
759.26         72.4791
759.68        71.99575
760.10        72.92725
760.51        73.56074
760.93        73.71728
761.34        73.31414
761.76        72.57199
762.18         71.8393
762.59        71.44194
763.01        71.81725
763.42        72.89093
763.84        73.64639
764.26        73.91573
764.67        74.04592
765.09        74.05717
765.50        74.00669
765.92        73.83521
766.33        72.94617
766.75        71.70599
767.16        71.27061
767.58        71.82258
768.00        73.00118
768.41        74.52955
768.83        75.87902
769.24        76.44825
769.66        75.69468
770.07        74.14368
770.49        72.56383
770.90        71.46175
771.32        72.48065
771.73        74.90128
772.15        74.62437
772.56        72.02763
772.97        71.38411
773.39         72.6863
773.80        73.15437
774.22        72.58707
774.63        72.49014
775.05        72.83847
775.46        73.08674
775.88        73.15158
776.29        73.10016
776.70        72.99545
777.12        73.04472
777.53        73.28568
777.95        73.58875
778.36        73.81962
778.77        73.75672
779.19        73.40654
779.60        72.86005
780.02        72.32215
780.43        72.20879
780.84        72.64841
781.26        73.03462
781.67        73.34288
782.09        74.55866
782.50        76.08549
782.91        75.27867
783.33        72.81105
783.74        71.99449
784.15        72.99809
784.57        73.68352
784.98        73.74685
785.39        73.78048
785.81        73.71207
786.22        73.25289
786.63        72.69989
787.04        72.63037
787.46        73.09917
787.87        73.91225
788.28        74.80558
788.70        75.28091
789.11        75.20652
789.52         74.8828
789.93        74.46342
790.35        73.86511
790.76        73.31117
791.17        73.39994
791.58        74.01157
792.00        74.34917
792.41        74.26712
792.82        74.13871
793.23        74.12339
793.65        73.91499
794.06         73.7316
794.47         74.7106
794.88        76.20299
795.29        75.77514
795.71        73.65118
796.12        71.92209
796.53        71.09933
796.94        70.65003
797.35        70.74398
797.76        71.93594
798.18        73.65777
798.59        74.64023
799.00        74.51967
799.41        73.65878
799.82        72.50776
800.23        71.79443
800.64        71.72198
801.06        71.98386
801.47        72.49151
801.88        72.99777
802.29        73.38065
802.70        73.74724
803.11        74.01843
803.52         74.0371
803.93         73.7982
804.34        73.29948
804.75        72.75936
805.17        72.60756
805.58        72.96678
805.99        73.54922
806.40        74.08389
806.81        74.53753
807.22        74.58122
807.63        73.38729
808.04        71.51934
808.45        70.68687
808.86        71.09349
809.27        71.95495
809.68         72.8791
810.09        73.43786
810.50        73.41365
810.91        72.96283
811.32        72.33153
811.73        71.91329
812.14        71.82613
812.55        71.90284
812.96        72.11284
813.37        72.40409
813.78        72.71635
814.19        73.12018
814.60        73.40147
815.01        73.21323
815.42        72.52805
815.83        71.41141
816.24        70.29654
816.65         69.9534
817.05         70.6012
817.46        71.98424
817.87        73.54108
818.28        74.25846
818.69        73.86065
819.10        72.61089
819.51        71.11202
819.92         70.4029
820.33        70.76615
820.74        71.84216
821.14        73.11364
821.55        73.74976
821.96        73.48988
822.37        72.43191
822.78        71.06871
823.19        70.31281
823.60        70.36067
824.00        70.90454
824.41        71.59101
824.82         72.0016
825.23         71.9474
825.64        71.59809
826.04        71.14686
826.45        70.85891
826.86        70.80445
827.27        70.86006
827.68        70.96028
828.08        71.03977
828.49        71.00864
828.90        70.96349
829.31        70.85946
829.72        70.60369
830.12        70.23589
830.53        69.77116
830.94        69.41667
831.35        69.44968
831.75        69.94952
832.16         70.7835
832.57        71.76357
832.97        72.47064
833.38        72.69427
833.79        72.53901
834.20        72.21307
834.60        72.04408
835.01        72.14631
835.42        72.41265
835.82        72.68633
836.23         72.6345
836.64        72.22269
837.04        71.58621
837.45        70.95067
837.86        70.66521
838.26        70.81836
838.67        71.27102
839.08        71.83646
839.48        72.17471
839.89        72.14725
840.29        71.87515
840.70         71.4768
841.11        71.11488
841.51        70.85927
841.92        70.63988
842.33        70.48064
842.73        70.43939
843.14        70.47764
843.54        70.61409
843.95        70.74509
844.35        70.75098
844.76        70.58922
845.17        70.31904
845.57        69.98625
845.98        69.67023
846.38        69.40829
846.79        69.15501
847.19        68.99747
847.60        69.00613
848.00        69.22055
848.41        69.58923
848.81        69.99547
849.22        70.18885
849.62        70.16425
850.03        69.97017
850.43        69.77511
850.84        69.82822
851.24        70.22534
851.65        70.71472
852.05        71.26842
852.46        71.66994
852.86        71.86553
853.27        71.99756
853.67        71.76856
854.07        70.82172
854.48        69.25933
854.88        67.21281
855.29         65.4128
855.69        64.92754
856.10        65.93575
856.50        68.31882
856.90        71.28663
857.31        72.98977
857.71        72.83228
858.12        71.27383
858.52        69.22582
858.92        67.88882
859.33        67.53466
859.73           67.84
860.13        68.59208
860.54        69.34217
860.94        69.93135
861.34        70.48915
861.75        70.97816
862.15        71.40633
862.55        71.74291
862.96        71.92944
863.36        72.00648
863.76         72.0596
864.17         72.1222
864.57         72.2347
864.97        72.42706
865.38        72.72826
865.78        73.17345
866.18        73.66381
866.58        74.15208
866.99        74.54643
867.39        74.85266
867.79         75.1203
868.19        75.16557
868.60        74.66347
869.00        73.60424
869.40        72.11794
869.80         70.8642
870.21        70.84245
870.61        72.32482
871.01        75.01925
871.41         78.0413
871.81        79.86257
872.22        80.06355
872.62        79.04099
873.02        77.60174
873.42        77.26303
873.82        78.12173
874.22        79.26771
874.63        80.33495
875.03        80.61993
875.43        79.78936
875.83        79.36969
876.23        77.17173
876.63        75.91384
877.03        75.33356
877.44        75.57702
877.84         106.958
878.24        82.73409
878.64        83.61149
879.04         84.9901
879.44         79.4768
879.84        76.88074
880.24        83.06116
880.64        85.83505
881.04        86.50513
881.44        86.59924
881.84        85.65141
882.24        83.84309
882.65        82.18667
883.05        81.51148
883.45        81.95969
883.85        83.64061
884.25        85.92848
884.65        87.32516
885.05        87.37039
885.45        86.55881
885.85        85.50236
886.25        85.05298
886.65        85.41015
887.05        86.23923
887.45        87.29344
887.85        88.15694
888.25        88.62254
888.65        88.85555
889.04        88.80325
889.44        88.40955
889.84        87.71558
890.24        86.73164
890.64        85.74965
891.04        85.22917
891.44        85.24777
891.84        85.71305
892.24        86.30943
892.64        86.43375
893.04        85.98863
893.44        85.25826
893.83        84.56657
894.23        84.38367
894.63        84.78642
895.03         85.5139
895.43        86.54506
895.83         87.8269
896.23        89.19682
896.63        90.67169
897.02         91.6556
897.42         91.2033
897.82        89.27681
898.22        86.27287
898.62        83.28777
899.01        81.92326
899.41        82.50061
899.81        84.48775
900.21        87.02203
900.61         88.6875
901.00        89.04057
901.40        88.48676
901.80         87.5117
902.20        86.87148
902.59        86.80733
902.99        87.08424
903.39        87.41139
903.79        87.33607
904.18        86.77151
904.58        85.97257
904.98        85.35901
905.38        85.53249
905.77        86.54146
906.17        88.08578
906.57        89.66776
906.96        90.62461
907.36        90.72291
907.76        90.16824
908.15        89.21257
908.55        88.17318
908.95        87.26395
909.34        86.40662
909.74        85.64844
910.14        84.86068
910.53        84.06032
910.93        83.37983
911.33        83.03645
911.72        83.39447
912.12        84.36175
912.52        85.63251
912.91         86.8866
913.31        87.77185
913.70        88.27387
914.10        88.49019
914.49        88.25257
914.89        87.26077
915.29        85.66243
915.68        83.66977
916.08        82.11419
916.47        81.70432
916.87        82.44543
917.26        84.13684
917.66         86.0224
918.05        86.84934
918.45        86.29227
918.84        84.76814
919.24        83.08426
919.64        82.43811
920.03        83.14282
920.42        84.81015
920.82        86.86118
921.21        88.40822
921.61        88.94873
922.00        88.79927
922.40        88.13795
922.79        87.23466
923.19        86.30576
923.58        85.10716
923.98        83.65047
924.37        82.73465
924.77        82.83303
925.16        80.35125
925.55        81.92808
925.95        82.61953
926.34         84.3345
926.74        86.55225
927.13        88.71555
927.52        89.59644
927.92        89.02648
928.31        87.42373
928.70        85.32896
929.10        83.69789
929.49        82.78806
929.89        82.34336
930.28        82.46411
930.67        83.31323
931.07        84.68395
931.46        86.62329
931.85        88.31228
932.24        88.51132
932.64          87.034
933.03        84.03684
933.42        80.42361
933.82        78.20391
934.21        77.95094
934.60         79.1337
934.99        80.63746
935.39        81.32993
935.78        81.04845
936.17        79.50621
936.56        76.67085
936.96        78.04527
937.35        77.16361
937.74        78.84258
938.13        80.39178
938.53        81.72126
938.92         82.9007
939.31        84.21901
939.70        85.32338
940.09        85.13278
940.49        83.50211
940.88        80.95471
941.27        78.59499
941.66        77.72009
942.05        78.42612
942.44        80.29353
942.84        82.66297
943.23        84.37679
943.62        84.91423
944.01        84.59185
944.40        83.68298
944.79        82.61834
945.18        81.54761
945.57         80.2515
945.97        78.86492
946.36        77.80608
946.75        77.37232
947.14        77.56613
947.53        78.03375
947.92        78.32368
948.31        78.37151
948.70        78.25563
949.09        78.13911
949.48        78.37657
949.87        79.03475
950.26        79.91214
950.65        80.70731
951.04        81.01583
951.43        80.76325
951.82          80.106
952.21        79.21255
952.60        78.39986
952.99        77.78735
953.38         77.2358
953.77        76.84636
954.16        76.74699
954.55        76.92077
954.94        77.43668
955.33        77.85925
955.72        77.42791
956.11        76.03438
956.50          73.852
956.89        71.79399
957.28        71.54953
957.66        73.59966
958.05        77.17842
958.44        81.04346
958.83        83.33975
959.22        83.59145
959.61         82.2711
960.00        80.12482
960.39        78.40025
960.78          77.522
961.16        77.17993
961.55        76.94656
961.94        76.12379
962.33        74.61737
962.72        72.85038
963.11         71.3407
963.49        70.67445
963.88        70.92163
964.27        71.90913
964.66        73.24725
965.04        74.11193
965.43         74.0932
965.82        73.50147
966.21        72.78598
966.60        72.56316
966.98        72.97534
967.37        73.74622
967.76        74.69965
968.15        75.46926
968.53        75.85385
968.92        75.92338
969.31        75.70454
969.69        75.17723
970.08        74.40114
970.47        73.42081
970.86        72.32941
971.24        71.32513
971.63        70.53188
972.02        69.94125
972.40        69.71616
972.79        70.08314
973.17        71.13092
973.56        72.69257
973.95        74.35534
974.33        75.29541
974.72        75.14657
975.11        74.08302
975.49        72.69048
975.88        71.84341
976.26        71.66138
976.65        71.98444
977.04         72.2232
977.42        71.09547
977.81        68.41913
978.19        64.90117
978.58        62.13591
978.96        61.61671
979.35        63.52344
979.74         67.5729
980.12        72.97061
980.51        76.72047
980.89        77.75496
981.28        76.70744
981.66        74.75491
982.05        73.47325
982.43        73.19315
982.82        73.34923
983.20        73.88096
983.59        74.78455
983.97        76.05996
984.35          77.875
984.74        79.60401
985.12        80.05017
985.51        78.52616
985.89        75.19875
986.28        71.17354
986.66        68.18021
987.04        66.98551
987.43        67.22074
987.81        67.89055
988.20        67.68308
988.58        66.14343
988.96        62.94685
989.35        58.76904
989.73        57.29263
990.12        60.90639
990.50        67.94277
990.88        73.68922
991.27        74.49609
991.65        70.93373
992.03        64.09574
992.42        56.83706
992.80         54.3312
993.18         57.7891
993.56        64.28349
993.95        70.89162
994.33         74.9397
994.71        75.95187
995.10        75.29199
995.48        73.40702
995.86        70.69579
996.24        67.40998
996.63        62.98375
997.01        58.42626
997.39        57.03318
997.77        60.09493
998.15         67.0035
998.54         74.2041
998.92        76.76225
999.30        73.33199
999.68        65.07131
1000.06        54.49701
1000.45        47.72304
1000.83        47.03355
1001.21        50.24133
1001.59        55.16359
1001.97        59.61035
1002.35        63.11742
1002.73         66.8619
1003.12        69.84181
1003.50        68.91399
1003.88        63.30395
1004.26        54.91452
1004.64        47.28802
1005.02        43.18868
1005.40        42.64072
1005.78        45.41353
1006.16        52.59052
1006.54        62.04568
1006.92        68.31133
1007.30        70.64536
1007.69        70.67125
1008.07        70.29398
1008.45        69.69605
1008.83        67.80348
1009.21         60.7829
1009.59        33.50626
1009.97       -47.63538
1010.35       -165.1159
1010.73       -149.2807
1011.11       -76.88644
1011.49       -24.24293
1011.86        12.78501
1012.24        33.68872
1012.62        42.64011
1013.00        44.31738
1013.38        40.90506
1013.76        33.87454
1014.14          29.311
1014.52        32.64975
1014.90        44.65041
1015.28        61.91589
1015.66        71.86869
1016.04        66.93047
1016.41        50.89341
1016.79        33.64398
1017.17        24.15564
1017.55        22.51212
1017.93        23.80268
1018.31        26.42586
1018.69        30.43437
1019.06        36.00678
1019.44        43.68101
1019.82        54.68787
1020.20        66.62476
1020.58        74.49711
1020.95        72.67921
1021.33        34.98032
1021.71        764.5269
1022.09        183.6502
1022.46        157.0155
1022.84        152.3438
1023.22        158.6578
1023.60         184.457
1023.97        451.8429
1024.35       -3.300452
1024.73        45.54036
