SpectraSmart Spectrum 2.9.0.0
--------- Device Information -----------
Spectrum Name :  反射率_0
Saving Time :  2024/04/26 00:31:57
Spectro-Module Model Name : SE2030-DUVN
Spectro-Module Serial Number : OS361AC55029948
Wavelength Start : 200
Wavelength End : 1025
Wavelength Unit : Wavelength(nm)
Spectrum Unit : Reflectance(%)
-----------Spectrum Setting ------------
Integration Time : 20ms
Average : 10
Boxcar : 0
Background removal :  enabled
linearity correction :  enabled
SC :  disabled
Intensity correction :  disabled
DWT denoise :  enabled
savitzky-golay :  disabled
FFT :  disabled
Running average :  disabled
Kalman :  disabled
High pass :  disabled
---------------BEGIN--------------------
Wavelength(nm)             Reflectance(%)
200.29               0
200.75        88.37503
201.21        81.43343
201.67        73.00494
202.13        68.32238
202.58         68.1655
203.04        71.39103
203.50        76.11568
203.96        79.07327
204.42         79.2506
204.88        77.70967
205.34        76.16917
205.80        76.48145
206.26        79.46829
206.72        86.95399
207.18        100.2548
207.64        105.0065
208.10        85.01686
208.55        61.88115
209.01        50.59158
209.47         49.7037
209.93         55.1614
210.39        65.64577
210.85        77.85016
211.31        83.59717
211.77        79.86017
212.23        69.60562
212.69        58.36273
213.14        54.76194
213.60        60.45492
214.06        72.76466
214.52        87.09631
214.98        96.46263
215.44        98.80552
215.90        96.44942
216.36        91.83697
216.81        88.11299
217.27        86.63737
217.73        86.43306
218.19        86.17123
218.65        84.10602
219.11        79.50977
219.57        71.80063
220.02        62.67382
220.48         59.7186
220.94        66.16915
221.40         79.0706
221.86        89.68819
222.32        89.58077
222.77        80.40912
223.23        67.75043
223.69        56.88367
224.15        53.15838
224.61        56.09198
225.06        63.02866
225.52        70.73567
225.98        75.13211
226.44        75.36797
226.90        73.12043
227.36        70.27262
227.81        69.31272
228.27        71.03441
228.73        74.13837
229.19        77.53835
229.65        79.73485
230.10        80.32823
230.56        80.16174
231.02        79.62669
231.48        79.13838
231.93        78.77139
232.39        78.38699
232.85        78.06899
233.31        78.08266
233.77        78.41908
234.22        79.08722
234.68        79.61232
235.14         79.0983
235.60        77.41061
236.05        74.92379
236.51        72.38107
236.97        70.73208
237.43        70.16031
237.88        70.53213
238.34        71.45583
238.80        72.24075
239.26        72.39095
239.71        72.26743
240.17        71.58772
240.63        70.53996
241.08        69.44417
241.54        68.25628
242.00        67.41222
242.46         67.4619
242.91        69.01285
243.37         73.3122
243.83        87.58759
244.28        137.0276
244.74        198.0369
245.20        170.1754
245.66        141.9174
246.11         134.437
246.57        139.6624
247.03         162.351
247.48        226.7769
247.94         181.224
248.40        109.0517
248.85        88.43867
249.31        82.81179
249.77        82.41373
250.22        84.80973
250.68        90.01459
251.14        97.51695
251.59        101.2974
252.05        96.26535
252.51        85.72072
252.96        74.93661
253.42        68.67216
253.88        66.38588
254.33        66.40066
254.79        68.81957
255.25        73.13187
255.70         78.1152
256.16        83.35464
256.62        87.01514
257.07        87.25779
257.53        84.94789
257.99        80.80125
258.44        76.39774
258.90        74.50534
259.35        74.31999
259.81        74.93085
260.27        74.80645
260.72        72.48227
261.18        68.66367
261.63        63.94571
262.09        59.64174
262.55         56.5354
263.00        54.60491
263.46        53.58836
263.91        52.83367
264.37        51.99386
264.83        50.86295
265.28         49.4641
265.74        48.16087
266.19        47.18472
266.65        46.71472
267.11        46.54676
267.56        46.33513
268.02        45.70237
268.47        44.55014
268.93        43.03709
269.38        41.44705
269.84        40.48372
270.30        40.31575
270.75        40.74616
271.21        41.34648
271.66        41.46819
272.12         40.9545
272.57        39.99434
273.03        38.95351
273.48         38.2924
273.94        38.14414
274.39          38.285
274.85        38.46304
275.31        38.28763
275.76        37.66832
276.22        36.79795
276.67        35.84501
277.13        35.16088
277.58        34.75794
278.04         34.5605
278.49        34.37993
278.95        34.04462
279.40        33.47587
279.86        32.81247
280.31        32.10127
280.77        31.53879
281.22        31.11866
281.68        30.81594
282.13        30.56444
282.59        30.33006
283.04        30.07623
283.50        29.85401
283.95        29.61761
284.41        29.33226
284.86        28.97893
285.32        28.57084
285.77        28.18008
286.22        27.98763
286.68         27.9912
287.13        28.11224
287.59        28.16983
288.04        27.87328
288.50        27.21998
288.95        26.30229
289.41        25.36451
289.86        24.65729
290.32        24.29539
290.77        24.16862
291.22        24.19628
291.68        24.21704
292.13        24.17767
292.59        24.12253
293.04        24.08534
293.50        24.12327
293.95        24.23684
294.40        24.38067
294.86        24.49752
295.31        24.51356
295.77        24.42361
296.22        24.26187
296.68        24.09177
297.13        23.98463
297.58        23.98245
298.04        24.08083
298.49        24.26076
298.95        24.52473
299.40        24.84693
299.85        25.21448
300.31        25.59376
300.76        25.94849
301.21        26.24674
301.67        26.51069
302.12        26.69018
302.58        26.76451
303.03        26.72687
303.48        26.60527
303.94        26.51394
304.39        26.59444
304.84        26.87193
305.30        27.28679
305.75        27.69348
306.20        27.87614
306.66        27.81112
307.11        27.56581
307.57         27.2694
308.02        27.04488
308.47        26.95875
308.93        26.96253
309.38         27.0448
309.83        27.21859
310.29        27.45216
310.74        27.73015
311.19        27.97189
311.65        28.04975
312.10         27.9415
312.55        27.68777
313.00         27.3524
313.46        27.05678
313.91        26.83923
314.36        26.68431
314.82        26.61019
315.27        26.62916
315.72        26.73523
316.18        26.92085
316.63        27.12579
317.08        27.22569
317.53        27.18657
317.99        27.02624
318.44        26.82136
318.89        26.70286
319.35        26.69574
319.80        26.76958
320.25        26.83544
320.70         26.7475
321.16        26.47864
321.61        26.08249
322.06        25.66451
322.51        25.38036
322.97         25.2588
323.42        25.26349
323.87        25.30297
324.32        25.22597
324.78        24.99243
325.23        24.65393
325.68        24.29465
326.13        24.05325
326.59        23.96176
327.04         23.9934
327.49        24.07188
327.94        24.07507
328.39        23.96948
328.85        23.78398
329.30        23.61044
329.75        23.56839
330.20        23.69035
330.66        23.91814
331.11        24.18801
331.56        24.35661
332.01        24.37996
332.46        24.27992
332.92        24.11726
333.37        24.03089
333.82        24.05593
334.27        24.17164
334.72        24.28023
335.17        24.21819
335.63        23.95435
336.08         23.5493
336.53        23.16784
336.98        23.07189
337.43        23.31236
337.88         23.8115
338.34        24.34958
338.79        24.61064
339.24        24.48976
339.69        24.08066
340.14         23.5948
340.59        23.40179
341.05        23.58796
341.50        24.02703
341.95        24.52757
342.40        24.81663
342.85        24.82813
343.30         24.6623
343.75         24.3999
344.20        24.17871
344.66        24.05131
345.11        23.93741
345.56        23.85382
346.01        23.82632
346.46        23.84377
346.91        23.92875
347.36        23.96425
347.81        23.75383
348.26        23.29338
348.72        22.67833
349.17        22.10019
349.62        21.95462
350.07        22.31565
350.52        23.03439
350.97        23.86967
351.42        24.45429
351.87        24.68036
352.32        24.65153
352.77        24.44743
353.22        24.20236
353.67        23.97686
354.13          23.734
354.58         23.4951
355.03        23.33621
355.48        23.26854
355.93        23.29624
356.38        23.35283
356.83        23.31407
357.28        23.15167
357.73        22.89559
358.18        22.61847
358.63        22.43801
359.08        22.38344
359.53        22.42341
359.98        22.48388
360.43        22.45098
360.88        22.30115
361.33        22.06617
361.78        21.83304
362.23        21.74273
362.68        21.81211
363.13          21.976
363.58        22.12158
364.03        22.07687
364.48        21.80704
364.93        21.38455
365.38        20.88696
365.83        20.43603
366.28        20.08567
366.73        19.80577
367.18        19.62243
367.63        19.57528
368.08        19.65092
368.53        19.83115
368.98        20.02753
369.43        20.09654
369.88        20.00776
370.33        19.80121
370.78        19.53722
371.23        19.32829
371.68        19.21498
372.13        19.15967
372.58        19.16819
373.03        19.24674
373.48        19.37783
373.93        19.56124
374.38        19.72291
374.83        19.74486
375.28        19.60958
375.72          19.338
376.17        19.04352
376.62        18.87602
377.07        18.87359
377.52        18.98358
377.97        19.13281
378.42        19.20125
378.87        19.15329
379.32        19.03433
379.77        18.87049
380.22        18.69489
380.67        18.52332
381.11        18.34347
381.56         18.1718
382.01        18.04748
382.46        17.97745
382.91        17.95552
383.36        17.95083
383.81        17.90726
384.26        17.81415
384.71        17.69266
385.15        17.56062
385.60        17.45751
386.05        17.38362
386.50        17.31498
386.95        17.25774
387.40        17.22497
387.85        17.21517
388.29        17.22817
388.74        17.22496
389.19         17.1242
389.64        16.92238
390.09        16.63669
390.54        16.36404
390.98         16.2691
391.43         16.3906
391.88        16.66139
392.33        16.94486
392.78        17.03919
393.23        16.91501
393.67        16.63777
394.12        16.34736
394.57        16.18066
395.02        16.17053
395.47        16.26763
395.91        16.41467
396.36        16.48963
396.81        16.45797
397.26         16.3457
397.71        16.20687
398.15        16.10166
398.60         16.0679
399.05        16.08878
399.50        16.10007
399.95        15.96737
400.39        15.75074
400.84        15.43087
401.29        15.13804
401.74        15.07563
402.18        15.29748
402.63        15.71474
403.08        16.17221
403.53        16.42274
403.97        16.40288
404.42        16.18498
404.87        15.87313
405.32        15.65081
405.76        15.57823
406.21        15.60201
406.66        15.67361
407.11        15.73074
407.55        15.75696
408.00        15.77305
408.45        15.78084
408.90        15.76757
409.34        15.73082
409.79        15.66558
410.24        15.59442
410.68        15.55289
411.13        15.55082
411.58        15.58584
412.03        15.62617
412.47        15.61841
412.92        15.54279
413.37        15.41742
413.81        15.30049
414.26        15.29583
414.71         15.4093
415.15        15.61014
415.60        15.79996
416.05        15.83972
416.49        15.70009
416.94        15.43975
417.39        15.14288
417.83        14.95487
418.28         14.9269
418.73        15.00019
419.17        15.14023
419.62        15.28856
420.07        15.41955
420.51        15.55369
420.96        15.64309
421.41        15.60264
421.85        15.42481
422.30        15.15953
422.74        14.89339
423.19        14.78571
423.64        14.84954
424.08        15.05073
424.53        15.29761
424.98        15.45249
425.42          15.474
425.87         15.3924
426.31        15.25855
426.76          15.199
427.21        15.21865
427.65        15.17922
428.10        15.13119
428.54        15.25012
428.99        15.53635
429.44        15.91115
429.88        16.22317
430.33         16.2835
430.77        16.06512
431.22        15.63037
431.66        15.16694
432.11        15.02614
432.56        15.23561
433.00        15.60804
433.45        15.96915
433.89        16.22324
434.34        16.26427
434.78        15.98205
435.23        15.59672
435.67        15.57647
436.12        15.86575
436.57        15.92026
437.01        15.70933
437.46         15.5784
437.90        15.56994
438.35        15.58732
438.79        15.59573
439.24        15.58615
439.68        15.55931
440.13        15.45495
440.57         15.3368
441.02        15.51106
441.46        15.86726
441.91        15.82877
442.35        15.44334
442.80        15.25853
443.24        15.24825
443.69         15.1996
444.13          15.089
444.58        14.88373
445.02         14.6601
445.47        14.72292
445.91        14.98992
446.36        15.05579
446.80        14.88375
447.24         14.6952
447.69        14.56102
448.13        14.49261
448.58        14.51469
449.02        14.61475
449.47        14.73383
449.91         14.7754
450.36        14.72077
450.80        14.59857
451.25        14.46852
451.69        14.41166
452.13        14.45042
452.58        14.54383
453.02        14.65841
453.47        14.74005
453.91        14.77545
454.36        14.78944
454.80        14.77823
455.24        14.73315
455.69        14.66927
456.13        14.58044
456.58        14.52655
457.02        14.57551
457.46        14.74012
457.91        14.99035
458.35        15.24996
458.79        15.39033
459.24        15.39239
459.68        15.27967
460.13        15.14049
460.57        15.07376
461.01           15.12
461.46        15.23963
461.90        15.37695
462.34        15.43542
462.79        15.38994
463.23        15.26771
463.68        15.13723
464.12        15.11412
464.56        15.22531
465.01        15.43682
465.45        15.63523
465.89        15.71246
466.34        15.65976
466.78        15.42979
467.22        15.15104
467.67        15.18337
468.11        15.48383
468.55        15.58992
468.99        15.47169
469.44        15.39667
469.88        15.42314
470.32        15.59413
470.77        15.83709
471.21        15.91637
471.65        15.80195
472.10        15.66602
472.54        15.56224
472.98        15.52616
473.42        15.58088
473.87        15.71693
474.31        15.88755
474.75        16.01462
475.20        16.07906
475.64        16.09188
476.08        16.08261
476.52        16.09585
476.97        16.14507
477.41        16.22193
477.85        16.29167
478.29        16.33249
478.74        16.34216
479.18        16.24785
479.62        16.10789
480.06         16.2826
480.50        16.44481
480.95        16.62684
481.39        16.66208
481.83        16.63655
482.27        16.54395
482.72        16.26735
483.16        15.93219
483.60        15.93318
484.04        16.29156
484.48        16.55452
484.93        16.87021
485.37        17.27666
485.81        17.74673
486.25        17.91425
486.69        23.96288
487.14        19.08573
487.58        12.43669
488.02        15.03156
488.46         17.3058
488.90        17.31865
489.34        17.39917
489.79        17.14225
490.23        17.87186
490.67        18.39029
491.11        18.43039
491.55        18.28666
491.99        17.94035
492.43        17.69278
492.88        17.63396
493.32         17.7006
493.76        17.76258
494.20        17.97681
494.64        18.28034
495.08        18.62897
495.52        18.97886
495.96        19.28718
496.41        19.48541
496.85        19.55989
497.29        19.53638
497.73        19.26793
498.17        18.99906
498.61        19.19393
499.05        19.83304
499.49        19.95146
499.93        20.01886
500.37        20.07765
500.82        20.09184
501.26        20.28928
501.70        20.57244
502.14        20.76118
502.58        20.81297
503.02        20.86081
503.46        20.90345
503.90        20.84378
504.34        20.72623
504.78        20.67329
505.22        20.70745
505.66        20.80293
506.10        20.91747
506.54        20.97771
506.98        20.96719
507.42         20.9117
507.86         20.8694
508.30        20.92809
508.74        21.10019
509.18        21.34925
509.62        21.60693
510.06        21.76265
510.50        21.79049
510.94        21.73408
511.38         21.6415
511.82        21.58824
512.26        21.60047
512.70        21.64837
513.14        21.73604
513.58        21.87071
514.02        22.03047
514.46        22.20594
514.90        22.34304
515.34        22.32014
515.78        22.09592
516.22        21.86308
516.66        21.70577
517.10         21.3165
517.54        20.72463
517.98        21.51637
518.42        21.34531
518.86        21.71138
519.30         21.8929
519.74        22.11375
520.18        22.32283
520.62        22.40918
521.06        22.38428
521.50        22.25505
521.93        22.07859
522.37        21.96295
522.81        21.93686
523.25        21.97273
523.69        22.04265
524.13        22.10028
524.57        22.12794
525.01        22.14096
525.45        22.13694
525.89        22.10986
526.32        22.05951
526.76        21.98629
527.20        21.89989
527.64        21.82659
528.08        21.77636
528.52        21.72233
528.96        21.65441
529.40        21.61497
529.83        21.61434
530.27        21.42476
530.71        21.46081
531.15        21.36622
531.59        21.26987
532.03        21.16156
532.46        21.08782
532.90        21.12374
533.34        21.26613
533.78        21.48437
534.22        21.69311
534.66        21.76701
535.09        21.67819
535.53        21.47565
535.97        21.22722
536.41         21.0475
536.85        20.97361
537.28        20.97623
537.72        21.02398
538.16        21.06552
538.60        21.08403
539.04        21.08261
539.47        21.07863
539.91        21.14862
540.35        21.27502
540.79        21.35819
541.22        21.39256
541.66        21.45769
542.10        21.55096
542.54        21.61544
542.97        21.66905
543.41        21.77657
543.85        21.93919
544.29        22.15154
544.72         22.3508
545.16         22.4473
545.60        22.42934
546.04        22.32348
546.47        22.23857
546.91         22.3574
547.35        22.69774
547.79        23.19864
548.22        23.70844
548.66        23.96921
549.10        23.94168
549.53        23.74588
549.97        23.51734
550.41        23.40489
550.84        23.46461
551.28        23.66124
551.72        23.95261
552.15        24.25703
552.59        24.52956
553.03        24.78742
553.46        25.00334
553.90        25.15591
554.34        25.25086
554.77        25.26608
555.21        25.22531
555.65          25.249
556.08        25.36868
556.52        25.24755
556.96        25.47579
557.39        25.57385
557.83         25.7181
558.27        25.88276
558.70        26.06144
559.14        26.22603
559.57        26.35525
560.01        26.46567
560.45        26.53409
560.88        26.52677
561.32        26.46816
561.75        26.35875
562.19         26.2638
562.63        26.24561
563.06        26.31322
563.50        26.45284
563.93        26.62394
564.37        26.77323
564.80         26.8737
565.24        26.95038
565.68        27.00688
566.11        27.05169
566.55        27.11124
566.98        27.17527
567.42        27.26801
567.85        27.42043
568.29        27.65307
568.72        27.87497
569.16        28.09947
569.60        28.45878
570.03        28.82022
570.47        28.84862
570.90        28.66097
571.34         28.3989
571.77        28.72123
572.21        28.90448
572.64        28.86683
573.08        28.66635
573.51        27.48541
573.95        28.79606
574.38        30.91385
574.82        30.05448
575.25        29.98676
575.69        28.86368
576.12        28.31437
576.56        28.16481
576.99        28.90145
577.42        30.12887
577.86        30.14631
578.29        30.16225
578.73        31.75231
579.16        29.24992
579.60        26.59389
580.03        27.65728
580.47        29.55316
580.90         30.1234
581.33        29.57088
581.77         29.1658
582.20        32.15845
582.64        31.86779
583.07        27.05145
583.51        26.39996
583.94        25.84736
584.37         26.8555
584.81        28.00387
585.24        29.39556
585.68        30.16411
586.11        29.42778
586.54        27.51754
586.98        26.77941
587.41        26.96568
587.85         28.1885
588.28        28.98615
588.71        27.71767
589.15        26.75978
589.58         27.2114
590.01        27.45622
590.45        28.03303
590.88         28.0668
591.31        27.65918
591.75        27.40387
592.18        27.50133
592.61        28.26974
593.05        28.73952
593.48        29.99668
593.91        30.16143
594.35        27.80737
594.78        27.34302
595.21        27.36883
595.65        28.61815
596.08        29.61493
596.51        28.55677
596.94        28.01841
597.38        28.49929
597.81        29.77098
598.24        30.50144
598.68        30.20119
599.11        29.90812
599.54           31.26
599.97        32.20654
600.41        30.63196
600.84        31.06046
601.27        31.85005
601.70        31.65852
602.14        31.80412
602.57        31.67946
603.00        32.36655
603.43        33.54655
603.87        34.73193
604.30        34.87746
604.73        34.18638
605.16        33.89124
605.60        34.77581
606.03        35.68879
606.46        36.48454
606.89         36.6652
607.32        35.92383
607.76        36.46187
608.19        37.71553
608.62         37.5325
609.05        37.20727
609.48        37.70785
609.92        37.80865
610.35         37.9511
610.78         39.4739
611.21        40.25767
611.64        38.75264
612.07        39.47938
612.50        40.03236
612.94        40.60009
613.37        40.57085
613.80        40.83987
614.23        41.42914
614.66        41.51146
615.09        41.74392
615.52        41.99983
615.96        42.31378
616.39        42.68399
616.82        42.39153
617.25        42.16426
617.68        42.99824
618.11        43.55296
618.54        43.96365
618.97        43.92657
619.40        43.73566
619.84        43.36921
620.27         44.5972
620.70        45.03096
621.13        45.12081
621.56        44.94744
621.99        44.67707
622.42        45.26501
622.85        46.38547
623.28        46.09617
623.71        45.91916
624.14        45.84746
624.57        45.81263
625.00        45.68131
625.43        45.73706
625.86        45.30304
626.29        45.38385
626.72        45.43102
627.15         45.2139
627.58        45.15411
628.01        45.08002
628.44        44.93897
628.87        44.79727
629.30        44.52695
629.73        44.81673
630.16        44.64327
630.59        44.20865
631.02        43.71186
631.45        43.24125
631.88        42.83318
632.31        42.50723
632.74        42.25557
633.17         42.0312
633.60        41.75705
634.03        41.41165
634.46        41.02258
634.89         40.6081
635.32         40.1972
635.75        39.80567
636.18        39.42473
636.61         39.0625
637.04        38.73227
637.47        38.42861
637.89        38.14703
638.32        37.86366
638.75        37.56221
639.18        37.24134
639.61        36.91613
640.04        36.58337
640.47        36.23407
640.90        35.87518
641.33        35.50934
641.76        35.16963
642.18        34.96213
642.61        34.90092
643.04        34.87812
643.47        34.81867
643.90        35.05133
644.33         34.8301
644.76        34.76662
645.18        34.67826
645.61        34.63913
646.04        34.65735
646.47        34.70411
646.90        34.80601
647.33        34.98067
647.75        35.23876
648.18          35.605
648.61        35.96973
649.04        36.17098
649.47         36.1999
649.89         35.9927
650.32        35.80209
650.75        36.23188
651.18        37.22175
651.61        38.07175
652.03        38.55894
652.46        38.97297
652.89          39.499
653.32        39.52944
653.74        39.26429
654.17        40.86802
654.60        41.13304
655.03        40.37239
655.46        41.56799
655.88        44.51132
656.31        47.58253
656.74        111.1663
657.16        72.67548
657.59        25.54911
658.02        19.11096
658.45        33.18083
658.87        43.09044
659.30        45.82192
659.73        45.38824
660.15        43.77703
660.58        45.84847
661.01        47.47548
661.44        46.56487
661.86        46.35078
662.29        46.36517
662.72        46.98249
663.14        48.09369
663.57        48.35503
664.00        47.88938
664.42        47.98774
664.85        48.70651
665.27        49.23661
665.70        49.43801
666.13        49.55677
666.55        49.58017
666.98        49.43848
667.41        49.25812
667.83        49.27995
668.26        49.55659
668.69        49.99402
669.11        50.42289
669.54        50.81042
669.96        50.63552
670.39        50.37205
670.82        50.05249
671.24         49.9875
671.67        50.29046
672.09        50.74574
672.52         51.4158
672.94        52.01256
673.37        51.71057
673.80         51.7495
674.22        51.93174
674.65        52.07436
675.07        52.16683
675.50        52.22316
675.92        52.27483
676.35        52.38978
676.77        52.57624
677.20         52.7995
677.62        52.98887
678.05        53.15435
678.47        53.25621
678.90        53.38455
679.32        53.44857
679.75        53.47786
680.17        53.65214
680.60        53.84204
681.02          53.982
681.45        53.99068
681.87        53.85156
682.30         53.6826
682.72        53.57151
683.15        53.54204
683.57         53.6907
684.00        54.11097
684.42        54.86072
684.85        55.24131
685.27        55.24548
685.70        55.06742
686.12        54.82648
686.54         54.7916
686.97        55.03354
687.39        55.06765
687.82        55.52953
688.24        55.73726
688.66        55.74837
689.09        55.68273
689.51        55.61885
689.94        55.69934
690.36        55.95494
690.78        56.33708
691.21        56.73659
691.63        56.98469
692.06         57.0423
692.48           56.97
692.90        56.86771
693.33        56.87925
693.75        57.04559
694.17        57.32539
694.60        57.64713
695.02        57.88392
695.44        57.97153
695.87        58.07683
696.29        58.24237
696.71         58.1197
697.14        57.86687
697.56        58.37137
697.98         59.4059
698.41        59.37471
698.83        58.88177
699.25        58.60723
699.68        58.77968
700.10         58.8178
700.52        58.73653
700.94        58.85632
701.37        59.14538
701.79        59.46953
702.21        59.76444
702.64         60.0699
703.06        60.30957
703.48        60.35176
703.90        60.19628
704.33        59.89192
704.75        59.54565
705.17        59.40755
705.59        59.54347
706.01        59.78548
706.44        60.04317
706.86        60.66988
707.28        60.80052
707.70        61.13682
708.12        61.38997
708.55         61.3748
708.97         61.1352
709.39        60.98026
709.81        60.97754
710.23         60.9739
710.66        60.99175
711.08        61.19743
711.50        61.48475
711.92        61.61116
712.34        61.53975
712.76        61.33099
713.19        61.12023
713.61        61.15085
714.03        61.45832
714.45        61.96042
714.87        62.46752
715.29        62.68413
715.71         62.5485
716.13        62.15886
716.56        61.69928
716.98        61.49363
717.40         61.6212
717.82        61.98389
718.24        62.43921
718.66        62.74336
719.08        62.82214
719.50        62.75632
719.92        62.61882
720.34        62.54057
720.76        62.56885
721.19        62.55511
721.61        62.69172
722.03         62.8569
722.45        63.09151
722.87         63.3863
723.29        63.69109
723.71         63.9108
724.13        64.01228
724.55        64.01981
724.97        63.97055
725.39         63.9043
725.81         63.8492
726.23        63.89279
726.65        63.84977
727.07        63.83959
727.49        63.81249
727.91        63.79399
728.33        63.80774
728.75        63.89162
729.17        64.04617
729.59         64.2366
730.01        64.43861
730.43        64.62718
730.85        64.79538
731.27        64.94573
731.69        65.02116
732.10         65.0974
732.52        64.88321
732.94        64.66532
733.36        64.50856
733.78        64.57681
734.20        64.90111
734.62        65.56218
735.04        66.57497
735.46        66.61671
735.88        65.96807
736.30        66.14365
736.72        67.14344
737.13         67.5376
737.55        67.13467
737.97        67.17848
738.39        67.64024
738.81        67.08158
739.23        65.90613
739.65         66.5726
740.06        68.65096
740.48        68.88765
740.90        67.37607
741.32        66.76685
741.74         67.2831
742.16        67.58487
742.57        67.69913
742.99        68.36009
743.41        69.35914
743.83        69.94581
744.25        69.99304
744.67        69.68713
745.08        69.26159
745.50        69.10333
745.92        69.32592
746.34        69.79169
746.75        70.32227
747.17        70.60995
747.59        70.59626
748.01        70.42271
748.42        70.26592
748.84        70.33746
749.26        70.70713
749.68        71.46217
750.09        71.98461
750.51        72.76051
750.93        73.43007
751.35        73.36533
751.76        72.73273
752.18        72.53467
752.60        72.78542
753.01        72.71351
753.43        72.37997
753.85         72.4295
754.27         72.9135
754.68        73.58434
755.10         74.2678
755.52         74.8232
755.93        75.14525
756.35         75.2067
756.77        75.17568
757.18        75.15475
757.60        75.18938
758.02        75.72137
758.43        76.36029
758.85        75.56841
759.26        73.90788
759.68        73.49415
760.10        74.70791
760.51        75.84512
760.93        75.18965
761.34        74.75186
761.76        74.30432
762.18        73.65753
762.59        73.13657
763.01        73.53873
763.42        74.78819
763.84        75.59283
764.26        75.81418
764.67        75.93476
765.09        75.96104
765.50        76.07417
765.92        76.10236
766.33        74.86868
766.75        72.90816
767.16        72.51703
767.58        73.26607
768.00        74.80527
768.41        76.55897
768.83        77.76037
769.24        77.92141
769.66        77.60494
770.07        76.49206
770.49        75.16309
770.90        73.86644
771.32        74.58784
771.73         76.7229
772.15        76.28982
772.56         73.7402
772.97         73.3226
773.39        74.94302
773.80        75.58674
774.22         74.9986
774.63        74.85257
775.05         75.1493
775.46         75.2961
775.88        75.23097
776.29        75.05858
776.70        74.86053
777.12        74.85529
777.53        75.08677
777.95        75.42858
778.36        75.72746
778.77        75.72558
779.19        75.42344
779.60        74.89085
780.02        74.33154
780.43        74.25005
780.84        74.80434
781.26        75.02223
781.67        75.43448
782.09        76.67048
782.50        78.30697
782.91        77.34351
783.33         74.7057
783.74        74.17522
784.15        75.04408
784.57         75.9069
784.98        76.14446
785.39        76.11637
785.81        76.08939
786.22        75.49323
786.63        74.81194
787.04        74.70911
787.46        75.26615
787.87        76.26507
788.28        77.34644
788.70        77.88874
789.11          77.737
789.52        77.15536
789.93        76.43742
790.35        75.89297
790.76        75.68329
791.17        75.93607
791.58        76.48792
792.00        76.76369
792.41        76.64116
792.82        76.55424
793.23        76.63116
793.65        76.29552
794.06        75.93239
794.47         77.1898
794.88        79.19235
795.29        79.55216
795.71        76.88627
796.12        74.89426
796.53         73.7806
796.94        73.41669
797.35        73.92135
797.76        75.07037
798.18         76.2625
798.59         77.1255
799.00        77.40187
799.41        75.78078
799.82        74.93476
800.23        74.14007
800.64        74.25758
801.06        74.84046
801.47        75.69111
801.88        76.33234
802.29        76.56185
802.70         76.5713
803.11        76.43559
803.52        76.25455
803.93        76.10458
804.34        75.92655
804.75        75.78078
805.17        75.86787
805.58        76.26424
805.99         76.6237
806.40        76.82416
806.81        77.45908
807.22        78.05818
807.63        76.80217
808.04        74.34451
808.45        73.32886
808.86        73.99883
809.27        75.04925
809.68        76.02748
810.09          76.658
810.50        76.70718
810.91        76.28323
811.32        75.66238
811.73        75.29556
812.14        75.30939
812.55        75.51719
812.96        75.86068
813.37        76.23122
813.78        76.54895
814.19        76.91218
814.60        77.10528
815.01        76.77296
815.42        75.90027
815.83        74.55906
816.24        73.24081
816.65        72.81734
817.05        73.53151
817.46         75.0974
817.87        76.87976
818.28         77.7327
818.69        77.34018
819.10        76.00037
819.51        74.35936
819.92        73.53974
820.33        73.85236
820.74         74.8952
821.14        76.15619
821.55        76.83235
821.96         76.6504
822.37        75.67886
822.78        74.37081
823.19        73.61102
823.60        73.59163
824.00        73.98972
824.41        74.54613
824.82        75.04654
825.23        75.33508
825.64        75.49734
826.04        75.55615
826.45        75.54042
826.86        75.46751
827.27        75.25394
827.68        74.94936
828.08         74.7743
828.49        74.67877
828.90         74.5241
829.31        74.27457
829.72        74.03731
830.12        73.84978
830.53        73.60931
830.94        73.47623
831.35        73.71013
831.75        74.37344
832.16         75.3204
832.57        76.35689
832.97        77.06672
833.38        77.23684
833.79        76.97195
834.20        76.50674
834.60        76.20577
835.01        76.19573
835.42        76.37599
835.82        76.57245
836.23        76.41048
836.64        75.85986
837.04        75.08093
837.45         74.3423
837.86        74.05949
838.26        74.32991
838.67        74.97649
839.08        75.77619
839.48        76.32253
839.89        76.43861
840.29        76.26251
840.70        75.88553
841.11        75.43255
841.51        74.98488
841.92        74.48727
842.33        74.06168
842.73        73.92692
843.14        74.08166
843.54        74.51088
843.95        74.99554
844.35        75.21685
844.76        75.07452
845.17        74.67665
845.57        74.17739
845.98        73.82753
846.38        73.70457
846.79        73.71324
847.19        73.83189
847.60        73.93835
848.00        74.02155
848.41         74.0862
848.81        74.15935
849.22        74.20078
849.62         74.2542
850.03        74.32429
850.43        74.42957
850.84        74.52981
851.24        74.65936
851.65        74.65755
852.05        74.73555
852.46        75.06557
852.86        75.66804
853.27        76.51278
853.67        77.05806
854.07        76.62769
854.48        75.17116
854.88        72.96888
855.29        70.84164
855.69        70.00315
856.10        70.68777
856.50        72.75096
856.90         75.4028
857.31        76.83445
857.71        76.49889
858.12         74.8706
858.52        72.89714
858.92        71.81457
859.33        71.87979
859.73        72.76765
860.13        74.10648
860.54        75.11275
860.94        75.51903
861.34        75.51437
861.75        75.31276
862.15        75.34571
862.55         75.6928
862.96        76.18748
863.36        76.66927
863.76        76.85639
864.17        76.68038
864.57        76.31635
864.97        75.95631
865.38        75.86278
865.78         76.1403
866.18        76.61742
866.58         77.1763
866.99        77.61169
867.39        77.89999
867.79        78.14394
868.19        78.21436
868.60        77.86372
869.00        77.10957
869.40        76.03484
869.80        75.24895
870.21        75.69279
870.61        77.60294
871.01        80.67032
871.41        83.99843
871.81        86.04461
872.22        86.37075
872.62        85.38725
873.02        83.89391
873.42        83.33384
873.82        83.88495
874.22        84.81148
874.63        85.74007
875.03        85.97861
875.43        85.20695
875.83        84.65635
876.23        82.86063
876.63        82.00793
877.03        81.98587
877.44        82.97878
877.84        104.4679
878.24        89.58265
878.64        89.79695
879.04        89.87291
879.44        85.28613
879.84        83.07599
880.24        87.72974
880.64        90.16492
881.04        91.27753
881.44         91.6626
881.84        90.67375
882.24        88.62988
882.65        86.73804
883.05        86.16783
883.45        87.11323
883.85        89.53657
884.25         92.5145
884.65        94.09641
885.05        93.70529
885.45        92.00421
885.85        90.01915
886.25        89.16253
886.65        89.72558
887.05        91.21199
887.45        93.04965
887.85        94.22747
888.25        94.37337
888.65         93.8741
889.04        92.98274
889.44        92.11519
889.84        91.43872
890.24        90.78198
890.64        90.29417
891.04        90.23895
891.44        90.60639
891.84        91.36553
892.24          92.142
892.64        92.21928
893.04        91.50204
893.44        90.31695
893.83        89.12274
894.23        88.58834
894.63        88.84071
895.03        89.59844
895.43        90.79191
895.83         92.2599
896.23        93.79577
896.63        95.43035
897.02        96.61676
897.42        96.48473
897.82         94.9863
898.22        92.45492
898.62        89.84551
899.01         88.5765
899.41        88.94901
899.81        90.48666
900.21        92.49841
900.61        93.83582
901.00        94.13111
901.40        93.74665
901.80        92.98791
902.20         92.3247
902.59        91.93645
902.99        91.64601
903.39        91.41407
903.79        91.21693
904.18        91.04474
904.58        90.99799
904.98         91.1075
905.38         91.3766
905.77        91.76628
906.17        92.23267
906.57        92.67275
906.96        93.00389
907.36        93.13276
907.76        93.06578
908.15        92.85563
908.55        92.49081
908.95        92.04275
909.34         91.5133
909.74        90.95594
910.14        90.25309
910.53        89.44788
910.93         88.6539
911.33        88.11285
911.72        88.26594
912.12        89.07871
912.52        90.25769
912.91        91.52973
913.31        92.61239
913.70        93.49866
914.10        94.27885
914.49        94.70255
914.89        94.14755
915.29        92.60511
915.68        90.36652
916.08         88.4122
916.47        87.60751
916.87        88.00803
917.26        89.35194
917.66        90.92359
918.05        91.55899
918.45        90.94016
918.84        89.46461
919.24        87.82975
919.64           87.04
920.03        87.37133
920.42        88.50066
920.82        89.95124
921.21        91.05469
921.61        91.39962
922.00        91.22998
922.40         90.6981
922.79        90.02845
923.19        89.39172
923.58        88.60672
923.98        87.60347
924.37        86.80782
924.77        86.59148
925.16        84.16412
925.55        85.05247
925.95        85.62601
926.34        87.50014
926.74        90.08533
927.13         92.6809
927.52        93.85897
927.92        93.40192
928.31        91.78145
928.70        89.58114
929.10        87.81527
929.49        86.77991
929.89        86.20567
930.28        86.21549
930.67        87.01909
931.07         88.4135
931.46        90.42365
931.85        92.23398
932.24        92.59926
932.64        91.32638
933.03        88.60954
933.42        85.23229
933.82        82.98956
934.21        82.42609
934.60         83.0756
934.99        84.13174
935.39        84.78815
935.78        84.92753
936.17        84.40063
936.56        83.00639
936.96        84.08037
937.35        82.77415
937.74        82.93183
938.13        83.21189
938.53        84.09801
938.92        85.62855
939.31        87.88763
939.70        90.25999
940.09        90.95053
940.49        89.44047
940.88        86.52327
941.27        83.54332
941.66        82.07383
942.05        82.30157
942.44        83.68946
942.84        85.71247
943.23        87.49638
943.62        88.55251
944.01        89.12943
944.40        89.20144
944.79        88.71675
945.18        87.70704
945.57        86.04436
945.97        84.03551
946.36        82.61975
946.75        82.27174
947.14        82.74801
947.53        83.58244
947.92        84.24035
948.31        84.64836
948.70        85.00376
949.09        85.28035
949.48        85.38615
949.87        85.29482
950.26        84.92498
950.65        84.53834
951.04        84.59684
951.43         85.1423
951.82        86.03036
952.21         86.7898
952.60        86.64233
952.99        85.44823
953.38         83.5203
953.77        81.38164
954.16        79.76895
954.55        78.89484
954.94        78.62438
955.33        78.67069
955.72        78.53362
956.11        78.09754
956.50        77.52475
956.89          77.213
957.28        77.83492
957.66        79.56741
958.05        81.87975
958.44        84.15821
958.83        85.54839
959.22        85.82191
959.61        85.17422
960.00        83.95806
960.39        82.76117
960.78        81.81708
961.16        81.05225
961.55        80.30008
961.94        79.30266
962.33        78.07985
962.72        76.83202
963.11        75.88332
963.49        75.60286
963.88        76.00394
964.27        77.00602
964.66        78.19925
965.04        78.73342
965.43        78.24197
965.82        77.05817
966.21          75.812
966.60        75.33241
966.98         75.7731
967.37        76.83592
967.76        78.13223
968.15        78.88566
968.53        78.81393
968.92        78.13533
969.31        77.20647
969.69        76.46513
970.08        76.03782
970.47         75.8243
970.86         75.6302
971.24        75.14002
971.63        74.29568
972.02        73.21893
972.40         72.3282
972.79         72.3167
973.17        73.46023
973.56        75.47701
973.95        77.76954
974.33        79.15257
974.72        79.13877
975.11        78.03139
975.49         76.5854
975.88        75.90824
976.26        76.17678
976.65         77.1638
977.04        78.16109
977.42        77.54774
977.81        74.93622
978.19        71.13628
978.58         67.9242
978.96        67.00044
979.35        68.56586
979.74        72.23883
980.12        77.21569
980.51        80.50843
980.89        81.13454
981.28        79.84702
981.66        77.72879
982.05        76.19299
982.43        75.55828
982.82        75.28062
983.20        75.53621
983.59        76.70751
983.97        78.87505
984.35        82.18058
984.74        85.59595
985.12        86.93073
985.51        85.01086
985.89        80.23608
986.28        74.37234
986.66        70.38757
987.04        69.35593
987.43        70.43808
987.81        72.21338
988.20        72.94527
988.58        72.16575
988.96        69.93337
989.35        66.81068
989.73        65.79613
990.12        68.73239
990.50        74.13572
990.88        78.57971
991.27         79.6385
991.65        77.78027
992.03        73.80407
992.42        69.46969
992.80        67.76778
993.18        69.53055
993.56        72.98645
993.95        76.56744
994.33        79.03841
994.71          80.033
995.10        80.30924
995.48        79.75056
995.86        77.91495
996.24        74.78644
996.63        70.09959
997.01        64.95162
997.39        62.80675
997.77        65.16146
998.15        71.26722
998.54        77.96663
998.92        80.95534
999.30        78.94804
999.68        73.04748
1000.06        64.96752
1000.45        59.00746
1000.83        56.97687
1001.21        57.45601
1001.59        59.44194
1001.97        61.95308
1002.35        64.65223
1002.73        68.38032
1003.12         71.9549
1003.50        71.62585
1003.88        66.22701
1004.26        57.94833
1004.64        50.44959
1005.02        46.64266
1005.40        46.67658
1005.78        50.31007
1006.16         58.8097
1006.54        69.85069
1006.92        77.16456
1007.30        79.89758
1007.69        80.08215
1008.07        79.96361
1008.45        80.02593
1008.83        79.63244
1009.21         76.1339
1009.59         56.8415
1009.97       -10.82872
1010.35       -122.0334
1010.73       -117.8212
1011.11       -52.30025
1011.49       -1.096364
1011.86        35.99072
1012.24        56.96308
1012.62        64.81902
1013.00         64.2337
1013.38        57.00822
1013.76         45.8591
1014.14        42.06372
1014.52        55.80465
1014.90        90.46313
1015.28        136.1401
1015.66        159.9945
1016.04        142.9386
1016.41        93.06477
1016.79        40.77768
1017.17        18.11315
1017.55        20.78973
1017.93        31.62325
1018.31        43.18187
1018.69        52.42451
1019.06        60.23774
1019.44        69.41512
1019.82        81.76067
1020.20         95.5431
1020.58        106.7639
1020.95        107.3693
1021.33        78.21062
1021.71        490.6652
1022.09        150.2813
1022.46        131.4386
1022.84        126.6477
1023.22        130.8885
1023.60        150.8103
1023.97        356.6874
1024.35         4.76546
1024.73        41.12058
