SpectraSmart Spectrum 2.9.0.0
--------- Device Information -----------
Spectrum Name :  反射率_0
Saving Time :  2024/04/25 22:47:17
Spectro-Module Model Name : SE2030-DUVN
Spectro-Module Serial Number : OS361AC55029948
Wavelength Start : 200
Wavelength End : 1025
Wavelength Unit : Wavelength(nm)
Spectrum Unit : Reflectance(%)
-----------Spectrum Setting ------------
Integration Time : 20ms
Average : 10
Boxcar : 0
Background removal :  enabled
linearity correction :  enabled
SC :  disabled
Intensity correction :  disabled
DWT denoise :  enabled
savitzky-golay :  disabled
FFT :  disabled
Running average :  disabled
Kalman :  disabled
High pass :  disabled
---------------BEGIN--------------------
Wavelength(nm)             Reflectance(%)
200.29               0
200.75         96.4494
201.21        87.40579
201.67        76.58211
202.13         71.0481
202.58         71.7241
203.04        76.93049
203.50        83.45441
203.96         85.7887
204.42        83.07365
204.88        77.92393
205.34        73.37508
205.80        72.44802
206.26        76.33249
206.72        87.34622
207.18        110.7326
207.64        134.7721
208.10        127.1822
208.55        102.9684
209.01        86.22198
209.47        79.47086
209.93        78.43962
210.39        80.60511
210.85        83.49994
211.31        82.54916
211.77        76.69328
212.23        68.00857
212.69        60.51487
213.14        60.26199
213.60         67.9852
214.06        81.69293
214.52        96.77724
214.98        106.2684
215.44        108.2705
215.90         104.972
216.36        99.20872
216.81        94.87184
217.27        93.44833
217.73        93.71762
218.19        94.13821
218.65        92.70673
219.11        88.58314
219.57        81.19653
220.02        72.01541
220.48        67.99709
220.94        72.41758
221.40        83.05831
221.86        91.68955
222.32        90.10723
222.77        80.06506
223.23        67.04507
223.69        56.64613
224.15        54.61462
224.61        60.27105
225.06        70.66441
225.52        81.84264
225.98         88.5928
226.44        89.82145
226.90        87.47132
227.36        84.16899
227.81        83.52344
228.27         86.4885
228.73        91.34468
229.19        96.13435
229.65        98.11968
230.10        96.95673
230.56        94.34831
231.02        91.57697
231.48        90.03271
231.93        89.81416
232.39        90.35782
232.85        91.28284
233.31         92.1981
233.77        92.87313
234.22        93.51277
234.68        93.72863
235.14        92.81956
235.60        90.78933
236.05        87.98615
236.51        85.13767
236.97        83.17834
237.43        82.26751
237.88         82.2447
238.34        82.92519
238.80        84.19142
239.26        85.71584
239.71        87.76717
240.17        89.06108
240.63        88.13075
241.08        84.96439
241.54        80.03806
242.00        75.05283
242.46        72.05553
242.91        71.88123
243.37         75.4517
243.83        90.40727
244.28        141.9675
244.74        202.4909
245.20        172.5462
245.66        143.7332
246.11        136.5892
246.57        142.9536
247.03        168.0667
247.48        239.1378
247.94        192.2828
248.40        113.6116
248.85        90.88608
249.31        84.41064
249.77        83.34617
250.22         84.9968
250.68        89.21734
251.14        95.81405
251.59        100.3126
252.05        98.39538
252.51        92.09243
252.96        85.07456
253.42        81.34655
253.88        80.62714
254.33         81.5575
254.79        84.27142
255.25        88.29572
255.70        92.69312
256.16        97.33746
256.62         100.891
257.07         102.012
257.53        101.3825
257.99        99.19954
258.44        96.39467
258.90        95.14496
259.35        94.60905
259.81        94.44778
260.27        93.39648
260.72         90.2097
261.18        85.75965
261.63        80.49718
262.09        75.80539
262.55        72.45112
263.00        70.33492
263.46        69.19827
263.91        68.31969
264.37        67.40427
264.83        66.18124
265.28        64.66541
265.74        63.11477
266.19        61.56556
266.65        60.30625
267.11         59.2506
267.56        58.25536
268.02        57.19707
268.47        55.94351
268.93        54.58619
269.38        53.23905
269.84        52.30729
270.30        51.88419
270.75        51.85546
271.21        51.98412
271.66        51.90533
272.12        51.51172
272.57        50.87344
273.03        50.16476
273.48         49.5477
273.94        49.11216
274.39        48.74469
274.85        48.36775
275.31        47.82462
275.76        47.07481
276.22        46.22881
276.67        45.36062
277.13        44.71151
277.58        44.24647
278.04        43.95065
278.49        43.63307
278.95        43.14177
279.40         42.3973
279.86        41.54062
280.31        40.64011
280.77        39.95385
281.22         39.4734
281.68        39.16765
282.13        38.92019
282.59        38.64577
283.04        38.28645
283.50        37.91741
283.95        37.51849
284.41        37.10992
284.86        36.67921
285.32        36.22999
285.77        35.79865
286.22        35.52472
286.68        35.40185
287.13         35.3624
287.59        35.26954
288.04        34.88162
288.50        34.21126
288.95         33.3283
289.41        32.43782
289.86        31.71888
290.32          31.281
290.77        31.02968
291.22        30.93956
291.68        30.92943
292.13        30.95745
292.59         31.0464
293.04        31.16467
293.50        31.27313
293.95        31.34723
294.40         31.3655
294.86        31.34483
295.31         31.3229
295.77        31.31539
296.22        31.32132
296.68        31.31073
297.13        31.20452
297.58        31.01892
298.04        30.80923
298.49        30.66755
298.95        30.76989
299.40        31.12441
299.85        31.65544
300.31        32.24259
300.76        32.70851
301.21        32.98057
301.67        33.13554
302.12        33.15022
302.58        33.05474
303.03        32.85709
303.48        32.56684
303.94        32.32312
304.39        32.30492
304.84        32.53949
305.30        32.95993
305.75        33.36544
306.20         33.4557
306.66         33.1969
307.11        32.68335
307.57        32.11166
308.02        31.69422
308.47        31.52119
308.93        31.52098
309.38        31.62926
309.83        31.78006
310.29        31.92374
310.74        32.06435
311.19        32.17668
311.65        32.21635
312.10         32.1708
312.55        32.04946
313.00        31.84013
313.46        31.54395
313.91        31.17622
314.36         30.7675
314.82        30.42072
315.27        30.27135
315.72        30.34492
316.18        30.59518
316.63        30.90881
317.08        31.07291
317.53        31.02378
317.99        30.80519
318.44        30.52142
318.89        30.34562
319.35         30.3142
319.80        30.38155
320.25        30.43829
320.70        30.30987
321.16        29.96537
321.61        29.47371
322.06         28.9657
322.51        28.63335
322.97        28.50967
323.42        28.54309
323.87        28.62038
324.32        28.55314
324.78        28.29031
325.23        27.90277
325.68         27.4768
326.13        27.15535
326.59        26.97894
327.04         26.9196
327.49        26.93682
327.94        26.96908
328.39        26.99091
328.85         27.0125
329.30        27.06153
329.75        27.13953
330.20        27.24406
330.66        27.34317
331.11        27.43821
331.56        27.49336
332.01        27.49744
332.46        27.44753
332.92         27.3569
333.37        27.28431
333.82        27.23895
334.27        27.23207
334.72        27.21886
335.17        27.12069
335.63        26.92765
336.08        26.66693
336.53        26.45323
336.98        26.47471
337.43        26.75695
337.88        27.24067
338.34        27.72363
338.79        27.92295
339.24        27.74568
339.69        27.27445
340.14        26.71826
340.59        26.44705
341.05         26.5515
341.50        26.91516
341.95         27.3524
342.40        27.58982
342.85        27.56413
343.30        27.38152
343.75        27.12002
344.20        26.91314
344.66        26.81205
345.11        26.72811
345.56        26.69339
346.01        26.76092
346.46        26.91298
346.91        27.15319
347.36         27.3153
347.81        27.12857
348.26        26.57677
348.72        25.78379
349.17        24.99214
349.62        24.68118
350.07        24.95791
350.52        25.65861
350.97        26.52481
351.42        27.15865
351.87        27.43774
352.32        27.46969
352.77        27.33661
353.22        27.17443
353.67        27.03859
354.13        26.88556
354.58        26.71029
355.03        26.55366
355.48        26.42523
355.93        26.34286
356.38         26.2866
356.83        26.20549
357.28        26.08607
357.73        25.93568
358.18        25.77947
358.63         25.6586
359.08        25.58219
359.53        25.54166
359.98         25.4958
360.43        25.38289
360.88        25.19309
361.33        24.93999
361.78        24.69247
362.23        24.56312
362.68        24.56501
363.13        24.65338
363.58        24.72768
364.03        24.63033
364.48        24.33409
364.93        23.90451
365.38        23.42916
365.83        23.04775
366.28        22.80835
366.73         22.6662
367.18        22.61288
367.63        22.63271
368.08        22.69798
368.53        22.80883
368.98        22.89899
369.43        22.85992
369.88        22.67968
370.33        22.39651
370.78        22.08274
371.23        21.86905
371.68        21.79678
372.13        21.82007
372.58        21.93091
373.03        22.10814
373.48        22.31719
373.93        22.55787
374.38         22.7372
374.83        22.71338
375.28         22.4714
375.72        22.04248
376.17        21.58041
376.62         21.3027
377.07        21.26664
377.52        21.40493
377.97        21.61301
378.42        21.71558
378.87        21.66152
379.32          21.514
379.77          21.317
380.22        21.12917
380.67        20.97296
381.11        20.82529
381.56         20.6927
382.01        20.60131
382.46        20.55201
382.91        20.54011
383.36        20.54143
383.81        20.50996
384.26        20.43547
384.71        20.33502
385.15        20.21104
385.60         20.0834
386.05        19.95044
386.50        19.79788
386.95        19.65588
387.40        19.57884
387.85        19.57578
388.29        19.62925
388.74        19.68156
389.19        19.62026
389.64        19.43513
390.09        19.15063
390.54         18.8718
390.98        18.77649
391.43        18.90737
391.88        19.19272
392.33        19.48789
392.78        19.57985
393.23        19.44072
393.67        19.14231
394.12        18.83981
394.57         18.6844
395.02        18.71043
395.47        18.85925
395.91        19.06681
396.36        19.19384
396.81        19.19744
397.26        19.10801
397.71        18.96882
398.15         18.8237
398.60        18.71861
399.05        18.64558
399.50        18.57133
399.95        18.39672
400.39        18.19869
400.84        17.94076
401.29        17.72578
401.74        17.70023
402.18        17.90182
402.63        18.25534
403.08        18.64326
403.53        18.87755
403.97        18.90695
404.42        18.78317
404.87        18.57037
405.32        18.38612
405.76        18.27364
406.21        18.20462
406.66        18.16912
407.11        18.15864
407.55        18.16973
408.00        18.20794
408.45         18.2515
408.90        18.24256
409.34        18.16913
409.79        18.04871
410.24        17.93154
410.68        17.89017
411.13        17.94138
411.58        18.06387
412.03        18.21261
412.47        18.31036
412.92        18.31872
413.37        18.26138
413.81        18.17906
414.26        18.15249
414.71        18.18913
415.15        18.26536
415.60        18.32242
416.05        18.28646
416.49        18.14334
416.94        17.93533
417.39        17.70831
417.83        17.53815
418.28        17.46016
418.73        17.44358
419.17        17.48488
419.62        17.57254
420.07         17.6913
420.51        17.84019
420.96        17.96633
421.41        17.97784
421.85        17.85488
422.30        17.65039
422.74        17.42301
423.19        17.29669
423.64        17.28092
424.08        17.35101
424.53        17.45352
424.98        17.52863
425.42        17.56013
425.87        17.55667
426.31        17.52474
426.76        17.52398
427.21        17.53607
427.65         17.4266
428.10        17.28556
428.54        17.36799
428.99        17.69116
429.44        18.14605
429.88        18.53685
430.33        18.61925
430.77        18.35316
431.22        17.81894
431.66        17.25013
432.11         17.0706
432.56        17.31725
433.00        17.77521
433.45        18.21792
433.89        18.48259
434.34        18.44135
434.78        17.99285
435.23        17.45033
435.67        17.41891
436.12        17.84744
436.57        18.10484
437.01        18.08055
437.46         18.0439
437.90        18.01104
438.35        17.90324
438.79        17.75432
439.24        17.66671
439.68        17.66958
440.13        17.66389
440.57         17.6586
441.02        17.90884
441.46        18.26493
441.91        18.09513
442.35        17.53492
442.80        17.30569
443.24        17.39102
443.69        17.51698
444.13        17.58015
444.58        17.41313
445.02        17.07773
445.47         16.9709
445.91        17.07565
446.36        17.05732
446.80        16.90637
447.24        16.83149
447.69        16.83613
448.13        16.81268
448.58         16.7624
449.02        16.71538
449.47        16.67304
449.91         16.6343
450.36        16.60544
450.80        16.57887
451.25        16.57161
451.69        16.59947
452.13        16.66452
452.58        16.74796
453.02        16.83157
453.47        16.88488
453.91        16.90332
454.36        16.90256
454.80        16.87966
455.24        16.82883
455.69        16.76671
456.13        16.68955
456.58        16.65393
457.02        16.71809
457.46        16.89194
457.91        17.14212
458.35        17.39701
458.79        17.53829
459.24         17.5471
459.68        17.44398
460.13        17.30039
460.57        17.18598
461.01        17.14357
461.46         17.1501
461.90        17.18115
462.34        17.18973
462.79        17.15965
463.23        17.09937
463.68        17.05802
464.12        17.11583
464.56        17.28241
465.01        17.53901
465.45        17.75594
465.89         17.8106
466.34        17.70182
466.78        17.37529
467.22        17.01011
467.67        17.06652
468.11        17.50639
468.55        17.79101
468.99        17.83002
469.44        17.84107
469.88        17.87097
470.32        17.99685
470.77        18.16785
471.21        18.16998
471.65        17.99171
472.10        17.80919
472.54        17.68602
472.98        17.66463
473.42        17.76459
473.87        17.97849
474.31        18.22393
474.75        18.36462
475.20        18.37492
475.64        18.28482
476.08        18.16631
476.52        18.13153
476.97        18.20822
477.41        18.36287
477.85        18.53254
478.29        18.65222
478.74        18.70388
479.18        18.61954
479.62        18.45721
480.06        18.61754
480.50         18.7302
480.95        18.83153
481.39         18.7755
481.83        18.73044
482.27        18.69841
482.72        18.51744
483.16        18.26901
483.60        18.34061
484.04        18.73598
484.48        18.88948
484.93        19.05587
485.37        19.47147
485.81        19.95512
486.25         20.0532
486.69         26.3984
487.14        20.62536
487.58        13.64064
488.02        16.89846
488.46        19.20787
488.90        19.15964
489.34        19.21877
489.79        19.03312
490.23        20.05612
490.67        20.63035
491.11         20.5035
491.55        20.38741
491.99        20.24158
492.43        20.06445
492.88        19.93138
493.32        19.95509
493.76        19.99151
494.20        20.15068
494.64        20.36974
495.08        20.61812
495.52        20.88462
495.96        21.18074
496.41        21.44022
496.85         21.6275
497.29        21.72304
497.73        21.48553
498.17        21.16755
498.61          21.307
499.05          21.912
499.49        21.97828
499.93        22.04741
500.37        22.14475
500.82        22.20679
501.26        22.44927
501.70        22.75401
502.14        22.93476
502.58        22.95617
503.02        22.98079
503.46        23.01276
503.90        22.93991
504.34        22.80497
504.78        22.73428
505.22        22.75123
505.66        22.83144
506.10        22.93754
506.54        23.00323
506.98        23.01181
507.42        22.98376
507.86         22.9708
508.30        23.05094
508.74        23.23352
509.18         23.4861
509.62        23.73713
510.06        23.87178
510.50        23.86603
510.94        23.76403
511.38        23.63049
511.82        23.56724
512.26        23.60369
512.70        23.70273
513.14        23.84323
513.58        23.98907
514.02        24.11067
514.46        24.21574
514.90        24.27631
515.34        24.21282
515.78        23.99529
516.22        23.79638
516.66        23.68999
517.10         23.3631
517.54        22.83523
517.98        23.65338
518.42        23.51807
518.86        23.86349
519.30        23.98631
519.74        24.11149
520.18        24.21782
520.62        24.24422
521.06          24.214
521.50        24.12321
521.93        24.00271
522.37        23.91468
522.81        23.87605
523.25        23.87354
523.69        23.90081
524.13        23.94447
524.57        23.99402
525.01        24.05146
525.45        24.09666
525.89        24.09702
526.32        24.04402
526.76        23.94648
527.20        23.82673
527.64        23.73018
528.08        23.67376
528.52        23.62529
528.96        23.56396
529.40        23.52154
529.83        23.50622
530.27        23.27337
530.71        23.29125
531.15        23.19963
531.59        23.14128
532.03         23.0973
532.46        23.08659
532.90        23.13772
533.34        23.23942
533.78        23.37823
534.22        23.50431
534.66        23.54621
535.09        23.48591
535.53        23.35337
535.97        23.18802
536.41           23.06
536.85        22.99399
537.28        22.97659
537.72        22.98879
538.16        22.99939
538.60        23.00045
539.04        22.98619
539.47        22.97803
539.91        23.06515
540.35        23.22668
540.79        23.35349
541.22         23.4286
541.66        23.51973
542.10        23.62119
542.54        23.67854
542.97         23.7193
543.41        23.82802
543.85        24.00933
544.29        24.24743
544.72        24.47785
545.16        24.61054
545.60        24.62787
546.04        24.55518
546.47        24.48488
546.91        24.57334
547.35        24.83876
547.79        25.23657
548.22        25.63919
548.66        25.82652
549.10         25.7711
549.53        25.58186
549.97        25.39146
550.41        25.33895
550.84        25.47231
551.28        25.76059
551.72        26.13394
552.15        26.46281
552.59         26.6967
553.03        26.86761
553.46        26.99347
553.90        27.12485
554.34        27.27931
554.77        27.40859
555.21        27.49571
555.65        27.60085
556.08        27.73691
556.52        27.55749
556.96        27.73014
557.39        27.76554
557.83        27.86998
558.27        28.00808
558.70        28.16983
559.14        28.32178
559.57        28.43922
560.01        28.54325
560.45        28.61733
560.88        28.62759
561.32        28.59648
561.75        28.54106
562.19        28.50757
562.63        28.47898
563.06        28.48495
563.50        28.63128
563.93        28.87108
564.37        29.04605
564.80        29.12608
565.24        29.20022
565.68        29.27119
566.11        29.31828
566.55        29.36832
566.98        29.41659
567.42        29.49362
567.85        29.64064
568.29        29.87924
568.72        30.10981
569.16        30.34586
569.60        30.69432
570.03        30.99866
570.47        30.99569
570.90        30.85288
571.34         30.4016
571.77         30.7162
572.21        31.15903
572.64        31.05795
573.08        30.71021
573.51        29.80231
573.95        31.06667
574.38         32.9354
574.82         32.1501
575.25        31.96797
575.69        30.84071
576.12        30.28775
576.56        30.22917
576.99        30.98366
577.42        32.58473
577.86        32.51331
578.29        32.16054
578.73        33.59303
579.16        30.87622
579.60        28.36071
580.03        29.72666
580.47        31.75586
580.90        32.12531
581.33        31.68248
581.77        31.39665
582.20        34.01573
582.64        33.39015
583.07        28.39913
583.51        27.78882
583.94         27.3628
584.37        28.55902
584.81        29.81502
585.24        31.30044
585.68        32.11604
586.11        31.22823
586.54        29.10633
586.98        28.39188
587.41        28.79068
587.85        30.02896
588.28        30.46578
588.71        29.08732
589.15        28.23725
589.58        28.54436
590.01        29.06953
590.45        29.60961
590.88        29.59634
591.31        29.31697
591.75        29.36329
592.18        29.52578
592.61        30.13177
593.05        30.52473
593.48        31.92323
593.91        31.98729
594.35        29.28677
594.78         28.8429
595.21        29.12406
595.65        30.60709
596.08        31.64723
596.51        30.44636
596.94         29.8215
597.38        30.30082
597.81        31.64474
598.24        32.71605
598.68        32.33699
599.11        32.16986
599.54        33.75062
599.97        34.78382
600.41        32.90319
600.84        33.30922
601.27        34.21342
601.70        34.04607
602.14        34.21732
602.57        34.15118
603.00        34.98747
603.43        36.29633
603.87        37.56499
604.30        37.73413
604.73        37.02299
605.16        36.86759
605.60        37.69877
606.03        38.81026
606.46        39.96827
606.89        39.93004
607.32        39.66569
607.76        40.16453
608.19        41.67816
608.62        41.35533
609.05        40.88427
609.48        41.62099
609.92        42.08574
610.35        42.46164
610.78        43.87011
611.21         44.4255
611.64        43.05108
612.07        43.88407
612.50        44.49514
612.94        45.11351
613.37        45.03844
613.80        45.88627
614.23        46.40651
614.66        46.73184
615.09        47.14725
615.52        47.41044
615.96         47.6274
616.39        47.89931
616.82        47.42649
617.25        47.69466
617.68        48.42273
618.11        49.13319
618.54        49.62476
618.97        49.59946
619.40          49.317
619.84        49.64509
620.27        50.52366
620.70        51.27538
621.13        51.71051
621.56        51.28997
621.99        50.52388
622.42        51.20543
622.85        52.96317
623.28        53.05608
623.71        52.55671
624.14        52.14864
624.57        52.34311
625.00        51.69672
625.43        52.11385
625.86        51.53305
626.29         51.4566
626.72        51.78825
627.15        51.43212
627.58        51.37537
628.01        51.14938
628.44        51.29813
628.87        50.94482
629.30        50.88441
629.73        50.78183
630.16        50.66835
630.59        50.02607
631.02        49.40668
631.45        48.76229
631.88        48.19004
632.31        47.72194
632.74        47.33667
633.17        46.99561
633.60        46.61953
634.03        46.18486
634.46        45.71751
634.89        45.22531
635.32        44.71951
635.75        44.21098
636.18        43.69667
636.61        43.18723
637.04        42.69938
637.47        42.23243
637.89        41.78444
638.32        41.34338
638.75        40.91718
639.18         40.5112
639.61        40.13483
640.04        39.77266
640.47        39.39317
640.90        38.99576
641.33         38.5895
641.76        38.20521
642.18        37.95176
642.61         37.8451
643.04        37.76613
643.47        37.65417
643.90        37.89855
644.33        37.69835
644.76        37.70882
645.18        37.70018
645.61        37.69617
646.04        37.69665
646.47        37.69046
646.90        37.75043
647.33        37.96624
647.75        38.36635
648.18        38.95296
648.61        39.56744
649.04        39.97502
649.47        40.14254
649.89        39.99783
650.32        39.83904
650.75        40.38748
651.18        41.57174
651.61        42.57384
652.03        43.16259
652.46        43.61781
652.89        44.17089
653.32        44.36836
653.74        44.46171
654.17        46.08281
654.60        47.03218
655.03        46.16826
655.46        47.99992
655.88        51.16222
656.31        54.73768
656.74        123.1725
657.16        79.00143
657.59        27.73991
658.02        21.77876
658.45        38.71164
658.87        49.85336
659.30        53.36967
659.73        53.38832
660.15        51.50351
660.58        54.31588
661.01         56.1699
661.44        55.01178
661.86        54.84649
662.29        55.12778
662.72        56.05448
663.14        57.43423
663.57        57.68783
664.00        57.01598
664.42        57.09762
664.85        58.02134
665.27        58.75081
665.70        59.07813
666.13        59.25912
666.55        59.26868
666.98          59.042
667.41        58.77321
667.83        58.80813
668.26         59.2111
668.69        59.88194
669.11        60.59118
669.54        61.14259
669.96        60.86309
670.39        60.81757
670.82        60.26039
671.24        60.20056
671.67        60.53564
672.09         61.1642
672.52        61.85874
672.94        62.60999
673.37        62.31144
673.80         62.3075
674.22        62.37017
674.65        62.44016
675.07        62.52653
675.50        62.54651
675.92        62.57189
676.35        62.79454
676.77        63.22723
677.20        63.74097
677.62        64.24243
678.05        64.57889
678.47        64.69982
678.90        64.67398
679.32        64.58597
679.75        64.45111
680.17        64.56253
680.60        64.67684
681.02         64.8326
681.45        64.91161
681.87        64.89729
682.30        64.92654
682.72        65.02457
683.15        64.99557
683.57        64.98068
684.00        65.42089
684.42        66.32666
684.85        66.75433
685.27        66.66861
685.70         66.4953
686.12        66.34023
686.54        66.26436
686.97        66.33684
687.39        66.56473
687.82        66.82676
688.24        67.25748
688.66        67.21767
689.09        67.26391
689.51        67.30121
689.94        67.41878
690.36        67.64434
690.78        67.94312
691.21        68.25711
691.63        68.48852
692.06        68.61552
692.48        68.67564
692.90        68.72032
693.33        68.81607
693.75        68.98506
694.17        69.21136
694.60        69.46385
695.02        69.68211
695.44         69.8144
695.87        70.02118
696.29        70.30776
696.71        70.21633
697.14        69.92131
697.56        70.44437
697.98         71.5273
698.41        71.56028
698.83        70.85423
699.25         70.5459
699.68        70.78774
700.10        70.91132
700.52        70.92463
700.94        71.21188
701.37        71.70692
701.79        72.18108
702.21        72.54359
702.64        72.85725
703.06        73.06381
703.48        73.06306
703.90        72.87283
704.33        72.53854
704.75        72.16723
705.17        72.02032
705.59        72.16324
706.01        72.40491
706.44        72.66153
706.86        73.37782
707.28        73.51157
707.70        73.96755
708.12        74.35683
708.55        74.24478
708.97        73.74961
709.39        73.60809
709.81         73.8651
710.23        73.95429
710.66        73.87611
711.08         74.0463
711.50        74.37635
711.92        74.53968
712.34        74.50122
712.76        74.33928
713.19        74.18494
713.61        74.27995
714.03         74.6515
714.45        75.21503
714.87        75.76458
715.29        75.97324
715.71        75.77721
716.13        75.31252
716.56        74.79215
716.98        74.52682
717.40        74.63729
717.82        75.16031
718.24        75.88991
718.66        76.33271
719.08        76.37787
719.50        76.22321
719.92        75.98464
720.34        75.82426
720.76        75.81145
721.19        75.76717
721.61        75.91319
722.03        76.08149
722.45        76.31839
722.87        76.62363
723.29        76.95326
723.71        77.20914
724.13        77.34321
724.55        77.41923
724.97        77.48135
725.39        77.43541
725.81        77.26443
726.23        77.67995
726.65        77.43256
727.07          77.496
727.49        77.51015
727.91        77.54421
728.33        77.59962
728.75        77.68741
729.17         77.8167
729.59        77.95199
730.01        78.10551
730.43        78.32628
730.85        78.62119
731.27        78.93249
731.69        79.12629
732.10        79.38954
732.52        79.01466
732.94        78.64231
733.36        78.30815
733.78        78.24004
734.20        78.48576
734.62        79.38541
735.04        80.58089
735.46        80.52752
735.88        79.54076
736.30        79.76173
736.72        81.16044
737.13        81.84566
737.55        81.48136
737.97         81.2802
738.39        81.34616
738.81        80.65739
739.23        79.65892
739.65        80.52943
740.06         82.7318
740.48        82.96761
740.90        81.38224
741.32         80.5108
741.74        81.23363
742.16         81.5379
742.57        81.64687
742.99        82.39174
743.41        83.56495
743.83        84.32259
744.25        84.51073
744.67        84.35177
745.08        84.03951
745.50        83.88494
745.92        84.00552
746.34         84.2927
746.75        84.64438
747.17        84.88387
747.59        84.98386
748.01        85.00486
748.42        85.07463
748.84        85.38063
749.26        85.95898
749.68        86.66664
750.09        87.35054
750.51        87.86552
750.93        88.09508
751.35        87.82063
751.76        87.25557
752.18        86.94428
752.60        87.24887
753.01        87.28316
753.43        87.09831
753.85        87.24663
754.27        87.72227
754.68        88.52178
755.10        89.07938
755.52        89.61274
755.93        89.91228
756.35        89.91465
756.77        89.82014
757.18        89.88897
757.60        90.18417
758.02         91.0017
758.43        91.75211
758.85        91.49994
759.26        88.77454
759.68        88.48852
760.10        89.93842
760.51        90.82825
760.93        90.70517
761.34        89.48329
761.76         89.2215
762.18        88.41753
762.59        87.94892
763.01        88.40462
763.42        89.69594
763.84        90.55795
764.26        90.81386
764.67        90.94144
765.09        90.96655
765.50        90.99188
765.92        90.86951
766.33        89.68914
766.75        87.95332
767.16        87.22075
767.58        87.78466
768.00        89.42399
768.41        91.76128
768.83        93.50561
769.24        93.96794
769.66        93.43914
770.07         92.3288
770.49        90.32994
770.90        88.21021
771.32        89.17536
771.73        92.38899
772.15        92.04023
772.56        88.60082
772.97        87.82568
773.39        89.68271
773.80        90.36057
774.22        89.62786
774.63        89.72757
775.05        90.54563
775.46         90.9715
775.88        90.86636
776.29        90.53743
776.70        90.15288
777.12        90.03384
777.53        90.26635
777.95        90.66839
778.36        91.06664
778.77        91.13213
779.19        90.83643
779.60        90.38773
780.02        89.96558
780.43        89.74761
780.84        89.98598
781.26        90.46384
781.67        91.11794
782.09        92.65291
782.50        94.30571
782.91          93.115
783.33        89.99472
783.74        88.96581
784.15         90.2376
784.57        91.34003
784.98        91.78855
785.39        91.68266
785.81        91.21722
786.22        90.70221
786.63         90.4847
787.04        90.53681
787.46        90.91756
787.87        91.81495
788.28        92.92202
788.70        93.47977
789.11        93.33804
789.52        92.85815
789.93        92.27864
790.35        91.68282
790.76        91.28374
791.17        91.53594
791.58        92.27073
792.00        92.63344
792.41        92.48912
792.82        92.40127
793.23        92.50087
793.65        92.16348
794.06        91.74165
794.47        92.87486
794.88        94.68372
795.29        94.72839
795.71        91.72375
796.12        89.60416
796.53        88.60347
796.94        88.32581
797.35        88.88933
797.76        90.48981
798.18        92.42671
798.59        93.58388
799.00        93.53748
799.41        92.42011
799.82         90.8325
800.23         89.9003
800.64        89.89365
801.06        90.38628
801.47        91.16051
801.88        91.73511
802.29        91.91863
802.70        91.88925
803.11        91.73327
803.52        91.55756
803.93        91.44771
804.34        91.33914
804.75        91.25201
805.17        91.40863
805.58        91.88747
805.99        92.09086
806.40         92.0123
806.81        92.95881
807.22        94.26318
807.63        92.96982
808.04        89.81542
808.45        88.48554
808.86        89.27622
809.27         90.2929
809.68        91.08232
810.09        91.67742
810.50        91.85699
810.91        91.63076
811.32        91.23722
811.73        91.04439
812.14         91.1427
812.55        91.44639
812.96         91.8597
813.37        92.01332
813.78        91.92479
814.19         92.1591
814.60        92.48881
815.01        92.16216
815.42        91.15486
815.83        89.78007
816.24        88.54527
816.65         88.2152
817.05        89.03421
817.46         90.7453
817.87        92.67604
818.28        93.61541
818.69        93.22369
819.10        91.77385
819.51        90.01499
819.92        89.23484
820.33        89.76743
820.74        91.23139
821.14        92.88055
821.55        93.39297
821.96        92.51009
822.37        90.71666
822.78        88.76517
823.19        87.75871
823.60        87.97735
824.00        89.12637
824.41        90.65169
824.82         91.7164
825.23        91.96186
825.64        91.68205
826.04         91.1132
826.45        90.60447
826.86        90.28372
827.27        89.98442
827.68         89.7731
828.08        89.83891
828.49        90.12434
828.90        90.69472
829.31        91.29712
829.72        91.42645
830.12        90.99685
830.53        90.14156
830.94        89.27818
831.35        88.99505
831.75        89.45862
832.16        90.43291
832.57        91.64552
832.97        92.52327
833.38         92.7711
833.79        92.56015
834.20        92.13687
834.60         91.8742
835.01        91.90469
835.42        92.09628
835.82        92.28435
836.23        92.11319
836.64        91.56667
837.04        90.81628
837.45        90.10913
837.86         89.8242
838.26        90.05783
838.67        90.62313
839.08        91.36337
839.48        91.98159
839.89        92.30039
840.29        92.41722
840.70        92.29298
841.11        91.84979
841.51        91.13474
841.92         90.1552
842.33        89.18605
842.73        88.69889
843.14        88.76512
843.54          89.322
843.95        90.01656
844.35        90.31293
844.76        90.05076
845.17        89.39892
845.57        88.64639
845.98         88.2566
846.38        88.33593
846.79        88.70235
847.19        89.16925
847.60        89.30784
848.00        89.05078
848.41        88.53639
848.81        87.97453
849.22        87.58454
849.62        87.49862
850.03        87.65192
850.43        88.04359
850.84        88.54782
851.24        89.14706
851.65        89.64337
852.05         90.2021
852.46        90.89825
852.86         91.7095
853.27        92.62566
853.67        93.04691
854.07        92.20665
854.48        90.16694
854.88        87.22972
855.29        84.43693
855.69        83.28871
856.10        84.07288
856.50        86.59673
856.90        89.92893
857.31         91.9033
857.71         91.8109
858.12        90.20846
858.52        88.07482
858.92        86.72586
859.33        86.45623
859.73        86.91293
860.13        87.85745
860.54         88.7988
860.94        89.58375
861.34        90.30782
861.75        90.94836
862.15        91.55101
862.55        92.06873
862.96        92.40145
863.36        92.51317
863.76        92.33195
864.17        91.89384
864.57        91.33926
864.97        90.82652
865.38        90.56398
865.78        90.64944
866.18        90.94753
866.58        91.43219
866.99        92.02486
867.39        92.72794
867.79        93.58069
868.19        94.26239
868.60        94.17973
869.00        93.25735
869.40        91.64395
869.80         90.1428
870.21        90.01604
870.61        91.62292
871.01        94.59623
871.41        97.94895
871.81        99.97619
872.22        100.1731
872.62        99.01608
873.02         97.4442
873.42        96.95582
873.82        97.88288
874.22        99.85341
874.63        102.1217
875.03        103.0537
875.43        102.0024
875.83        99.71207
876.23        97.59292
876.63        97.11865
877.03        98.81706
877.44        103.0709
877.84        97.04366
878.24        111.1554
878.64        109.1512
879.04        104.4971
879.44        101.8341
879.84         100.465
880.24        101.2013
880.64        103.2812
881.04         106.644
881.44        108.9415
881.84        108.6054
882.24        106.4985
882.65        104.0309
883.05         102.983
883.45        103.6808
883.85        105.5561
884.25        107.8768
884.65        109.3547
885.05        109.5021
885.45        108.8209
885.85        107.8464
886.25         107.265
886.65        107.2736
887.05        107.6013
887.45        108.1468
887.85        108.7662
888.25        109.3295
888.65        109.9008
889.04        110.2996
889.44        110.2789
889.84        109.7926
890.24        108.8903
890.64        107.8572
891.04        107.1402
891.44        106.8463
891.84        106.9158
892.24        107.0978
892.64        106.9188
893.04        106.3481
893.44        105.6466
893.83        105.1725
894.23        105.4683
894.63        106.5873
895.03        108.2551
895.43        110.2742
895.83        112.2533
896.23        113.9053
896.63        115.2872
897.02         116.006
897.42        115.4726
897.82        113.7529
898.22        111.1325
898.62        108.5014
899.01        107.1554
899.41        107.3669
899.81        108.6862
900.21        110.4678
900.61        111.6182
901.00        111.7871
901.40        111.3498
901.80        110.5109
902.20        109.5916
902.59        108.7672
902.99         107.895
903.39        107.1856
903.79        107.0277
904.18        107.4849
904.58        108.5061
904.98        109.7334
905.38         110.581
905.77        110.8562
906.17        110.6756
906.57        110.2822
906.96        110.1124
907.36         110.222
907.76        110.5242
908.15        110.7415
908.55        110.3136
908.95        109.2197
909.34        107.6271
909.74         106.151
910.14        105.5626
910.53        106.0586
910.93        107.4479
911.33        109.1758
911.72        110.2272
912.12        110.2492
912.52        109.5561
912.91        108.7143
913.31        108.4834
913.70        109.0515
914.10        110.2001
914.49        111.5533
914.89        111.9544
915.29        111.0494
915.68        109.2249
916.08        107.4752
916.47        106.6239
916.87         106.815
917.26        107.7554
917.66        108.8045
918.05        108.9967
918.45        108.0976
918.84        106.4776
919.24        104.8721
919.64        104.3123
920.03        105.0609
920.42        106.7984
920.82        108.8683
921.21         110.293
921.61        110.5773
922.00        110.0468
922.40        109.1039
922.79         108.243
923.19         107.633
923.58        107.2615
923.98        107.0167
924.37        106.3135
924.77        105.2067
925.16        104.8084
925.55        103.9684
925.95        104.7003
926.34        106.6154
926.74        109.2062
927.13        111.7013
927.52        112.7086
927.92        112.0644
928.31        110.2171
928.70        107.7243
929.10         105.525
929.49        103.9473
929.89         102.773
930.28        102.3094
930.67        103.0549
931.07        104.8553
931.46        107.6165
931.85        110.3332
932.24        111.4815
932.64        110.7664
933.03        108.4911
933.42         105.377
933.82        103.1361
934.21        102.3336
934.60        102.5367
934.99        103.2738
935.39        103.8568
935.78          104.15
936.17        104.6379
936.56        105.2246
936.96        104.4505
937.35        103.8476
937.74        102.4503
938.13        101.4836
938.53        101.6597
938.92        102.9452
939.31        105.2338
939.70        107.8006
940.09        108.7652
940.49        107.4905
940.88        104.7829
941.27        101.8754
941.66        100.1895
942.05        99.94619
942.44        100.6904
942.84        102.0451
943.23        103.4819
943.62        104.6139
944.01        105.5424
944.40        106.2418
944.79        106.6881
945.18        106.8732
945.57        106.7055
945.97        105.9701
946.36        104.5884
946.75        102.8364
947.14        101.1026
947.53        99.83303
947.92        99.30717
948.31        99.46587
948.70        100.2561
949.09        101.4472
949.48        102.4337
949.87        102.9003
950.26        102.9035
950.65        102.7423
951.04        102.9537
951.43        103.6443
951.82        104.6024
952.21        105.4192
952.60        105.4831
952.99        104.6624
953.38        103.1869
953.77         101.549
954.16        100.4228
954.55        99.98462
954.94        100.1457
955.33        100.4398
955.72        100.0712
956.11        98.88043
956.50        97.07222
956.89        95.47186
957.28        95.55227
957.66        97.71269
958.05        101.2171
958.44        104.8334
958.83        106.7481
959.22        106.5281
959.61         104.628
960.00        101.9792
960.39         100.128
960.78        99.55903
961.16        99.93022
961.55        100.4848
961.94        99.96559
962.33        98.14153
962.72        95.60271
963.11        93.28193
963.49         92.3466
963.88        92.98448
964.27        94.88872
964.66        97.29268
965.04        98.57026
965.43        98.00019
965.82        96.19322
966.21        94.15563
966.60        93.18951
966.98        93.54001
967.37        94.73167
967.76        96.19958
968.15        96.87872
968.53        96.41528
968.92        95.20638
969.31        93.76347
969.69        92.68286
970.08        92.16527
970.47         92.0875
970.86        92.23254
971.24        92.26862
971.63        92.07134
972.02        91.70313
972.40        91.65562
972.79        92.70181
973.17         95.0903
973.56        98.41475
973.95        101.5787
974.33        102.5531
974.72         100.841
975.11        97.24941
975.49        93.35538
975.88          91.214
976.26        91.13743
976.65        92.66112
977.04        94.87991
977.42        95.52433
977.81        93.72734
978.19        90.42075
978.58        87.49856
978.96        86.86193
979.35        88.78371
979.74        92.73605
980.12         97.8867
980.51        101.1477
980.89        101.5371
981.28        99.88557
981.66        97.30482
982.05        95.22418
982.43        93.99931
982.82        93.26095
983.20        93.16827
983.59        94.12561
983.97        96.23016
984.35         99.5126
984.74        103.2576
985.12        106.0366
985.51        106.7051
985.89        105.5099
986.28        102.7565
986.66        99.18126
987.04        95.71519
987.43        92.59877
987.81        90.29527
988.20        89.26627
988.58        89.49721
988.96         91.1266
989.35        94.39401
989.73        98.68095
990.12        101.8457
990.50        103.5133
990.88        103.3491
991.27        101.8609
991.65        99.47285
992.03        96.01013
992.42         92.5272
992.80        90.93356
993.18        91.79077
993.56        94.05754
993.95        96.51539
994.33        98.05824
994.71        98.41113
995.10        98.15961
995.48        97.30338
995.86          95.701
996.24        93.39139
996.63        90.09933
997.01        86.65875
997.39        85.53178
997.77        87.71113
998.15        92.59666
998.54        97.72653
998.92         99.8996
999.30        98.12995
999.68        93.29169
1000.06        86.71649
1000.45        81.79329
1000.83        79.97901
1001.21        80.19859
1001.59        81.84422
1001.97        84.38863
1002.35        87.66219
1002.73        92.47144
1003.12         97.5388
1003.50        98.87256
1003.88        94.61426
1004.26         86.6755
1004.64        79.18916
1005.02        75.78401
1005.40        76.81802
1005.78        82.34845
1006.16        92.65912
1006.54        101.8019
1006.92        103.7061
1007.30        100.9812
1007.69        97.95799
1008.07           97.57
1008.45        100.4884
1008.83        107.7805
1009.21        124.0413
1009.59        154.0777
1009.97        182.7311
1010.35        152.8372
1010.73        85.36019
1011.11         65.1724
1011.49        67.49667
1011.86        75.27748
1012.24        81.12741
1012.62        83.48354
1013.00         83.3929
1013.38        81.56926
1013.76        80.25664
1014.14         86.4687
1014.52        105.8687
1014.90        140.0372
1015.28        180.1273
1015.66        202.0385
1016.04        190.4785
1016.41        148.5169
1016.79        98.81771
1017.17         67.8432
1017.55        57.62839
1017.93        57.41793
1018.31         61.0198
1018.69        65.31808
1019.06         70.3554
1019.44        77.57484
1019.82        90.51699
1020.20        114.7264
1020.58        158.3946
1020.95        238.2113
1021.33         413.707
1021.71       -2120.936
1022.09       -75.03285
1022.46        39.52427
1022.84        77.62469
1023.22        93.42538
1023.60        100.5806
1023.97        98.42148
1024.35        114.9577
1024.73        119.3614
