SpectraSmart Spectrum 2.9.0.0
--------- Device Information -----------
Spectrum Name :  反射率_0
Saving Time :  2024/04/25 23:54:16
Spectro-Module Model Name : SE2030-DUVN
Spectro-Module Serial Number : OS361AC55029948
Wavelength Start : 200
Wavelength End : 1025
Wavelength Unit : Wavelength(nm)
Spectrum Unit : Reflectance(%)
-----------Spectrum Setting ------------
Integration Time : 20ms
Average : 10
Boxcar : 0
Background removal :  enabled
linearity correction :  enabled
SC :  disabled
Intensity correction :  disabled
DWT denoise :  enabled
savitzky-golay :  disabled
FFT :  disabled
Running average :  disabled
Kalman :  disabled
High pass :  disabled
---------------BEGIN--------------------
Wavelength(nm)             Reflectance(%)
200.29               0
200.75        77.51869
201.21        72.30054
201.67        66.64566
202.13        62.64679
202.58        60.53466
203.04        60.02583
203.50        60.98791
203.96        63.06348
204.42        65.52248
204.88          67.973
205.34        69.93893
205.80        71.10883
206.26        71.60638
206.72        71.53292
207.18        69.57694
207.64        63.29575
208.10         56.3625
208.55        53.21379
209.01        53.33149
209.47         55.4911
209.93        59.05361
210.39        64.55341
210.85        69.93053
211.31        70.19555
211.77        64.08388
212.23        53.43044
212.69        42.98132
213.14        40.18562
213.60        46.20645
214.06        59.05684
214.52        73.79668
214.98        82.67796
215.44        83.67767
215.90        79.23607
216.36        72.69441
216.81        68.66488
217.27        68.45638
217.73        70.39133
218.19        72.17181
218.65        70.84059
219.11        65.29608
219.57        54.94188
220.02        41.42505
220.48        33.80338
220.94        37.04959
221.40        48.68818
221.86        59.50216
222.32        60.00776
222.77        51.51357
223.23         39.4175
223.69        29.34788
224.15          26.982
224.61         31.6544
225.06        40.47366
225.52        49.36576
225.98        53.11943
226.44        50.84496
226.90        44.78563
227.36        37.95826
227.81        34.42648
228.27        35.31651
228.73        38.97211
229.19        43.56424
229.65        46.45291
230.10        47.02666
230.56        46.34506
231.02        45.42339
231.48        45.35301
231.93        46.21948
232.39        47.55314
232.85        48.76414
233.31        49.05892
233.77        48.24653
234.22        46.59981
234.68        44.62077
235.14        43.23678
235.60        42.84044
236.05        43.22406
236.51        43.94944
236.97        44.31377
237.43        44.15517
237.88        43.72329
238.34        43.31748
238.80        43.82888
239.26        45.60078
239.71        48.30212
240.17        51.24922
240.63        53.78444
241.08        55.67107
241.54        57.03791
242.00        57.81737
242.46        57.89896
242.91        57.25651
243.37        54.56767
243.83        48.91738
244.28        50.93767
244.74        91.23009
245.20        116.9228
245.66        116.6407
246.11        114.0011
246.57        110.7414
247.03        101.2032
247.48        60.10688
247.94        27.71486
248.40        58.48178
248.85        74.10901
249.31        81.40842
249.77        84.87575
250.22        86.85914
250.68        88.60208
251.14          89.976
251.59        89.18219
252.05        85.41423
252.51        80.02444
252.96        74.63143
253.42         70.8494
253.88        68.16315
254.33        66.28263
254.79        66.08875
255.25         68.0588
255.70        71.46878
256.16         75.5209
256.62        78.46754
257.07        78.63695
257.53        76.61273
257.99        72.88521
258.44        68.74517
258.90        66.57893
259.35        65.68276
259.81        65.36526
260.27        64.22715
260.72        60.89345
261.18        56.08547
261.63         50.4833
262.09         45.4863
262.55        42.09629
263.00        40.26316
263.46        39.50779
263.91        39.06622
264.37        38.35783
264.83        37.20107
265.28        35.70554
265.74        34.27451
266.19        33.26442
266.65        32.83969
267.11        32.75788
267.56        32.67607
268.02        32.17516
268.47        31.17018
268.93        29.80362
269.38        28.32536
269.84        27.37316
270.30        27.09666
270.75        27.33478
271.21        27.68437
271.66        27.54432
272.12        26.78087
272.57        25.59383
273.03        24.39642
273.48        23.73225
273.94        23.72834
274.39        24.14883
274.85        24.64071
275.31        24.68724
275.76        24.17495
276.22        23.31231
276.67        22.36337
277.13         21.7884
277.58        21.63197
278.04        21.75711
278.49        21.90033
278.95        21.74733
279.40        21.22573
279.86        20.51183
280.31        19.76784
280.77        19.32808
281.22        19.21358
281.68        19.31705
282.13        19.48145
282.59        19.51718
283.04        19.37451
283.50        19.14999
283.95        18.87492
284.41        18.60687
284.86        18.36782
285.32        18.14086
285.77        17.97513
286.22        18.00426
286.68        18.20965
287.13        18.52925
287.59         18.8062
288.04        18.80118
288.50         18.4996
288.95        17.97565
289.41        17.39898
289.86        16.93183
290.32        16.67412
290.77        16.56007
291.22        16.58946
291.68        16.72343
292.13        16.94339
292.59         17.2602
293.04        17.64414
293.50        18.04336
293.95        18.42928
294.40        18.78213
294.86        19.10288
295.31        19.41261
295.77        19.72254
296.22        20.03358
296.68        20.32988
297.13        20.55795
297.58        20.73109
298.04        20.88249
298.49        21.08652
298.95        21.48875
299.40        22.09735
299.85        22.85696
300.31        23.64166
300.76        24.26676
301.21        24.66674
301.67        24.91499
302.12         25.0539
302.58        25.19489
303.03        25.35806
303.48        25.52201
303.94        25.72723
304.39         26.0056
304.84        26.35911
305.30        26.77206
305.75        27.15256
306.20        27.36421
306.66        27.40207
307.11        27.29915
307.57        27.15766
308.02        27.06513
308.47        27.07518
308.93        27.15446
309.38        27.28602
309.83        27.47141
310.29        27.68216
310.74        27.90557
311.19        28.08649
311.65        28.13876
312.10        28.04728
312.55         27.8413
313.00        27.55788
313.46        27.27179
313.91        27.01037
314.36        26.77543
314.82        26.60567
315.27        26.54414
315.72         26.5936
316.18        26.73494
316.63        26.90508
317.08        26.97558
317.53        26.91002
317.99        26.73222
318.44        26.50815
318.89        26.34937
319.35        26.27878
319.80        26.26885
320.25        26.25575
320.70         26.1374
321.16        25.89513
321.61        25.56854
322.06        25.22558
322.51        24.96437
322.97        24.79852
323.42        24.70279
323.87        24.61897
324.32        24.45587
324.78         24.1894
325.23        23.85376
325.68        23.49466
326.13        23.18627
326.59        22.94976
327.04        22.78753
327.49        22.66796
327.94        22.53919
328.39        22.39156
328.85        22.23299
329.30        22.13507
329.75        22.18472
330.20        22.39017
330.66        22.69114
331.11        23.00912
331.56        23.17892
332.01        23.15363
332.46        22.96442
332.92        22.67242
333.37         22.4226
333.82        22.26637
334.27        22.18453
334.72         22.1405
335.17        22.06694
335.63        21.94365
336.08        21.80027
336.53        21.68921
336.98        21.69014
337.43        21.81306
337.88        22.03127
338.34        22.23063
338.79        22.27488
339.24        22.11511
339.69        21.79431
340.14        21.46013
340.59        21.36807
341.05         21.5618
341.50        21.95365
341.95        22.38004
342.40         22.6034
342.85          22.569
343.30        22.36008
343.75        22.04892
344.20        21.76743
344.66        21.56921
345.11         21.3832
345.56        21.23916
346.01        21.17804
346.46        21.18783
346.91        21.28119
347.36        21.32538
347.81        21.09959
348.26        20.59426
348.72        19.91644
349.17        19.26264
349.62        19.03795
350.07        19.32724
350.52        19.98345
350.97        20.78409
351.42        21.38978
351.87         21.6918
352.32        21.77854
352.77         21.7015
353.22         21.5501
353.67        21.36948
354.13        21.13297
354.58        20.86841
355.03        20.66373
355.48         20.5408
355.93        20.50533
356.38        20.50529
356.83        20.43935
357.28        20.28383
357.73        20.06156
358.18        19.83594
358.63        19.70808
359.08        19.69624
359.53        19.76778
359.98        19.83715
360.43        19.77479
360.88        19.55678
361.33         19.2228
361.78        18.87704
362.23        18.68795
362.68        18.68798
363.13        18.81583
363.58        18.95845
364.03        18.93989
364.48        18.72147
364.93        18.36969
365.38        17.96805
365.83         17.6478
366.28        17.45441
366.73          17.346
367.18        17.30276
367.63        17.29532
368.08        17.29771
368.53        17.31222
368.98        17.31217
369.43        17.24936
369.88        17.11892
370.33        16.94353
370.78         16.7326
371.23        16.50976
371.68        16.29512
372.13         16.0786
372.58        15.92978
373.03        15.96069
373.48        16.17345
373.93        16.52298
374.38        16.85807
374.83        16.94707
375.28        16.74564
375.72        16.31377
376.17        15.81669
376.62        15.48747
377.07        15.39808
377.52        15.47801
377.97        15.64305
378.42        15.75394
378.87        15.76399
379.32        15.72229
379.77        15.65489
380.22        15.59332
380.67        15.54856
381.11        15.50133
381.56        15.44494
382.01        15.38541
382.46        15.32131
382.91        15.25204
383.36        15.17864
383.81        15.09841
384.26        15.01254
384.71        14.92937
385.15        14.83278
385.60        14.70512
386.05        14.54148
386.50        14.34335
386.95        14.15759
387.40        14.06643
387.85        14.08439
388.29        14.18095
388.74        14.28261
389.19         14.2786
389.64        14.15406
390.09        13.93586
390.54         13.7077
390.98        13.60977
391.43        13.68297
391.88        13.87431
392.33        14.07674
392.78        14.13432
393.23        14.02438
393.67        13.79264
394.12        13.56445
394.57        13.46543
395.02        13.51953
395.47        13.68328
395.91        13.86906
396.36         13.9049
396.81        13.75175
397.26        13.45787
397.71         13.1386
398.15         12.9479
398.60        12.93543
399.05         13.0521
399.50        13.18351
399.95        13.13341
400.39        12.93167
400.84        12.58638
401.29         12.2457
401.74        12.15084
402.18        12.36967
402.63        12.80535
403.08        13.28159
403.53         13.5212
403.97        13.45633
404.42        13.17047
404.87        12.80513
405.32        12.60359
405.76        12.63278
406.21        12.81055
406.66        13.03226
407.11        13.15705
407.55        13.15312
408.00         13.0651
408.45        12.93761
408.90        12.84221
409.34        12.80813
409.79        12.80609
410.24        12.82428
410.68        12.84993
411.13        12.88001
411.58        12.92836
412.03        12.97854
412.47        13.00021
412.92        12.97823
413.37         12.9137
413.81        12.84771
414.26        12.86104
414.71         12.9562
415.15        13.11491
415.60        13.24808
416.05        13.23058
416.49         13.0401
416.94        12.73121
417.39        12.40006
417.83        12.21175
418.28        12.21741
418.73        12.35195
419.17        12.55069
419.62        12.70677
420.07        12.78853
420.51        12.83162
420.96        12.82154
421.41        12.73126
421.85         12.5687
422.30        12.35906
422.74        12.16513
423.19        12.10933
423.64        12.19535
424.08        12.39779
424.53        12.62784
424.98        12.74815
425.42        12.72053
425.87        12.57968
426.31        12.38266
426.76        12.25926
427.21        12.22212
427.65        12.15377
428.10        12.10423
428.54        12.22321
428.99        12.50777
429.44        12.89164
429.88        13.22498
430.33        13.31144
430.77         13.1226
431.22        12.71766
431.66        12.28253
432.11        12.15163
432.56        12.35726
433.00        12.74025
433.45        13.11929
433.89        13.34115
434.34        13.30063
434.78        12.93862
435.23        12.50024
435.67        12.43951
436.12        12.72469
436.57        12.89654
437.01        12.87591
437.46        12.85335
437.90        12.83851
438.35        12.78108
438.79        12.69342
439.24        12.63181
439.68        12.61393
440.13        12.56779
440.57        12.52411
441.02        12.70145
441.46        12.99751
441.91        12.94987
442.35        12.60562
442.80        12.42291
443.24        12.38123
443.69        12.30762
444.13         12.1748
444.58        11.94984
445.02        11.69757
445.47        11.66611
445.91        11.80916
446.36        11.83999
446.80        11.73237
447.24        11.64754
447.69        11.60825
448.13         11.5671
448.58        11.53506
449.02        11.52422
449.47        11.51869
449.91        11.49314
450.36        11.44789
450.80        11.38392
451.25        11.34253
451.69        11.37765
452.13        11.49488
452.58        11.66068
453.02        11.81997
453.47        11.88216
453.91        11.83303
454.36        11.70693
454.80        11.54298
455.24        11.40979
455.69        11.34141
456.13        11.31177
456.58        11.33747
457.02          11.424
457.46        11.56731
457.91        11.75774
458.35        11.94544
458.79        12.04034
459.24         12.0333
459.68        11.93527
460.13        11.81732
460.57        11.75858
461.01         11.7931
461.46        11.88894
461.90        12.00333
462.34        12.05513
462.79        12.02395
463.23        11.93013
463.68        11.82978
464.12        11.81418
464.56        11.90619
465.01        12.07835
465.45        12.23843
465.89        12.29449
466.34        12.24072
466.78        12.04463
467.22        11.81613
467.67         11.8516
468.11        12.12065
468.55        12.25524
468.99        12.22031
469.44        12.20901
469.88        12.26169
470.32        12.41682
470.77        12.61428
471.21        12.66546
471.65        12.54858
472.10        12.40361
472.54        12.28432
472.98        12.24093
473.42        12.29615
473.87        12.43592
474.31        12.61076
474.75        12.73509
475.20        12.78877
475.64        12.78807
476.08        12.76535
476.52        12.77115
476.97        12.81886
477.41        12.89476
477.85        12.96779
478.29        13.01549
478.74        13.03393
479.18        12.96852
479.62        12.85898
480.06        12.98385
480.50        13.08155
480.95        13.17775
481.39        13.16169
481.83        13.13487
482.27        13.10028
482.72        12.95792
483.16        12.77217
483.60        12.82907
484.04        13.13478
484.48        13.28749
484.93        13.47092
485.37        13.87827
485.81        14.37361
486.25        14.65435
486.69        19.08528
487.14        15.05584
487.58        10.04751
488.02        12.17299
488.46        13.78838
488.90         13.7941
489.34        13.84082
489.79        13.79602
490.23        14.57949
490.67        15.06384
491.11        15.03421
491.55        14.96193
491.99        14.81098
492.43        14.60402
492.88         14.4097
493.32        14.29518
493.76        14.20824
494.20        14.31768
494.64        14.59263
495.08        14.98204
495.52        15.41525
495.96        15.79993
496.41        16.05814
496.85        16.19137
497.29        16.21556
497.73        16.00469
498.17        15.76651
498.61        15.88367
499.05        16.36051
499.49        16.44478
499.93        16.53552
500.37        16.65697
500.82        16.75169
501.26        16.96579
501.70        17.20777
502.14        17.34176
502.58        17.34993
503.02        17.37211
503.46        17.41522
503.90        17.38567
504.34        17.31489
504.78        17.29801
505.22        17.34894
505.66        17.45018
506.10        17.55711
506.54        17.59113
506.98        17.53919
507.42         17.4317
507.86        17.33715
508.30        17.36021
508.74        17.51797
509.18        17.76838
509.62        18.04444
510.06        18.23571
510.50        18.31117
510.94        18.31224
511.38        18.26661
511.82        18.21911
512.26         18.1901
512.70        18.15618
513.14        18.14964
513.58        18.22544
514.02        18.37574
514.46          18.583
514.90        18.76362
515.34        18.74611
515.78        18.47758
516.22        18.17086
516.66        17.94941
517.10        17.54786
517.54         17.0054
517.98        17.95844
518.42        17.89899
518.86        18.31529
519.30        18.43757
519.74        18.52643
520.18        18.57852
520.62        18.55745
521.06        18.49869
521.50        18.38815
521.93        18.25406
522.37        18.15698
522.81        18.11201
523.25        18.10947
523.69        18.14123
524.13        18.18938
524.57        18.24096
525.01         18.2954
525.45        18.33438
525.89         18.3292
526.32        18.27275
526.76        18.17513
527.20        18.05094
527.64        17.93231
528.08        17.83496
528.52        17.73645
528.96        17.63909
529.40        17.59294
529.83        17.60793
530.27        17.49262
530.71        17.56988
531.15        17.52405
531.59        17.45303
532.03        17.35267
532.46        17.26862
532.90        17.27885
533.34        17.38455
533.78         17.5559
534.22        17.71767
534.66          17.759
535.09        17.65691
535.53        17.45835
535.97        17.22543
536.41        17.06069
536.85        16.99721
537.28        17.00671
537.72        17.06395
538.16        17.12666
538.60        17.17765
539.04        17.21766
539.47        17.25092
539.91        17.32503
540.35        17.42469
540.79        17.47398
541.22        17.48115
541.66        17.53093
542.10        17.62695
542.54        17.71656
542.97        17.80718
543.41        17.94102
543.85        18.11382
544.29        18.32334
544.72        18.51698
545.16        18.61976
545.60        18.62183
546.04         18.5435
546.47        18.47585
546.91        18.57371
547.35        18.85325
547.79        19.26596
548.22        19.68678
548.66        19.89972
549.10        19.87499
549.53        19.71495
549.97        19.53811
550.41        19.47464
550.84        19.57147
551.28         19.7962
551.72        20.10948
552.15         20.4361
552.59        20.73191
553.03        21.01047
553.46        21.24367
553.90        21.40615
554.34        21.50502
554.77        21.52424
555.21        21.49343
555.65        21.52984
556.08        21.66204
556.52        21.59543
556.96        21.82777
557.39        21.93943
557.83        22.07717
558.27        22.22284
558.70          22.366
559.14        22.47267
559.57        22.52907
560.01        22.55844
560.45        22.55915
560.88        22.52991
561.32         22.4979
561.75        22.45187
562.19        22.43814
562.63        22.49483
563.06         22.6214
563.50        22.80845
563.93        23.00876
564.37        23.15741
564.80        23.22994
565.24        23.25279
565.68        23.25218
566.11        23.27195
566.55        23.34321
566.98        23.44781
567.42        23.58595
567.85        23.75006
568.29        23.94795
568.72        24.11149
569.16         24.2772
569.60        24.58034
570.03        24.91481
570.47         25.0117
570.90        24.95705
571.34        24.68443
571.77        25.05105
572.21        25.09316
572.64        25.13372
573.08        24.80108
573.51        24.21796
573.95        25.28436
574.38        26.73132
574.82        26.32673
575.25        26.04339
575.69        25.18469
576.12        24.74926
576.56        24.70474
576.99        25.34625
577.42        26.33543
577.86        26.24351
578.29        26.17964
578.73        27.56227
579.16        25.32145
579.60        22.99441
580.03        23.97658
580.47        25.69068
580.90         26.0093
581.33        25.69216
581.77        25.23842
582.20        27.76341
582.64        27.13971
583.07        22.89026
583.51        22.32669
583.94        22.07429
584.37        23.05546
584.81        23.98225
585.24        25.12737
585.68        25.76174
586.11         25.0782
586.54        23.42868
586.98        22.65408
587.41        22.75984
587.85        23.76632
588.28        24.53679
588.71        23.44541
589.15        22.68007
589.58        23.06969
590.01        23.36736
590.45        23.83832
590.88        23.78452
591.31        23.43153
591.75        23.29399
592.18        23.44274
592.61        24.09948
593.05        24.57122
593.48        25.54767
593.91        25.55575
594.35        23.49986
594.78        23.15765
595.21        23.34589
595.65        24.51163
596.08        25.35607
596.51        24.41474
596.94        23.86841
597.38        24.31296
597.81        25.58123
598.24        26.27513
598.68        26.03163
599.11        26.21465
599.54        27.21565
599.97        28.02587
600.41        26.72762
600.84        27.13918
601.27        27.89683
601.70         27.8167
602.14        28.12297
602.57        28.05319
603.00        28.60519
603.43        29.71472
603.87        30.94905
604.30        31.13771
604.73        30.48021
605.16        30.40564
605.60        31.36852
606.03        32.34663
606.46        33.13167
606.89        33.22557
607.32        32.84158
607.76        33.21943
608.19        34.48988
608.62        34.30497
609.05        34.07077
609.48        34.63127
609.92        34.84551
610.35        35.37695
610.78        36.87967
611.21        37.22033
611.64        36.11543
612.07        36.73452
612.50        37.23798
612.94        37.78418
613.37        37.83255
613.80        38.18073
614.23        38.83294
614.66        39.10089
615.09         39.5155
615.52        39.74207
615.96        39.88599
616.39          40.145
616.82        39.84275
617.25        40.10461
617.68        40.76136
618.11        41.37631
618.54        41.78975
618.97        41.66511
619.40        41.26313
619.84        41.49071
620.27         42.3163
620.70        43.00031
621.13        43.38684
621.56         43.2017
621.99        42.82279
622.42        43.31755
622.85        44.45577
623.28        44.17144
623.71         43.8467
624.14        43.73291
624.57        43.57756
625.00        43.57427
625.43        43.56266
625.86        43.21778
626.29        43.36545
626.72        43.45469
627.15        43.24191
627.58        43.16143
628.01        43.06784
628.44        42.84531
628.87         42.5345
629.30        42.40096
629.73        42.38501
630.16        42.14984
630.59        41.67518
631.02        41.14855
631.45        40.63168
631.88        40.13929
632.31        39.69025
632.74        39.30854
633.17        38.91676
633.60        38.54124
634.03        38.15388
634.46         37.7659
634.89        37.36346
635.32          36.925
635.75        36.45162
636.18        35.94941
636.61        35.44772
637.04        34.99128
637.47        34.58693
637.89          34.225
638.32        33.87464
638.75        33.50543
639.18        33.11575
639.61        32.72724
640.04        32.35799
640.47        32.02918
640.90        31.74817
641.33        31.50359
641.76        31.29048
642.18        31.14864
642.61        31.07633
643.04        30.99208
643.47        30.86009
643.90         31.0221
644.33        30.83281
644.76         30.8207
645.18        30.80557
645.61        30.82286
646.04        30.87142
646.47        30.93991
646.90        31.06527
647.33        31.28083
647.75        31.60094
648.18        32.04005
648.61        32.49275
649.04        32.79565
649.47        32.93061
649.89        32.86185
650.32        32.81867
650.75        33.28436
651.18        34.22488
651.61        35.18243
652.03        35.95183
652.46        36.41125
652.89        36.75024
653.32        37.00329
653.74        37.40945
654.17         38.3391
654.60        39.56515
655.03        38.48431
655.46        39.73857
655.88        42.49464
656.31        45.90321
656.74        104.4715
657.16        68.07909
657.59        23.86334
658.02        18.45612
658.45        32.26856
658.87        41.80564
659.30        44.41896
659.73        44.08947
660.15        43.07935
660.58        45.30489
661.01        46.88507
661.44        45.64916
661.86        45.44425
662.29        45.79859
662.72        46.61625
663.14        47.74059
663.57         47.9777
664.00        47.48822
664.42        47.60809
664.85         48.4035
665.27        49.01049
665.70        49.25716
666.13        49.37992
666.55         49.3636
666.98        49.14403
667.41        48.88795
667.83        48.90303
668.26        49.25421
668.69        49.82349
669.11        50.40698
669.54         50.9119
669.96        50.79459
670.39        50.56253
670.82        50.25603
671.24        50.16908
671.67        50.42318
672.09        50.92653
672.52        51.46563
672.94        52.14527
673.37         51.9864
673.80        51.93227
674.22        51.83331
674.65         51.8681
675.07        52.05933
675.50        52.21701
675.92        52.33059
676.35        52.49842
676.77        52.71668
677.20        52.90182
677.62         53.0652
678.05        53.23105
678.47        53.39101
678.90        53.55044
679.32        53.70356
679.75        53.74252
680.17        53.88254
680.60        53.96467
681.02         54.0402
681.45        54.07041
681.87        54.06575
682.30        54.02137
682.72        54.00365
683.15        54.15147
683.57        54.49183
684.00        54.85397
684.42        55.32504
684.85        55.53779
685.27        55.51646
685.70         55.2611
686.12        54.88546
686.54         54.9447
686.97        54.93504
687.39        55.23448
687.82        55.56674
688.24        55.79433
688.66        55.85502
689.09        55.81586
689.51        55.75604
689.94        55.79969
690.36         55.9945
690.78        56.18525
691.21        56.35445
691.63         56.7403
692.06        57.20136
692.48        57.17794
692.90         56.7975
693.33        56.74274
693.75        57.06556
694.17        57.41027
694.60        57.68753
695.02        57.84686
695.44        57.91095
695.87         57.9426
696.29        58.02118
696.71        57.81509
697.14        57.49068
697.56        57.94156
697.98        58.93213
698.41        58.85285
698.83         58.2999
699.25        57.95827
699.68        58.06991
700.10        58.08276
700.52        58.01779
700.94        58.18589
701.37        58.52976
701.79        58.87504
702.21        59.14714
702.64        59.39296
703.06        59.57098
703.48        59.60648
703.90        59.50742
704.33        59.30285
704.75        59.05296
705.17        58.92816
705.59        58.97807
706.01         59.0726
706.44         59.1736
706.86         59.6627
707.28        59.80188
707.70        60.17294
708.12        60.48532
708.55        60.53269
708.97        60.32986
709.39        60.13366
709.81        60.03343
710.23        59.97672
710.66         60.0001
711.08        60.21596
711.50        60.50377
711.92        60.61975
712.34        60.52188
712.76        60.27426
713.19        60.01956
713.61        60.01086
714.03        60.28766
714.45        60.76509
714.87        61.25059
715.29        61.44407
715.71         61.2817
716.13        60.86256
716.56        60.37169
716.98        60.13369
717.40         60.2274
717.82        60.55333
718.24        60.96605
718.66        61.21803
719.08        61.23587
719.50         61.1041
719.92        60.90115
720.34        60.76428
720.76        60.74314
721.19        60.69181
721.61        60.79582
722.03        60.93547
722.45        61.14881
722.87        61.42652
723.29        61.72041
723.71         61.9385
724.13         62.0517
724.55        62.08203
724.97        62.06136
725.39        62.02411
725.81        61.98653
726.23         61.9886
726.65        62.05831
727.07        61.95926
727.49        62.13791
727.91        62.24897
728.33        62.38494
728.75        62.46145
729.17        62.46224
729.59        62.39553
730.01        62.33007
730.43        62.37099
730.85        62.54719
731.27        62.87561
731.69        63.22433
732.10        63.33453
732.52        63.15894
732.94        62.82079
733.36        62.51211
733.78        62.41306
734.20         62.5765
734.62         63.2121
735.04         64.0646
735.46        64.07825
735.88        63.44113
736.30        63.62168
736.72        64.60925
737.13        65.00928
737.55        64.63034
737.97        64.66575
738.39        65.09377
738.81        64.53955
739.23        63.39709
739.65        64.04135
740.06        66.04711
740.48        66.25047
740.90         64.7394
741.32        64.08478
741.74        64.50793
742.16         64.7308
742.57         64.7888
742.99        65.38349
743.41        66.32426
743.83        66.90717
744.25        67.00871
744.67        66.80096
745.08        66.48149
745.50        66.37751
745.92        66.58991
746.34        67.00182
746.75         67.4628
747.17        67.72016
747.59        67.73203
748.01        67.58475
748.42        67.44418
748.84        67.58331
749.26        68.06701
749.68        68.69753
750.09         69.3231
750.51        69.90737
750.93         70.2848
751.35         70.0079
751.76         69.2911
752.18        69.03909
752.60        69.27211
753.01        69.31882
753.43        69.17391
753.85          69.297
754.27        69.70248
754.68        70.21005
755.10        70.68303
755.52        71.10522
755.93         71.3983
756.35        71.50015
756.77        71.53487
757.18        71.57687
757.60        71.66017
758.02        72.14309
758.43        72.67454
758.85        72.03679
759.26        70.67602
759.68        70.15538
760.10        70.58541
760.51        71.74361
760.93        71.79494
761.34        71.16499
761.76        70.71114
762.18        70.06732
762.59        69.85162
763.01        70.23874
763.42        71.16281
763.84        71.95996
764.26        72.40241
764.67        72.21467
765.09         71.6131
765.50        71.62882
765.92        72.04784
766.33         71.3138
766.75        69.77545
767.16        69.05587
767.58        69.45766
768.00        70.81865
768.41        72.79411
768.83        74.21545
769.24        74.47913
769.66        73.73612
770.07        72.45359
770.49        70.84197
770.90        69.44046
771.32        70.23016
771.73        72.56734
772.15        72.33361
772.56        69.90009
772.97        69.49642
773.39        71.05879
773.80        71.70197
774.22        71.17552
774.63        71.00566
775.05        71.20981
775.46        71.31876
775.88        71.28454
776.29        71.16584
776.70        71.00517
777.12         70.9716
777.53        71.09669
777.95        71.27052
778.36        71.40884
778.77        71.35512
779.19         71.1213
779.60          70.801
780.02         70.5095
780.43        70.46297
780.84        70.80573
781.26        71.11594
781.67        71.39531
782.09        72.63244
782.50        74.21163
782.91        73.31766
783.33        70.65113
783.74        70.00637
784.15        70.94642
784.57        71.85732
784.98         72.1704
785.39        72.11864
785.81        71.72054
786.22        71.32852
786.63         71.1883
787.04        71.23775
787.46        71.54873
787.87        72.37813
788.28        73.43124
788.70        73.94543
789.11        73.78823
789.52        73.25128
789.93        72.59357
790.35        72.13762
790.76        71.98528
791.17        72.07308
791.58        72.29899
792.00        72.40025
792.41        72.29593
792.82         72.2402
793.23        72.30654
793.65        71.95523
794.06         71.5153
794.47        72.50419
794.88        74.16521
795.29        74.29649
795.71        71.79306
796.12        69.97385
796.53        69.04734
796.94        68.72201
797.35        69.11405
797.76        70.37323
798.18        71.92406
798.59         72.8434
799.00        72.78286
799.41        71.87064
799.82        70.58509
800.23         69.8154
800.64        69.78019
801.06        70.13712
801.47        70.74474
801.88        71.26889
802.29        71.56325
802.70        71.75748
803.11         71.8605
803.52        71.84354
803.93        71.73438
804.34        71.53997
804.75        71.34656
805.17        71.29895
805.58        71.53168
805.99        71.92927
806.40        72.31265
806.81        72.90861
807.22        73.25583
807.63        71.85937
808.04        69.39004
808.45        68.31492
808.86        68.87952
809.27        69.86771
809.68          70.831
810.09         71.4593
810.50        71.51123
810.91        71.09747
811.32        70.47424
811.73        70.06062
812.14        69.97807
812.55        70.05328
812.96          70.243
813.37        70.47193
813.78        70.68401
814.19        70.97425
814.60        71.15183
815.01          70.897
815.42        70.18885
815.83        69.08074
816.24        68.00926
816.65        67.74612
817.05        68.50291
817.46        70.02795
817.87        71.71255
818.28        72.46764
818.69         72.0008
819.10        70.58715
819.51        68.91368
819.92        68.15031
820.33        68.60841
820.74        69.93398
821.14        71.49809
821.55        72.18037
821.96         71.7273
822.37        70.52585
822.78         69.1267
823.19        68.33514
823.60        68.37032
824.00         69.0179
824.41        69.89596
824.82        70.45458
825.23        70.46516
825.64        70.12726
826.04        69.65685
826.45        69.35304
826.86        69.29881
827.27        69.36384
827.68        69.45612
828.08        69.46849
828.49        69.31339
828.90        69.10858
829.31        68.88321
829.72        68.67007
830.12        68.52841
830.53        68.41269
830.94        68.43307
831.35        68.73809
831.75        69.37304
832.16        70.23823
832.57        71.15742
832.97         71.7431
833.38        71.81136
833.79         71.4595
834.20        70.93793
834.60        70.63481
835.01        70.67387
835.42        70.94608
835.82        71.24835
836.23        71.15886
836.64        70.62625
837.04        69.81816
837.45        69.01411
837.86        68.64957
838.26        68.83142
838.67        69.38586
839.08        70.09488
839.48        70.56306
839.89        70.62547
840.29        70.42138
840.70        70.04975
841.11        69.64628
841.51        69.28642
841.92        68.90502
842.33        68.59407
842.73        68.52293
843.14        68.68088
843.54        69.06697
843.95        69.48607
844.35        69.65925
844.76         69.5005
845.17        69.10024
845.57        68.61787
845.98        68.31001
846.38        68.24644
846.79        68.33155
847.19        68.49933
847.60        68.55754
848.00        68.48489
848.41        68.32003
848.81        68.15013
849.22           68.02
849.62        67.99463
850.03        68.06203
850.43        68.21915
850.84        68.39866
851.24        68.60943
851.65        68.70576
852.05         68.8691
852.46        69.23636
852.86        69.80679
853.27        70.53459
853.67        70.92889
854.07        70.35458
854.48        68.83566
854.88         66.6325
855.29        64.47311
855.69        63.39356
856.10        63.60609
856.50         64.9707
856.90        66.97491
857.31        68.39188
857.71        68.80034
858.12        68.44214
858.52        67.74552
858.92        67.28564
859.33        67.21283
859.73        67.35037
860.13        67.63821
860.54        67.97565
860.94        68.36661
861.34        68.83607
861.75        69.30268
862.15        69.70573
862.55        69.98749
862.96        70.15852
863.36        70.25549
863.76        70.32339
864.17        70.37947
864.57         70.4427
864.97        70.56281
865.38        70.81285
865.78        71.23629
866.18        71.73733
866.58        72.20615
866.99        72.44665
867.39        72.44907
867.79        72.28682
868.19        71.93072
868.60        71.33711
869.00        70.56026
869.40        69.64948
869.80        69.02389
870.21        69.29568
870.61        70.63077
871.01        72.83736
871.41        75.23634
871.81        76.65065
872.22        76.79158
872.62        75.97813
873.02        74.84427
873.42        74.68382
873.82        75.49973
874.22        76.33667
874.63        77.05649
875.03        77.43678
875.43        77.23402
875.83        77.84027
876.23        76.33292
876.63        75.06533
877.03        73.53267
877.44        71.60215
877.84        109.1254
878.24        75.58764
878.64        77.75824
879.04        81.75381
879.44        77.37642
879.84         75.4417
880.24        81.66169
880.64        83.59922
881.04        82.69794
881.44        81.73431
881.84        80.98238
882.24        80.19511
882.65        79.71477
883.05        79.50211
883.45        79.55653
883.85        80.29533
884.25        81.44608
884.65        82.12249
885.05        82.09543
885.45        81.59578
885.85        81.04305
886.25        81.05672
886.65        81.74718
887.05        82.90028
887.45        84.13904
887.85        84.79247
888.25        84.65415
888.65        83.96599
889.04        83.05472
889.44         82.4761
889.84        82.36043
890.24        82.49289
890.64        82.76031
891.04        83.00008
891.44         83.1364
891.84        83.28189
892.24        83.28615
892.64         82.8625
893.04         82.0584
893.44        81.03236
893.83        80.18849
894.23        80.11426
894.63        80.87421
895.03         82.2288
895.43        83.88004
895.83        85.24036
896.23        86.02084
896.63          86.369
897.02        86.14992
897.42        85.21098
897.82        83.69107
898.22        81.72366
898.62          79.921
899.01        79.16663
899.41        79.61849
899.81        80.98675
900.21        82.71677
900.61        83.87526
901.00         84.1651
901.40        83.82707
901.80        83.16966
902.20        82.69618
902.59        82.55888
902.99        82.59142
903.39        82.62249
903.79        82.38223
904.18         81.8383
904.58        81.21106
904.98        80.72332
905.38        80.68391
905.77        81.12701
906.17        81.86728
906.57        82.75809
906.96        83.64915
907.36        84.37428
907.76        84.97041
908.15         85.2815
908.55        84.94935
908.95        84.00629
909.34        82.55664
909.74        81.02898
910.14        79.92189
910.53        79.41208
910.93        79.43747
911.33        79.90623
911.72        80.62663
912.12        81.36741
912.52        82.08814
912.91        82.72937
913.31        83.21139
913.70        83.59092
914.10        83.88277
914.49        83.92822
914.89         83.4399
915.29        82.44306
915.68        81.06342
916.08        79.99081
916.47         79.8237
916.87        80.56694
917.26        82.04835
917.66        83.53364
918.05        83.83363
918.45        82.69556
918.84        80.57536
919.24         78.3531
919.64        77.31478
920.03        77.79225
920.42        79.38058
920.82        81.51247
921.21        83.27815
921.61        84.11931
922.00        84.31915
922.40        83.92022
922.79        83.04203
923.19        81.90347
923.58        80.24004
923.98        78.16387
924.37        76.97007
924.77        77.31905
925.16        74.42435
925.55        76.78989
925.95         77.7269
926.34        79.65415
926.74         82.0503
927.13        84.36053
927.52        85.33418
927.92        84.78973
928.31         83.1386
928.70        80.95667
929.10        79.27139
929.49        78.36272
929.89        77.98555
930.28        78.17503
930.67        78.98027
931.07        80.18105
931.46        81.85563
931.85        83.32478
932.24        83.56369
932.64         82.4235
933.03        79.99426
933.42        76.97773
933.82        74.97748
934.21        74.45833
934.60         75.0464
934.99         75.8605
935.39        76.09882
935.78         75.6545
936.17        73.96774
936.56        70.86647
936.96        72.74607
937.35        71.37827
937.74        73.09666
938.13        74.65691
938.53        75.96935
938.92         77.1116
939.31        78.33072
939.70        79.43596
940.09        79.62991
940.49        78.75768
940.88        77.16829
941.27        75.56617
941.66        74.79387
942.05        74.93512
942.44        75.70959
942.84        76.80943
943.23         77.7396
943.62        78.20281
944.01        78.33578
944.40         78.0854
944.79        77.34926
945.18        76.12324
945.57        74.35094
945.97        72.35447
946.36        70.96677
946.75        70.66675
947.14        71.20525
947.53        72.11578
947.92        72.90057
948.31        73.48617
948.70        74.03226
949.09        74.52689
949.48        74.88593
949.87        75.04012
950.26        74.90232
950.65        74.61234
951.04        74.44389
951.43        74.45788
951.82        74.62952
952.21        74.73419
952.60        74.39568
952.99        73.57113
953.38        72.40272
953.77        71.28067
954.16        70.75715
954.55        70.93046
954.94        71.67606
955.33        72.53896
955.72        72.75039
956.11        72.13354
956.50        70.88918
956.89         69.6234
957.28        69.45004
957.66        70.74208
958.05        72.92434
958.44        75.27129
958.83        76.70961
959.22        76.94656
959.61          76.253
960.00        75.03556
960.39        73.95998
960.78        73.25701
961.16        72.76941
961.55        72.25219
961.94         71.3173
962.33        69.95985
962.72        68.46241
963.11        67.18781
963.49        66.53649
963.88        66.53912
964.27        67.08427
964.66        67.91755
965.04        68.50315
965.43        68.54204
965.82        68.22924
966.21        67.83136
966.60        67.72427
966.98        68.00694
967.37        68.49886
967.76        69.09077
968.15          69.552
968.53        69.76475
968.92        69.74848
969.31         69.5726
969.69        69.29082
970.08        68.93884
970.47        68.53208
970.86        68.02251
971.24        67.33839
971.63         66.5174
972.02        65.59896
972.40        64.84737
972.79        64.72054
973.17         65.4021
973.56         66.6983
973.95        68.22281
974.33        69.17323
974.72        69.18266
975.11        68.45463
975.49        67.47034
975.88        66.97056
976.26        67.06683
976.65        67.59056
977.04        68.08499
977.42        67.51981
977.81        65.67664
978.19        63.06691
978.58         60.9185
978.96        60.31418
979.35        61.38284
979.74        63.91516
980.12        67.40836
980.51        69.73417
980.89        70.27971
981.28        69.45782
981.66         68.1282
982.05        67.39693
982.43        67.45832
982.82        67.86723
983.20        68.53619
983.59        69.38011
983.97        70.39674
984.35        71.72058
984.74        72.83105
985.12        72.81972
985.51        71.18467
985.89         68.0128
986.28        64.38329
986.66        61.88465
987.04        61.15821
987.43        61.82665
987.81        62.75235
988.20        62.41348
988.58        60.30245
988.96        55.98575
989.35        50.20255
989.73        47.47184
990.12        51.09368
990.50        59.05626
990.88        66.03326
991.27        67.79417
991.65        64.93173
992.03        58.83552
992.42        52.02442
992.80         49.0308
993.18        51.18893
993.56        55.90682
993.95        61.20567
994.33        65.60603
994.71        68.54741
995.10        70.91573
995.48        72.19526
995.86         71.2403
996.24        67.86251
996.63        61.78928
997.01        54.59404
997.39         51.2072
997.77        53.85699
998.15        61.58365
998.54         70.2059
998.92        73.79465
999.30        70.66209
999.68        62.24953
1000.06        51.23598
1000.45        44.01992
1000.83        43.02554
1001.21        45.95172
1001.59        50.40842
1001.97        53.89306
1002.35        55.83426
1002.73        57.37463
1003.12        57.89792
1003.50        55.64748
1003.88        50.71799
1004.26         44.3955
1004.64        39.11631
1005.02        36.77742
1005.40        37.39132
1005.78        41.02515
1006.16        48.48447
1006.54        56.85098
1006.92        61.04628
1007.30        61.33587
1007.69        59.71417
1008.07         57.8895
1008.45        55.43492
1008.83        50.36832
1009.21         37.0676
1009.59       -1.450659
1009.97       -93.24141
1010.35       -197.6665
1010.73       -155.8732
1011.11       -78.20702
1011.49       -28.29925
1011.86        5.352454
1012.24        24.13773
1012.62        33.16404
1013.00        36.69296
1013.38        36.22041
1013.76        33.94418
1014.14        36.33319
1014.52        48.26753
1014.90        71.27598
1015.28        96.02222
1015.66        97.63438
1016.04        64.67956
1016.41        7.827875
1016.79       -39.20845
1017.17       -47.09544
1017.55       -28.62098
1017.93       -4.210663
1018.31        16.25666
1018.69        28.24623
1019.06        33.33794
1019.44        33.63553
1019.82        29.50417
1020.20        22.12763
1020.58        11.76676
1020.95       -5.754919
1021.33       -65.41193
1021.71        1214.422
1022.09        212.9863
1022.46        168.5322
1022.84        159.6449
1023.22        165.0304
1023.60        191.7857
1023.97        479.8683
1024.35       -12.68454
1024.73        39.10144
